wall_time,elapsed_s,F1_N,F2_N
2026-07-23T16:01:49.712,170.7086,-1.8373,-0.9579
2026-07-23T16:01:49.728,170.7086,-1.9352,-0.8991
2026-07-23T16:01:49.733,170.7086,-1.9352,-0.86
2026-07-23T16:01:49.733,170.7086,-1.8764,-0.9187
2026-07-23T16:01:49.759,170.7408,-1.8764,-0.8796
2026-07-23T16:01:49.759,170.7408,-1.9547,-0.8991
2026-07-23T16:01:49.759,170.7408,-1.8568,-0.8012
2026-07-23T16:01:49.792,170.7722,-1.896,-0.9187
2026-07-23T16:01:49.792,170.7722,-1.8764,-0.9187
2026-07-23T16:01:49.792,170.7722,-1.9156,-0.9187
2026-07-23T16:01:49.807,170.8074,-1.8373,-0.8404
2026-07-23T16:01:49.823,170.8074,-1.8568,-0.9579
2026-07-23T16:01:49.823,170.8074,-1.896,-0.86
2026-07-23T16:01:49.844,170.8355,-1.9156,-0.9187
2026-07-23T16:01:49.858,170.8355,-1.7785,-0.8796
2026-07-23T16:01:49.858,170.8486,-1.9156,-0.8796
2026-07-23T16:01:49.870,170.8684,-1.8764,-0.9579
2026-07-23T16:01:49.886,170.8684,-1.896,-0.8796
2026-07-23T16:01:49.886,170.8684,-1.8177,-0.8404
2026-07-23T16:01:49.902,170.9095,-1.9743,-0.8991
2026-07-23T16:01:49.919,170.9109,-1.8177,-0.86
2026-07-23T16:01:49.919,170.9144,-1.9156,-0.9187
2026-07-23T16:01:49.919,170.9144,-1.8764,-0.8208
2026-07-23T16:01:49.944,170.9457,-1.9547,-0.8991
2026-07-23T16:01:49.958,170.9457,-1.8568,-0.8991
2026-07-23T16:01:49.965,170.9457,-1.9547,-0.9383
2026-07-23T16:01:49.965,170.9457,-1.8764,-0.8404
2026-07-23T16:01:49.993,170.9771,-1.9547,-0.8796
2026-07-23T16:01:49.993,170.9771,-1.896,-0.9187
2026-07-23T16:01:49.996,170.9771,-1.9352,-0.8991
2026-07-23T16:01:50.012,171.0155,-1.9352,-0.8991
2026-07-23T16:01:50.025,171.0155,-1.8568,-0.8991
2026-07-23T16:01:50.028,171.0155,-1.8568,-0.86
2026-07-23T16:01:50.028,171.0417,-1.9156,-0.9383
2026-07-23T16:01:50.060,171.0417,-1.8764,-0.8404
2026-07-23T16:01:50.060,171.0417,-1.9352,-0.8991
2026-07-23T16:01:50.066,171.0572,-1.8568,-0.8991
2026-07-23T16:01:50.076,171.0889,-1.9352,-0.9187
2026-07-23T16:01:50.092,171.0889,-1.896,-0.8991
2026-07-23T16:01:50.092,171.0942,-1.8764,-0.9383
2026-07-23T16:01:50.108,171.1013,-1.896,-0.8991
2026-07-23T16:01:50.124,171.1282,-1.9156,-0.9579
2026-07-23T16:01:50.124,171.1282,-1.8764,-0.86
2026-07-23T16:01:50.145,171.1365,-1.8764,-0.9383
2026-07-23T16:01:50.152,171.1406,-1.9352,-0.86
2026-07-23T16:01:50.156,171.1688,-1.8177,-0.9579
2026-07-23T16:01:50.179,171.1688,-1.896,-0.9187
2026-07-23T16:01:50.186,171.1823,-1.8568,-0.86
2026-07-23T16:01:50.191,171.1849,-1.8373,-0.86
2026-07-23T16:01:50.207,171.2011,-1.7785,-0.86
2026-07-23T16:01:50.220,171.2168,-1.9156,-0.8991
2026-07-23T16:01:50.220,171.2168,-1.8177,-0.8796
2026-07-23T16:01:50.233,171.2243,-1.8568,-0.8208
2026-07-23T16:01:50.252,171.2487,-1.7785,-0.9187
2026-07-23T16:01:50.252,171.2487,-1.9156,-0.8796
2026-07-23T16:01:50.252,171.2487,-1.7981,-0.9383
2026-07-23T16:01:50.275,171.2681,-1.896,-0.8796
2026-07-23T16:01:50.285,171.3015,-1.7198,-0.9187
2026-07-23T16:01:50.300,171.3076,-1.9352,-0.86
2026-07-23T16:01:50.300,171.3076,-1.7981,-0.86
2026-07-23T16:01:50.300,171.3122,-1.896,-0.8796
2026-07-23T16:01:50.319,171.3122,-1.7785,-0.9187
2026-07-23T16:01:50.352,171.36,-1.9352,-0.8404
2026-07-23T16:01:50.352,171.36,-1.8568,-0.9383
2026-07-23T16:01:50.352,171.36,-1.9547,-0.7817
2026-07-23T16:01:50.363,171.36,-1.7589,-0.9383
2026-07-23T16:01:50.363,171.4003,-1.896,-0.8991
2026-07-23T16:01:50.400,171.4013,-1.7785,-0.8796
2026-07-23T16:01:50.400,171.4013,-1.9352,-0.86
2026-07-23T16:01:50.400,171.4074,-1.7981,-0.9187
2026-07-23T16:01:50.411,171.4074,-1.9156,-0.8991
2026-07-23T16:01:50.419,171.4074,-1.7785,-0.9187
2026-07-23T16:01:50.444,171.4392,-1.9547,-0.8404
2026-07-23T16:01:50.446,171.4392,-1.7589,-0.8991
2026-07-23T16:01:50.452,171.4392,-1.9352,-0.7621
2026-07-23T16:01:50.458,171.4553,-1.7785,-0.9579
2026-07-23T16:01:50.474,171.4885,-1.9547,-0.8404
2026-07-23T16:01:50.490,171.4955,-1.7981,-0.9187
2026-07-23T16:01:50.490,171.4955,-1.9352,-0.8991
2026-07-23T16:01:50.490,171.4955,-1.7589,-0.9383
2026-07-23T16:01:50.506,171.5193,-1.896,-0.8991
2026-07-23T16:01:50.538,171.5349,-1.7589,-0.8796
2026-07-23T16:01:50.538,171.5349,-1.9352,-0.8404
2026-07-23T16:01:50.539,171.54,-1.7198,-0.8796
2026-07-23T16:01:50.554,171.54,-1.8764,-0.86
2026-07-23T16:01:50.554,171.5682,-1.7394,-0.8404
2026-07-23T16:01:50.570,171.5682,-1.9156,-0.8796
2026-07-23T16:01:50.570,171.5827,-1.7198,-0.86
2026-07-23T16:01:50.591,171.5827,-1.896,-0.7817
2026-07-23T16:01:50.609,171.6145,-1.7394,-0.8208
2026-07-23T16:01:50.619,171.6145,-1.9352,-0.8796
2026-07-23T16:01:50.619,171.6145,-1.7002,-0.9187
2026-07-23T16:01:50.634,171.6302,-1.8373,-0.7817
2026-07-23T16:01:50.634,171.6621,-1.6806,-0.8796
2026-07-23T16:01:50.652,171.6621,-1.9352,-0.8012
2026-07-23T16:01:50.665,171.6677,-1.7198,-0.8991
2026-07-23T16:01:50.665,171.6677,-1.896,-0.86
2026-07-23T16:01:50.685,171.6677,-1.6415,-0.8796
2026-07-23T16:01:50.692,171.7014,-1.9352,-0.9187
2026-07-23T16:01:50.698,171.7014,-1.7002,-0.9187
2026-07-23T16:01:50.713,171.7099,-1.896,-0.9579
2026-07-23T16:01:50.718,171.7099,-1.7589,-0.86
2026-07-23T16:01:50.734,171.7423,-1.9743,-0.8404
2026-07-23T16:01:50.751,171.7423,-1.7785,-0.8991
2026-07-23T16:01:50.752,171.7423,-2.0331,-0.8991
2026-07-23T16:01:50.761,171.7423,-1.7981,-0.9383
2026-07-23T16:01:50.776,171.7736,-2.0331,-0.8991
2026-07-23T16:01:50.786,171.7736,-1.8177,-0.9187
2026-07-23T16:01:50.793,171.7736,-2.0135,-0.9187
2026-07-23T16:01:50.793,171.7893,-1.8764,-1.0166
2026-07-23T16:01:50.809,171.7969,-2.0722,-0.9579
2026-07-23T16:01:50.824,171.8211,-1.896,-0.9971
2026-07-23T16:01:50.824,171.8211,-1.9939,-0.8796
2026-07-23T16:01:50.848,171.8347,-1.9547,-0.9579
2026-07-23T16:01:50.856,171.8529,-2.0918,-0.9579
2026-07-23T16:01:50.872,171.8529,-1.9547,-0.9187
2026-07-23T16:01:50.872,171.8529,-2.131,-0.9187
2026-07-23T16:01:50.872,171.8689,-1.9352,-0.9775
2026-07-23T16:01:50.888,171.9014,-2.131,-0.9187
2026-07-23T16:01:50.904,171.9014,-1.9352,-0.9971
2026-07-23T16:01:50.904,171.9014,-2.1897,-0.9383
2026-07-23T16:01:50.920,171.9014,-1.9939,-0.9187
2026-07-23T16:01:50.920,171.9348,-2.1506,-0.9383
2026-07-23T16:01:50.948,171.9348,-1.9547,-0.8796
2026-07-23T16:01:50.952,171.9348,-2.0918,-0.9383
2026-07-23T16:01:50.952,171.9486,-1.9547,-0.9187
2026-07-23T16:01:50.968,171.9803,-2.0527,-0.9579
2026-07-23T16:01:50.986,171.9803,-1.9352,-0.8796
2026-07-23T16:01:50.986,171.9803,-2.1897,-0.9971
2026-07-23T16:01:50.999,171.9803,-1.9156,-0.9187
2026-07-23T16:01:50.999,172.0166,-2.1114,-0.9579
2026-07-23T16:01:51.026,172.0166,-1.9352,-0.9579
2026-07-23T16:01:51.031,172.0166,-2.0918,-0.9579
2026-07-23T16:01:51.031,172.0277,-1.9156,-0.9579
2026-07-23T16:01:51.064,172.0443,-2.131,-0.9383
2026-07-23T16:01:51.067,172.0587,-1.9743,-1.0166
2026-07-23T16:01:51.067,172.0598,-2.131,-0.9775
2026-07-23T16:01:51.078,172.0598,-1.9547,-0.8991
2026-07-23T16:01:51.095,172.0911,-2.131,-0.9187
2026-07-23T16:01:51.095,172.098,-1.9352,-0.9187
2026-07-23T16:01:51.111,172.1011,-2.131,-0.9775
2026-07-23T16:01:51.126,172.1232,-1.9743,-0.9187
2026-07-23T16:01:51.126,172.1347,-2.1897,-0.9579
2026-07-23T16:01:51.142,172.1347,-1.9352,-0.8991
2026-07-23T16:01:51.152,172.1388,-2.1701,-0.9187
2026-07-23T16:01:51.174,172.1682,-1.9156,-0.9383
2026-07-23T16:01:51.174,172.1682,-2.2093,-0.9579
2026-07-23T16:01:51.185,172.1708,-1.9352,-0.9775
2026-07-23T16:01:51.193,172.1708,-2.1897,-0.9383
2026-07-23T16:01:51.206,172.2024,-1.8764,-0.9775
2026-07-23T16:01:51.206,172.2024,-2.1897,-0.8796
2026-07-23T16:01:51.222,172.2024,-1.9743,-0.8404
2026-07-23T16:01:51.252,172.2344,-2.1897,-0.9579
2026-07-23T16:01:51.252,172.2344,-1.9352,-0.8991
2026-07-23T16:01:51.253,172.2344,-2.1506,-0.9383
2026-07-23T16:01:51.253,172.2344,-1.9547,-0.9187
2026-07-23T16:01:51.285,172.2681,-2.1701,-0.9579
2026-07-23T16:01:51.285,172.2681,-1.9743,-0.8012
2026-07-23T16:01:51.285,172.2815,-2.131,-0.9187
2026-07-23T16:01:51.300,172.3086,-1.9939,-0.7621
2026-07-23T16:01:51.319,172.3086,-2.1506,-0.8404
2026-07-23T16:01:51.319,172.3134,-1.9156,-0.7817
2026-07-23T16:01:51.332,172.344,-2.1114,-0.8012
2026-07-23T16:01:51.332,172.3455,-1.9547,-0.7425
2026-07-23T16:01:51.352,172.351,-2.0331,-0.7817
2026-07-23T16:01:51.364,172.351,-1.8764,-0.7621
2026-07-23T16:01:51.364,172.351,-2.0918,-0.7817
2026-07-23T16:01:51.385,172.3783,-1.9547,-0.7229
2026-07-23T16:01:51.385,172.3783,-1.9743,-0.7425
2026-07-23T16:01:51.402,172.3783,-1.9547,-0.7425
2026-07-23T16:01:51.419,172.4088,-2.0918,-0.7621
2026-07-23T16:01:51.429,172.4088,-1.8764,-0.7425
2026-07-23T16:01:51.429,172.4088,-2.0722,-0.7425
2026-07-23T16:01:51.444,172.4246,-1.896,-0.7425
2026-07-23T16:01:51.452,172.4407,-2.0527,-0.86
2026-07-23T16:01:51.460,172.4407,-1.896,-0.7621
2026-07-23T16:01:51.475,172.4566,-2.0722,-0.8404
2026-07-23T16:01:51.485,172.4884,-1.9743,-0.8208
2026-07-23T16:01:51.491,172.4884,-2.0918,-0.8404
2026-07-23T16:01:51.491,172.4884,-1.9547,-0.8012
2026-07-23T16:01:51.507,172.5199,-2.0722,-0.86
2026-07-23T16:01:51.526,172.5199,-1.9939,-0.8991
2026-07-23T16:01:51.526,172.5199,-2.0331,-0.8796
2026-07-23T16:01:51.539,172.5199,-1.9743,-0.86
2026-07-23T16:01:51.552,172.5591,-2.0722,-0.8796
2026-07-23T16:01:51.571,172.5591,-2.0135,-0.8012
2026-07-23T16:01:51.571,172.5678,-2.0527,-0.9383
2026-07-23T16:01:51.586,172.5678,-2.0135,-0.8404
2026-07-23T16:01:51.602,172.583,-2.0527,-0.9383
2026-07-23T16:01:51.602,172.583,-1.9352,-0.8404
2026-07-23T16:01:51.610,172.5998,-2.0135,-0.9187
2026-07-23T16:01:51.619,172.6013,-1.9352,-0.86
2026-07-23T16:01:51.634,172.6147,-2.0722,-0.8991
2026-07-23T16:01:51.634,172.6147,-1.9743,-0.8796
2026-07-23T16:01:51.652,172.6345,-1.9939,-0.9187
2026-07-23T16:01:51.652,172.6464,-1.9939,-0.86
2026-07-23T16:01:51.666,172.6464,-1.9743,-0.9383
2026-07-23T16:01:51.685,172.6624,-1.9547,-0.8796
2026-07-23T16:01:51.693,172.6843,-2.0331,-0.9579
2026-07-23T16:01:51.697,172.6843,-1.8764,-0.9383
2026-07-23T16:01:51.713,172.6941,-2.0135,-0.9775
2026-07-23T16:01:51.719,172.7103,-2.0918,-0.9187
2026-07-23T16:01:51.735,172.7103,-2.0527,-0.9579
2026-07-23T16:01:51.745,172.7258,-1.9547,-0.9383
2026-07-23T16:01:51.752,172.743,-2.0331,-0.9579
2026-07-23T16:01:51.761,172.743,-2.0135,-0.8208
2026-07-23T16:01:51.777,172.7575,-2.0722,-0.9383
2026-07-23T16:01:51.786,172.7735,-2.0135,-0.9383
2026-07-23T16:01:51.794,172.7735,-2.0527,-0.9579
2026-07-23T16:01:51.794,172.7735,-2.0331,-0.9383
2026-07-23T16:01:51.819,172.8094,-2.0918,-0.9187
2026-07-23T16:01:51.824,172.8094,-2.0135,-0.9187
2026-07-23T16:01:51.824,172.8209,-2.0722,-0.9775
2026-07-23T16:01:51.840,172.8209,-2.0135,-0.9383
2026-07-23T16:01:51.860,172.837,-2.0331,-0.9383
2026-07-23T16:01:51.860,172.8507,-2.0527,-0.9187
2026-07-23T16:01:51.872,172.8527,-2.0918,-0.9775
2026-07-23T16:01:51.885,172.868,-2.1701,-0.9775
2026-07-23T16:01:51.888,172.884,-2.1114,-0.9775
2026-07-23T16:01:51.904,172.884,-2.0527,-0.9579
2026-07-23T16:01:51.904,172.9012,-2.0918,-0.9971
2026-07-23T16:01:51.919,172.9012,-2.0722,-0.9383
2026-07-23T16:01:51.935,172.9162,-2.1114,-0.9579
2026-07-23T16:01:51.951,172.9345,-2.0331,-0.9383
2026-07-23T16:01:51.952,172.9345,-2.0135,-0.9775
2026-07-23T16:01:51.952,172.948,-2.0918,-0.9971
2026-07-23T16:01:51.967,172.976,-2.1114,-1.0166
2026-07-23T16:01:51.983,172.976,-2.131,-0.9775
2026-07-23T16:01:51.985,172.98,-2.0527,-0.9971
2026-07-23T16:01:51.999,172.98,-2.0918,-0.9579
2026-07-23T16:01:52.022,173.0018,-2.1701,-1.0166
2026-07-23T16:01:52.022,173.0118,-2.1114,-0.9579
2026-07-23T16:01:52.031,173.0345,-2.1114,-0.9775
2026-07-23T16:01:52.047,173.0437,-2.131,-1.0362
2026-07-23T16:01:52.053,173.0447,-2.1506,-0.9775
2026-07-23T16:01:52.063,173.049,-2.131,-1.0166
2026-07-23T16:01:52.085,173.075,-2.1506,-1.0754
2026-07-23T16:01:52.085,173.075,-2.1506,-1.0166
2026-07-23T16:01:52.094,173.075,-2.1897,-1.0166
2026-07-23T16:01:52.110,173.1023,-2.1897,-0.9383
2026-07-23T16:01:52.119,173.1023,-2.1701,-1.0558
2026-07-23T16:01:52.126,173.1068,-2.1701,-0.9971
2026-07-23T16:01:52.126,173.1348,-2.1506,-0.9775
2026-07-23T16:01:52.142,173.1388,-2.1701,-0.9775
2026-07-23T16:01:52.158,173.1429,-2.2093,-1.0166
2026-07-23T16:01:52.158,173.1429,-2.0527,-0.9971
2026-07-23T16:01:52.186,173.1708,-2.1897,-0.9775
2026-07-23T16:01:52.186,173.1708,-2.131,-1.0362
2026-07-23T16:01:52.194,173.1708,-2.1506,-1.0362
2026-07-23T16:01:52.206,173.2028,-2.1114,-1.0754
2026-07-23T16:01:52.222,173.2028,-2.1506,-1.0166
2026-07-23T16:01:52.222,173.2028,-2.0527,-1.0166
2026-07-23T16:01:52.222,173.2186,-2.1897,-0.9579
2026-07-23T16:01:52.254,173.2407,-2.1897,-1.0166
2026-07-23T16:01:52.254,173.2407,-2.1506,-1.0166
2026-07-23T16:01:52.254,173.2498,-2.131,-1.0558
2026-07-23T16:01:52.279,173.2681,-2.1114,-0.9971
2026-07-23T16:01:52.289,173.2681,-2.1114,-1.0362
2026-07-23T16:01:52.291,173.2681,-2.1506,-1.0166
2026-07-23T16:01:52.301,173.3033,-2.1897,-1.0166
2026-07-23T16:01:52.319,173.3033,-2.1701,-0.9971
2026-07-23T16:01:52.319,173.3096,-2.1506,-1.095
2026-07-23T16:01:52.332,173.3347,-2.1506,-1.0166
2026-07-23T16:01:52.352,173.3347,-2.1701,-1.0362
2026-07-23T16:01:52.354,173.3347,-2.1114,-0.9971
2026-07-23T16:01:52.364,173.345,-2.1506,-0.9971
2026-07-23T16:01:52.380,173.3679,-2.0527,-0.9775
2026-07-23T16:01:52.385,173.377,-2.0527,-1.0166
2026-07-23T16:01:52.396,173.377,-2.0331,-0.9187
2026-07-23T16:01:52.402,173.4098,-2.0918,-0.9579
2026-07-23T16:01:52.419,173.4098,-1.9743,-0.9579
2026-07-23T16:01:52.428,173.4098,-2.1506,-1.0362
2026-07-23T16:01:52.428,173.4098,-2.0135,-0.9579
2026-07-23T16:01:52.454,173.4409,-2.131,-0.9187
2026-07-23T16:01:52.454,173.4409,-2.0331,-0.9971
2026-07-23T16:01:52.461,173.4409,-2.0135,-0.9775
2026-07-23T16:01:52.476,173.4764,-2.0331,-0.9383
2026-07-23T16:01:52.486,173.4764,-2.0918,-1.0362
2026-07-23T16:01:52.492,173.4764,-2.0722,-0.9775
2026-07-23T16:01:52.507,173.5039,-2.3072,-0.9971
2026-07-23T16:01:52.519,173.5039,-2.0527,-0.8991
2026-07-23T16:01:52.523,173.5039,-2.0722,-0.8991
2026-07-23T16:01:52.539,173.5366,-2.0527,-0.9775
2026-07-23T16:01:52.552,173.5366,-2.0918,-1.0362
2026-07-23T16:01:52.555,173.5366,-2.0527,-0.9971
2026-07-23T16:01:52.555,173.5521,-2.1701,-1.0166
2026-07-23T16:01:52.587,173.5679,-2.131,-1.0166
2026-07-23T16:01:52.587,173.5836,-2.0722,-1.0558
2026-07-23T16:01:52.587,173.5836,-2.0918,-0.8991
2026-07-23T16:01:52.603,173.5836,-2.1506,-1.0362
2026-07-23T16:01:52.611,173.6151,-2.0918,-0.9579
2026-07-23T16:01:52.619,173.6151,-2.0918,-0.9971
2026-07-23T16:01:52.634,173.6151,-2.0722,-0.9775
2026-07-23T16:01:52.650,173.647,-2.1701,-0.9775
2026-07-23T16:01:52.666,173.647,-2.0918,-1.0166
2026-07-23T16:01:52.666,173.647,-2.131,-0.9383
2026-07-23T16:01:52.666,173.663,-2.1506,-0.9383
2026-07-23T16:01:52.686,173.6851,-2.131,-0.9971
2026-07-23T16:01:52.698,173.6947,-2.0722,-1.0166
2026-07-23T16:01:52.698,173.6947,-2.0135,-1.0362
2026-07-23T16:01:52.714,173.7301,-2.1114,-1.0166
2026-07-23T16:01:52.729,173.7312,-2.1701,-1.0166
2026-07-23T16:01:52.736,173.7332,-2.1114,-0.9971
2026-07-23T16:01:52.736,173.7346,-2.1506,-1.0362
2026-07-23T16:01:52.755,173.7422,-2.1701,-1.0166
2026-07-23T16:01:52.778,173.7743,-2.131,-1.0166
2026-07-23T16:01:52.779,173.7743,-2.0722,-0.9971
2026-07-23T16:01:52.785,173.7902,-2.1506,-1.095
2026-07-23T16:01:52.793,173.7902,-2.131,-0.9775
2026-07-23T16:01:52.793,173.8219,-2.1506,-1.0166
2026-07-23T16:01:52.809,173.8219,-2.1506,-1.0166
2026-07-23T16:01:52.825,173.8219,-2.1506,-1.0166
2026-07-23T16:01:52.825,173.8219,-2.131,-0.9971
2026-07-23T16:01:52.841,173.8377,-2.0918,-1.0166
2026-07-23T16:01:52.857,173.8673,-2.131,-0.9579
2026-07-23T16:01:52.873,173.8683,-2.1701,-0.9971
2026-07-23T16:01:52.873,173.8698,-2.131,-1.0166
2026-07-23T16:01:52.873,173.8704,-2.0918,-0.9187
2026-07-23T16:01:52.889,173.8939,-2.1506,-0.9775
2026-07-23T16:01:52.905,173.9014,-2.1114,-0.9971
2026-07-23T16:01:52.905,173.9053,-2.1506,-0.9971
2026-07-23T16:01:52.921,173.9053,-2.1114,-1.0362
2026-07-23T16:01:52.936,173.9356,-2.1701,-0.9775
2026-07-23T16:01:52.945,173.9356,-2.131,-1.095
2026-07-23T16:01:52.952,173.9356,-2.1897,-0.9971
2026-07-23T16:01:52.956,173.9679,-2.1114,-1.0362
2026-07-23T16:01:52.968,173.9679,-2.1506,-1.0166
2026-07-23T16:01:52.986,173.9679,-2.1114,-1.0362
2026-07-23T16:01:52.986,173.9772,-2.1114,-0.9971
2026-07-23T16:01:53.000,174.0013,-2.131,-0.9579
2026-07-23T16:01:53.016,174.0013,-2.1506,-0.9579
2026-07-23T16:01:53.019,174.0054,-2.1114,-1.0166
2026-07-23T16:01:53.032,174.0345,-2.1506,-1.0166
2026-07-23T16:01:53.048,174.0345,-2.0527,-0.9775
2026-07-23T16:01:53.056,174.0441,-2.2093,-0.9775
2026-07-23T16:01:53.070,174.0681,-2.0918,-0.9971
2026-07-23T16:01:53.079,174.0681,-2.1506,-0.8796
2026-07-23T16:01:53.085,174.0681,-2.1114,-1.0362
2026-07-23T16:01:53.095,174.0761,-2.131,-0.9579
2026-07-23T16:01:53.112,174.1021,-2.0722,-1.0166
2026-07-23T16:01:53.112,174.1059,-2.1114,-0.9775
2026-07-23T16:01:53.127,174.1079,-2.0918,-1.0166
2026-07-23T16:01:53.143,174.1393,-2.131,-1.0166
2026-07-23T16:01:53.143,174.144,-2.0918,-0.9971
2026-07-23T16:01:53.153,174.144,-2.1506,-0.9971
2026-07-23T16:01:53.159,174.171,-2.1506,-1.0362
2026-07-23T16:01:53.185,174.171,-2.131,-0.9579
2026-07-23T16:01:53.185,174.171,-2.0722,-0.9971
2026-07-23T16:01:53.195,174.171,-2.131,-0.9579
2026-07-23T16:01:53.206,174.203,-2.0722,-0.9971
2026-07-23T16:01:53.219,174.206,-2.1897,-0.9971
2026-07-23T16:01:53.222,174.206,-2.1114,-1.0166
2026-07-23T16:01:53.238,174.235,-2.131,-0.9383
2026-07-23T16:01:53.252,174.235,-2.1114,-1.0166
2026-07-23T16:01:53.257,174.235,-2.131,-0.9579
2026-07-23T16:01:53.257,174.235,-2.0722,-0.9971
2026-07-23T16:01:53.280,174.2691,-2.131,-1.0166
2026-07-23T16:01:53.286,174.2691,-2.1701,-1.0362
2026-07-23T16:01:53.286,174.2691,-2.131,-0.9775
2026-07-23T16:01:53.302,174.3016,-2.0722,-1.0166
2026-07-23T16:01:53.302,174.3062,-2.0918,-0.9971
2026-07-23T16:01:53.320,174.3106,-2.0722,-0.9971
2026-07-23T16:01:53.333,174.3348,-2.0722,-0.9971
2026-07-23T16:01:53.349,174.3348,-2.0722,-0.9775
2026-07-23T16:01:53.352,174.3348,-2.1114,-0.9971
2026-07-23T16:01:53.363,174.3454,-2.0918,-0.9775
2026-07-23T16:01:53.380,174.368,-2.0918,-0.9971
2026-07-23T16:01:53.380,174.368,-2.0722,-1.0362
2026-07-23T16:01:53.396,174.368,-2.1114,-0.9383
2026-07-23T16:01:53.403,174.3943,-2.0918,-0.9579
2026-07-23T16:01:53.412,174.3943,-2.1114,-0.8991
2026-07-23T16:01:53.419,174.4016,-2.0331,-1.0166
2026-07-23T16:01:53.445,174.4264,-2.0722,-1.0166
2026-07-23T16:01:53.445,174.4264,-2.0722,-0.9187
2026-07-23T16:01:53.452,174.4264,-2.131,-0.9579
2026-07-23T16:01:53.460,174.4573,-2.1506,-0.9775
2026-07-23T16:01:53.460,174.4573,-2.0722,-0.9775
2026-07-23T16:01:53.492,174.4775,-2.0722,-0.9579
2026-07-23T16:01:53.493,174.4775,-2.0722,-0.9579
2026-07-23T16:01:53.493,174.4775,-2.0527,-0.9775
2026-07-23T16:01:53.524,174.5074,-2.0918,-0.9579
2026-07-23T16:01:53.528,174.5074,-2.0331,-0.9775
2026-07-23T16:01:53.528,174.5202,-2.131,-0.9971
2026-07-23T16:01:53.539,174.5237,-2.0918,-0.9187
2026-07-23T16:01:53.558,174.5362,-2.0722,-0.9775
2026-07-23T16:01:53.558,174.5521,-2.0722,-0.9775
2026-07-23T16:01:53.574,174.5693,-2.0135,-1.0166
2026-07-23T16:01:53.574,174.5693,-2.0527,-0.9775
2026-07-23T16:01:53.587,174.5693,-2.0527,-1.0166
2026-07-23T16:01:53.603,174.5843,-2.0527,-1.0166
2026-07-23T16:01:53.612,174.6075,-2.0331,-0.8991
2026-07-23T16:01:53.620,174.6075,-2.0135,-0.9971
2026-07-23T16:01:53.620,174.6075,-2.0331,-1.0362
2026-07-23T16:01:53.654,174.6348,-1.9743,-0.9383
2026-07-23T16:01:53.654,174.6348,-2.0135,-1.0166
2026-07-23T16:01:53.667,174.6444,-1.9939,-0.9383
2026-07-23T16:01:53.667,174.6682,-1.9743,-0.9579
2026-07-23T16:01:53.686,174.6682,-1.9743,-0.8991
2026-07-23T16:01:53.695,174.6682,-1.9547,-1.0166
2026-07-23T16:01:53.698,174.7018,-1.9547,-0.9579
2026-07-23T16:01:53.714,174.7018,-1.9743,-0.9775
2026-07-23T16:01:53.719,174.7018,-1.9939,-0.9383
2026-07-23T16:01:53.746,174.7279,-1.9743,-0.9971
2026-07-23T16:01:53.746,174.7347,-1.9156,-0.9383
2026-07-23T16:01:53.759,174.7347,-1.896,-0.9775
2026-07-23T16:01:53.769,174.7578,-1.9156,-0.8991
2026-07-23T16:01:53.779,174.7578,-1.896,-0.9383
2026-07-23T16:01:53.785,174.7698,-1.9352,-0.8796
2026-07-23T16:01:53.793,174.7897,-1.8568,-0.9383
2026-07-23T16:01:53.809,174.7897,-1.9156,-0.7817
2026-07-23T16:01:53.809,174.7897,-1.8764,-0.9579
2026-07-23T16:01:53.840,174.8216,-1.9352,-0.86
2026-07-23T16:01:53.840,174.8216,-1.896,-0.9383
2026-07-23T16:01:53.840,174.8216,-1.9156,-0.9383
2026-07-23T16:01:53.853,174.8216,-1.8764,-0.9579
2026-07-23T16:01:53.872,174.853,-1.896,-0.8796
2026-07-23T16:01:53.872,174.853,-1.9352,-0.9579
2026-07-23T16:01:53.888,174.8683,-1.9547,-0.8796
2026-07-23T16:01:53.888,174.8841,-1.9156,-0.9187
2026-07-23T16:01:53.904,174.8841,-1.9156,-0.8991
2026-07-23T16:01:53.919,174.9084,-1.9156,-0.9383
2026-07-23T16:01:53.919,174.9084,-1.9547,-0.9383
2026-07-23T16:01:53.935,174.9158,-1.9547,-0.9187
2026-07-23T16:01:53.951,174.9367,-1.9939,-0.8991
2026-07-23T16:01:53.959,174.9367,-1.9352,-0.9383
2026-07-23T16:01:53.967,174.9474,-1.9156,-0.9187
2026-07-23T16:01:53.982,174.968,-1.896,-0.9187
2026-07-23T16:01:53.988,174.968,-1.9743,-0.9187
2026-07-23T16:01:53.988,174.9791,-1.8568,-0.9187
2026-07-23T16:01:53.998,175.0016,-1.9352,-0.9579
2026-07-23T16:01:54.014,175.0026,-1.8177,-0.9579
2026-07-23T16:01:54.019,175.0026,-1.9156,-0.8796
2026-07-23T16:01:54.030,175.0275,-1.6023,-0.9579
2026-07-23T16:01:54.046,175.0275,-1.9547,-0.9775
2026-07-23T16:01:54.053,175.035,-1.8373,-0.9775
2026-07-23T16:01:54.071,175.0615,-1.9352,-0.9775
2026-07-23T16:01:54.078,175.0615,-1.7394,-0.9579
2026-07-23T16:01:54.086,175.0615,-1.9743,-0.9187
2026-07-23T16:01:54.093,175.0919,-1.7981,-0.9579
2026-07-23T16:01:54.109,175.0919,-1.9352,-0.8991
2026-07-23T16:01:54.112,175.0919,-1.7394,-0.9383
2026-07-23T16:01:54.125,175.1219,-1.8764,-0.8991
2026-07-23T16:01:54.125,175.1219,-1.6415,-0.9579
2026-07-23T16:01:54.143,175.1219,-1.896,-0.8991
2026-07-23T16:01:54.153,175.1349,-1.6806,-0.9383
2026-07-23T16:01:54.160,175.154,-1.7589,-0.8991
2026-07-23T16:01:54.173,175.154,-1.6219,-0.9383
2026-07-23T16:01:54.186,175.1699,-1.7981,-0.8404
2026-07-23T16:01:54.196,175.1897,-1.6415,-0.8991
2026-07-23T16:01:54.205,175.1897,-1.7198,-0.8991
2026-07-23T16:01:54.205,175.1897,-1.6219,-0.8796
2026-07-23T16:01:54.224,175.2172,-1.7589,-0.8991
2026-07-23T16:01:54.241,175.2172,-1.5827,-0.9187
2026-07-23T16:01:54.241,175.2172,-1.7981,-0.8012
2026-07-23T16:01:54.268,175.2486,-1.6023,-0.8404
2026-07-23T16:01:54.268,175.2486,-1.7394,-0.8208
2026-07-23T16:01:54.268,175.2486,-1.5631,-0.9187
2026-07-23T16:01:54.286,175.2809,-1.7589,-0.86
2026-07-23T16:01:54.299,175.2809,-1.6023,-0.86
2026-07-23T16:01:54.299,175.2809,-1.7589,-0.8404
2026-07-23T16:01:54.321,175.31,-1.5827,-0.86
2026-07-23T16:01:54.321,175.312,-1.7589,-0.8208
2026-07-23T16:01:54.332,175.312,-1.5827,-0.9187
2026-07-23T16:01:54.347,175.3347,-1.7785,-0.86
2026-07-23T16:01:54.353,175.3435,-1.5827,-0.8012
2026-07-23T16:01:54.363,175.3479,-1.9547,-0.8208
2026-07-23T16:01:54.385,175.3679,-1.8568,-0.8991
2026-07-23T16:01:54.385,175.375,-2.131,-0.6642
2026-07-23T16:01:54.399,175.375,-1.9547,-0.7817
2026-07-23T16:01:54.404,175.4069,-2.1897,-0.8012
2026-07-23T16:01:54.419,175.4101,-1.8568,-0.7425
2026-07-23T16:01:54.419,175.4101,-2.1506,-0.7033
2026-07-23T16:01:54.442,175.4388,-1.9743,-0.7033
2026-07-23T16:01:54.444,175.4388,-2.1897,-0.6838
2026-07-23T16:01:54.461,175.4388,-1.9743,-0.7817
2026-07-23T16:01:54.461,175.4388,-2.1114,-0.7033
2026-07-23T16:01:54.474,175.4727,-1.9547,-0.7817
2026-07-23T16:01:54.488,175.4727,-2.131,-0.6838
2026-07-23T16:01:54.490,175.4789,-1.8568,-0.7229
2026-07-23T16:01:54.506,175.5025,-2.0918,-0.6838
2026-07-23T16:01:54.506,175.5025,-1.9156,-0.7621
2026-07-23T16:01:54.530,175.5104,-2.0527,-0.7229
2026-07-23T16:01:54.537,175.5202,-1.7785,-0.6838
2026-07-23T16:01:54.537,175.535,-1.9352,-0.7229
2026-07-23T16:01:54.553,175.535,-1.7394,-0.7229
2026-07-23T16:01:54.569,175.55,-1.896,-0.6642
2026-07-23T16:01:54.571,175.5621,-1.6415,-0.7229
2026-07-23T16:01:54.586,175.5657,-1.8764,-0.5859
2026-07-23T16:01:54.601,175.5815,-1.6415,-0.7425
2026-07-23T16:01:54.601,175.5815,-1.7785,-0.6446
2026-07-23T16:01:54.619,175.5972,-1.661,-0.6446
2026-07-23T16:01:54.632,175.6129,-1.7981,-0.7033
2026-07-23T16:01:54.632,175.6129,-1.6806,-0.7033
2026-07-23T16:01:54.648,175.6286,-1.8177,-0.6642
2026-07-23T16:01:54.655,175.6455,-1.7394,-0.7425
2026-07-23T16:01:54.664,175.6455,-1.7981,-0.7033
2026-07-23T16:01:54.679,175.6455,-1.6806,-0.7033
2026-07-23T16:01:54.685,175.6767,-1.8373,-0.7033
2026-07-23T16:01:54.696,175.6767,-1.6219,-0.7033
2026-07-23T16:01:54.696,175.6767,-1.8177,-0.625
2026-07-23T16:01:54.711,175.7082,-1.6023,-0.6642
2026-07-23T16:01:54.727,175.7113,-1.7394,-0.625
2026-07-23T16:01:54.727,175.7113,-1.5631,-0.6642
2026-07-23T16:01:54.743,175.7348,-1.6806,-0.6642
2026-07-23T16:01:54.754,175.7403,-1.5044,-0.7425
2026-07-23T16:01:54.762,175.7403,-1.7002,-0.6838
2026-07-23T16:01:54.775,175.7564,-1.5044,-0.6642
2026-07-23T16:01:54.786,175.7726,-1.7002,-0.6642
2026-07-23T16:01:54.791,175.7726,-1.5044,-0.7033
2026-07-23T16:01:54.791,175.7886,-1.661,-0.7033
2026-07-23T16:01:54.807,175.8027,-1.4848,-0.7229
2026-07-23T16:01:54.823,175.8044,-1.4848,-0.6838
2026-07-23T16:01:54.823,175.8203,-1.4065,-0.7229
2026-07-23T16:01:54.839,175.8203,-1.6415,-0.7229
2026-07-23T16:01:54.855,175.8364,-1.4652,-0.7229
2026-07-23T16:01:54.863,175.8543,-1.661,-0.7425
2026-07-23T16:01:54.871,175.8543,-1.4848,-0.7229
2026-07-23T16:01:54.887,175.8543,-1.5827,-0.6838
2026-07-23T16:01:54.887,175.8872,-1.4652,-0.7621
2026-07-23T16:01:54.905,175.8903,-1.524,-0.7033
2026-07-23T16:01:54.905,175.8913,-1.3869,-0.6446
2026-07-23T16:01:54.919,175.9155,-1.5436,-0.625
2026-07-23T16:01:54.938,175.9155,-1.3282,-0.6446
2026-07-23T16:01:54.947,175.9155,-1.4652,-0.6054
2026-07-23T16:01:54.954,175.947,-1.3282,-0.625
2026-07-23T16:01:54.966,175.947,-1.4652,-0.5859
2026-07-23T16:01:54.966,175.947,-1.3282,-0.5859
2026-07-23T16:01:54.982,175.9795,-1.4652,-0.5467
2026-07-23T16:01:54.988,175.9795,-1.3477,-0.5663
2026-07-23T16:01:54.998,175.9795,-1.4848,-0.6446
2026-07-23T16:01:55.019,176.0122,-1.3477,-0.625
2026-07-23T16:01:55.019,176.0122,-1.5631,-0.6054
2026-07-23T16:01:55.030,176.0122,-1.3869,-0.6642
2026-07-23T16:01:55.061,176.0429,-1.6415,-0.5859
2026-07-23T16:01:55.061,176.0429,-1.4652,-0.6642
2026-07-23T16:01:55.063,176.0429,-1.5436,-0.6642
2026-07-23T16:01:55.077,176.074,-1.4261,-0.6446
2026-07-23T16:01:55.086,176.074,-1.4848,-0.8012
2026-07-23T16:01:55.094,176.074,-1.4261,-0.7033
2026-07-23T16:01:55.109,176.1072,-1.524,-0.7425
2026-07-23T16:01:55.119,176.1127,-1.4261,-0.7425
2026-07-23T16:01:55.125,176.1127,-1.5827,-0.7033
2026-07-23T16:01:55.125,176.1379,-1.4261,-0.7033
2026-07-23T16:01:55.155,176.1379,-1.5631,-0.7229
2026-07-23T16:01:55.158,176.1463,-1.3673,-0.7817
2026-07-23T16:01:55.163,176.1463,-1.524,-0.7817
2026-07-23T16:01:55.174,176.1701,-1.3673,-0.7033
2026-07-23T16:01:55.189,176.1701,-1.5436,-0.7621
2026-07-23T16:01:55.197,176.1701,-1.3673,-0.6838
2026-07-23T16:01:55.205,176.2034,-1.4652,-0.6838
2026-07-23T16:01:55.205,176.2034,-1.3282,-0.6838
2026-07-23T16:01:55.221,176.213,-1.4261,-0.8012
2026-07-23T16:01:55.221,176.213,-1.2498,-0.6838
2026-07-23T16:01:55.254,176.2399,-1.4065,-0.7817
2026-07-23T16:01:55.254,176.2399,-1.3086,-0.7033
2026-07-23T16:01:55.264,176.2486,-1.4652,-0.7229
2026-07-23T16:01:55.273,176.2714,-1.2498,-0.7033
2026-07-23T16:01:55.289,176.2714,-1.3673,-0.6838
2026-07-23T16:01:55.296,176.2805,-1.1911,-0.7229
2026-07-23T16:01:55.299,176.3128,-1.3477,-0.7229
2026-07-23T16:01:55.315,176.3134,-1.1128,-0.6838
2026-07-23T16:01:55.322,176.3134,-1.3282,-0.7229
2026-07-23T16:01:55.331,176.3451,-1.1324,-0.6446
2026-07-23T16:01:55.331,176.3451,-1.3477,-0.7229
2026-07-23T16:01:55.354,176.3451,-1.1324,-0.7229
2026-07-23T16:01:55.364,176.3545,-1.2694,-0.7621
2026-07-23T16:01:55.386,176.3757,-1.0736,-0.6642
2026-07-23T16:01:55.386,176.3757,-1.3282,-0.7229
2026-07-23T16:01:55.396,176.3757,-1.0345,-0.6838
2026-07-23T16:01:55.405,176.3757,-1.2498,-0.6838
2026-07-23T16:01:55.411,176.4136,-1.1128,-0.7425
2026-07-23T16:01:55.426,176.4136,-1.2694,-0.7425
2026-07-23T16:01:55.426,176.4136,-1.1324,-0.6054
2026-07-23T16:01:55.447,176.4395,-1.289,-0.7425
2026-07-23T16:01:55.458,176.4395,-1.1519,-0.6642
2026-07-23T16:01:55.464,176.4395,-1.3869,-0.5859
2026-07-23T16:01:55.490,176.4714,-1.054,-0.625
2026-07-23T16:01:55.490,176.4714,-1.2498,-0.6642
2026-07-23T16:01:55.490,176.4799,-1.0932,-0.7033
2026-07-23T16:01:55.506,176.5037,-1.2498,-0.6838
2026-07-23T16:01:55.522,176.5037,-0.9757,-0.6446
2026-07-23T16:01:55.522,176.5037,-1.1519,-0.6838
2026-07-23T16:01:55.538,176.5349,-1.0345,-0.625
2026-07-23T16:01:55.552,176.5349,-1.1324,-0.625
2026-07-23T16:01:55.554,176.5349,-0.9953,-0.5663
2026-07-23T16:01:55.565,176.5664,-1.1128,-0.6054
2026-07-23T16:01:55.572,176.5684,-0.9757,-0.625
2026-07-23T16:01:55.586,176.5684,-1.0932,-0.6054
2026-07-23T16:01:55.586,176.5684,-1.0149,-0.5663
2026-07-23T16:01:55.601,176.598,-1.1128,-0.6054
2026-07-23T16:01:55.614,176.6036,-0.9953,-0.5075
2026-07-23T16:01:55.619,176.6051,-1.0932,-0.5663
2026-07-23T16:01:55.633,176.6347,-0.9953,-0.5859
2026-07-23T16:01:55.649,176.6347,-1.054,-0.5859
2026-07-23T16:01:55.656,176.6347,-0.9953,-0.5859
2026-07-23T16:01:55.665,176.6621,-1.1911,-0.6642
2026-07-23T16:01:55.681,176.6682,-1.0932,-0.488
2026-07-23T16:01:55.685,176.6682,-1.2498,-0.6054
2026-07-23T16:01:55.697,176.7017,-1.1715,-0.5271
2026-07-23T16:01:55.713,176.7038,-1.3477,-0.5271
2026-07-23T16:01:55.713,176.7098,-1.2498,-0.5859
2026-07-23T16:01:55.719,176.7098,-1.4261,-0.5859
2026-07-23T16:01:55.739,176.7347,-1.3869,-0.5859
2026-07-23T16:01:55.745,176.7347,-1.524,-0.5467
2026-07-23T16:01:55.755,176.7415,-1.5044,-0.5075
2026-07-23T16:01:55.766,176.7717,-1.6219,-0.625
2026-07-23T16:01:55.781,176.7735,-1.4848,-0.488
2026-07-23T16:01:55.785,176.7735,-1.6023,-0.6642
2026-07-23T16:01:55.798,176.7735,-1.4456,-0.5467
2026-07-23T16:01:55.808,176.8049,-1.7002,-0.5859
2026-07-23T16:01:55.814,176.8049,-1.6219,-0.5271
2026-07-23T16:01:55.824,176.8133,-1.7394,-0.5271
2026-07-23T16:01:55.852,176.8367,-1.6806,-0.7425
2026-07-23T16:01:55.852,176.8367,-1.7589,-0.5859
2026-07-23T16:01:55.856,176.8367,-1.6219,-0.4488
2026-07-23T16:01:55.864,176.8367,-1.8177,-0.5859
2026-07-23T16:01:55.871,176.8681,-1.6806,-0.5467
2026-07-23T16:01:55.887,176.8681,-1.7785,-0.5663
2026-07-23T16:01:55.887,176.8838,-1.7002,-0.5075
2026-07-23T16:01:55.906,176.904,-1.8177,-0.6054
2026-07-23T16:01:55.919,176.904,-1.7002,-0.4684
2026-07-23T16:01:55.919,176.904,-1.7785,-0.5467
2026-07-23T16:01:55.935,176.9155,-1.661,-0.488
2026-07-23T16:01:55.948,176.9386,-1.7981,-0.5859
2026-07-23T16:01:55.955,176.9386,-1.7589,-0.488
2026-07-23T16:01:55.966,176.9474,-1.8764,-0.4488
2026-07-23T16:01:55.966,176.968,-1.7589,-0.4292
2026-07-23T16:01:55.982,176.968,-1.7589,-0.4292
2026-07-23T16:01:55.998,176.9803,-1.896,-0.4096
2026-07-23T16:01:55.998,177.0112,-1.8764,-0.5271
2026-07-23T16:01:56.019,177.0112,-1.9939,-0.4488
2026-07-23T16:01:56.019,177.0159,-2.0722,-0.4292
2026-07-23T16:01:56.046,177.0428,-2.0331,-0.4488
2026-07-23T16:01:56.046,177.0428,-2.131,-0.4488
2026-07-23T16:01:56.055,177.0428,-2.0722,-0.4292
2026-07-23T16:01:56.067,177.0428,-2.1701,-0.4488
2026-07-23T16:01:56.078,177.075,-2.0918,-0.39
2026-07-23T16:01:56.091,177.075,-2.2093,-0.39
2026-07-23T16:01:56.094,177.075,-2.1701,-0.3117
2026-07-23T16:01:56.109,177.1065,-2.2289,-0.3509
2026-07-23T16:01:56.119,177.1065,-2.2289,-0.2921
2026-07-23T16:01:56.126,177.1161,-2.2876,-0.3313
2026-07-23T16:01:56.126,177.1161,-2.1897,-0.2921
2026-07-23T16:01:56.157,177.1469,-2.1506,-0.3117
2026-07-23T16:01:56.157,177.1469,-2.0918,-0.2334
2026-07-23T16:01:56.167,177.1549,-2.0135,-0.253
2026-07-23T16:01:56.175,177.1887,-1.896,-0.2138
2026-07-23T16:01:56.189,177.1887,-1.9352,-0.2334
2026-07-23T16:01:56.198,177.1887,-1.9156,-0.1747
2026-07-23T16:01:56.206,177.1887,-1.8373,-0.2138
2026-07-23T16:01:56.221,177.2177,-1.8373,-0.1942
2026-07-23T16:01:56.221,177.2334,-1.8373,-0.1159
2026-07-23T16:01:56.240,177.2349,-1.8373,-0.0963
2026-07-23T16:01:56.240,177.2349,-1.8373,-0.1551
2026-07-23T16:01:56.255,177.2655,-1.8568,-0.1942
2026-07-23T16:01:56.268,177.2721,-1.7785,-0.1942
2026-07-23T16:01:56.268,177.2721,-1.7002,-0.1551
2026-07-23T16:01:56.286,177.2812,-1.7198,-0.1159
2026-07-23T16:01:56.286,177.2812,-1.7002,0.0016
2026-07-23T16:01:56.316,177.3165,-1.6806,0.0211
2026-07-23T16:01:56.316,177.3165,-1.661,0.0603
2026-07-23T16:01:56.332,177.3165,-1.7198,0.0799
2026-07-23T16:01:56.332,177.3165,-1.6806,0.1386
2026-07-23T16:01:56.355,177.3457,-1.6219,0.1778
2026-07-23T16:01:56.355,177.3559,-1.6415,0.2365
2026-07-23T16:01:56.367,177.3604,-1.4848,0.2561
2026-07-23T16:01:56.379,177.3604,-1.5631,0.3344
2026-07-23T16:01:56.386,177.3926,-1.4652,0.2561
2026-07-23T16:01:56.396,177.3931,-1.4848,0.3932
2026-07-23T16:01:56.407,177.3976,-1.3477,0.3149
2026-07-23T16:01:56.411,177.4043,-1.4261,0.354
2026-07-23T16:01:56.428,177.4243,-1.4848,0.2757
2026-07-23T16:01:56.443,177.4243,-1.5044,0.3344
2026-07-23T16:01:56.455,177.4243,-1.4261,0.3149
2026-07-23T16:01:56.455,177.438,-1.4652,0.3932
2026-07-23T16:01:56.468,177.4558,-1.4456,0.354
2026-07-23T16:01:56.475,177.472,-1.4065,0.4519
2026-07-23T16:01:56.489,177.472,-1.3477,0.4911
2026-07-23T16:01:56.491,177.4971,-1.2498,0.4519
2026-07-23T16:01:56.507,177.5036,-1.3282,0.4128
2026-07-23T16:01:56.507,177.5046,-1.3477,0.5694
2026-07-23T16:01:56.523,177.5046,-1.3086,0.4715
2026-07-23T16:01:56.531,177.5365,-1.3086,0.5107
2026-07-23T16:01:56.548,177.5365,-1.2694,0.4519
2026-07-23T16:01:56.555,177.5405,-1.2107,0.4323
2026-07-23T16:01:56.555,177.5683,-1.2498,0.4323
2026-07-23T16:01:56.573,177.5683,-1.2498,0.5694
2026-07-23T16:01:56.587,177.5683,-1.2498,0.5107
2026-07-23T16:01:56.591,177.5683,-1.1911,0.5302
2026-07-23T16:01:56.608,177.6046,-1.1911,0.5302
2026-07-23T16:01:56.619,177.6062,-1.289,0.589
2026-07-23T16:01:56.619,177.6062,-1.1324,0.589
2026-07-23T16:01:56.634,177.6349,-1.2498,0.5694
2026-07-23T16:01:56.649,177.6349,-1.1519,0.5694
2026-07-23T16:01:56.657,177.6475,-1.2303,0.5107
2026-07-23T16:01:56.668,177.6475,-1.1324,0.5107
2026-07-23T16:01:56.686,177.6681,-1.2498,0.5302
2026-07-23T16:01:56.686,177.6681,-1.054,0.5107
2026-07-23T16:01:56.698,177.6785,-1.1715,0.6086
2026-07-23T16:01:56.713,177.7047,-0.9757,0.6673
2026-07-23T16:01:56.719,177.7106,-1.1128,0.7848
2026-07-23T16:01:56.719,177.7106,-0.9757,0.7652
2026-07-23T16:01:56.745,177.7425,-0.9953,0.8435
2026-07-23T16:01:56.745,177.7425,-0.9365,0.9023
2026-07-23T16:01:56.755,177.7425,-0.9757,1.0198
2026-07-23T16:01:56.761,177.7425,-0.8778,0.9806
2026-07-23T16:01:56.782,177.7743,-0.9561,1.1177
2026-07-23T16:01:56.786,177.7743,-0.7603,1.1373
2026-07-23T16:01:56.793,177.7743,-0.917,1.196
2026-07-23T16:01:56.809,177.8062,-0.6233,1.0785
2026-07-23T16:01:56.822,177.8143,-0.7603,1.1373
2026-07-23T16:01:56.825,177.8143,-0.6428,1.1177
2026-07-23T16:01:56.825,177.818,-0.7407,1.1764
2026-07-23T16:01:56.841,177.8382,-0.5645,1.3331
2026-07-23T16:01:56.857,177.8382,-0.7799,1.3526
2026-07-23T16:01:56.869,177.8382,-0.5841,1.3135
2026-07-23T16:01:56.873,177.8701,-0.682,1.3918
2026-07-23T16:01:56.889,177.8701,-0.4862,1.3526
2026-07-23T16:01:56.889,177.8877,-0.6624,1.3918
2026-07-23T16:01:56.905,177.9051,-0.4862,1.3918
2026-07-23T16:01:56.921,177.9051,-0.6624,1.431
2026-07-23T16:01:56.921,177.9051,-0.4079,1.2743
2026-07-23T16:01:56.938,177.9186,-0.5841,1.4505
2026-07-23T16:01:56.956,177.9396,-0.3687,1.3918
2026-07-23T16:01:56.956,177.9396,-0.4079,1.4701
2026-07-23T16:01:56.956,177.95,-0.31,1.4505
2026-07-23T16:01:56.969,177.95,-0.3883,1.568
2026-07-23T16:01:56.990,177.9683,-0.2512,1.6072
2026-07-23T16:01:56.990,177.9816,-0.3883,1.6855
2026-07-23T16:01:57.001,178.0133,-0.1337,1.6072
2026-07-23T16:01:57.017,178.0188,-0.2512,1.6659
2026-07-23T16:01:57.019,178.023,-0.0358,1.6464
2026-07-23T16:01:57.032,178.023,-0.2904,1.6855
2026-07-23T16:01:57.055,178.0449,-0.1142,1.7834
2026-07-23T16:01:57.055,178.0449,-0.2316,1.6659
2026-07-23T16:01:57.064,178.0449,-0.1142,1.6072
2026-07-23T16:01:57.074,178.0607,-0.31,1.6268
2026-07-23T16:01:57.096,178.0933,-0.1729,1.5484
2026-07-23T16:01:57.096,178.0933,-0.3687,1.5876
2026-07-23T16:01:57.096,178.0933,-0.2121,1.6072
2026-07-23T16:01:57.115,178.1097,-0.3687,1.5876
2026-07-23T16:01:57.127,178.1348,-0.2708,1.4897
2026-07-23T16:01:57.143,178.1348,-0.4666,1.4701
2026-07-23T16:01:57.144,178.14,-0.2904,1.4897
2026-07-23T16:01:57.160,178.14,-0.5254,1.4897
2026-07-23T16:01:57.160,178.1727,-0.2904,1.4114
2026-07-23T16:01:57.177,178.1727,-0.5841,1.431
2026-07-23T16:01:57.191,178.1873,-0.3687,1.431
2026-07-23T16:01:57.199,178.1899,-0.5449,1.4114
2026-07-23T16:01:57.208,178.2047,-0.4079,1.3526
2026-07-23T16:01:57.219,178.2047,-0.5449,1.3722
2026-07-23T16:01:57.223,178.2198,-0.3883,1.3135
2026-07-23T16:01:57.238,178.2198,-0.5254,1.3331
2026-07-23T16:01:57.241,178.2507,-0.3883,1.3135
2026-07-23T16:01:57.256,178.2507,-0.5841,1.2939
2026-07-23T16:01:57.271,178.2507,-0.3491,1.2743
2026-07-23T16:01:57.281,178.2666,-0.6037,1.3135
2026-07-23T16:01:57.286,178.2823,-0.4274,1.3135
2026-07-23T16:01:57.301,178.2823,-0.5254,1.3331
2026-07-23T16:01:57.301,178.298,-0.447,1.2939
2026-07-23T16:01:57.317,178.3047,-0.5645,1.3526
2026-07-23T16:01:57.324,178.33,-0.3687,1.3331
2026-07-23T16:01:57.333,178.33,-0.5645,1.3526
2026-07-23T16:01:57.349,178.3351,-0.3883,1.3135
2026-07-23T16:01:57.356,178.3417,-0.5645,1.3331
2026-07-23T16:01:57.371,178.3645,-0.2904,1.3526
2026-07-23T16:01:57.381,178.3685,-0.6037,1.3918
2026-07-23T16:01:57.386,178.3685,-0.3491,1.3331
2026-07-23T16:01:57.397,178.3932,-0.4862,1.4114
2026-07-23T16:01:57.412,178.3983,-0.3687,1.3918
2026-07-23T16:01:57.419,178.4019,-0.5254,1.3918
2026-07-23T16:01:57.419,178.4049,-0.3295,1.3918
2026-07-23T16:01:57.444,178.4247,-0.4666,1.4505
2026-07-23T16:01:57.444,178.4247,-0.2512,1.4114
2026-07-23T16:01:57.456,178.44,-0.4274,1.4701
2026-07-23T16:01:57.460,178.4557,-0.2316,1.431
2026-07-23T16:01:57.475,178.4685,-0.4274,1.5093
2026-07-23T16:01:57.489,178.4717,-0.2121,1.4505
2026-07-23T16:01:57.491,178.4891,-0.447,1.5484
2026-07-23T16:01:57.507,178.4891,-0.1729,1.4505
2026-07-23T16:01:57.519,178.5048,-0.4079,1.568
2026-07-23T16:01:57.540,178.5235,-0.1337,1.4897
2026-07-23T16:01:57.540,178.5235,-0.3491,1.5484
2026-07-23T16:01:57.552,178.536,-0.0554,1.6072
2026-07-23T16:01:57.556,178.536,-0.2512,1.5876
2026-07-23T16:01:57.574,178.5681,0.0229,1.6268
2026-07-23T16:01:57.574,178.5681,-0.0946,1.7051
2026-07-23T16:01:57.587,178.5681,0.0817,1.7443
2026-07-23T16:01:57.587,178.602,0.0425,1.8226
2026-07-23T16:01:57.603,178.6051,0.2187,1.8422
2026-07-23T16:01:57.619,178.6071,0.0621,1.8422
2026-07-23T16:01:57.619,178.6071,0.3166,1.8617
2026-07-23T16:01:57.633,178.6349,0.1991,1.9009
2026-07-23T16:01:57.649,178.6462,0.3949,1.9596
2026-07-23T16:01:57.658,178.6488,0.3558,1.9988
2026-07-23T16:01:57.668,178.6488,0.4733,2.1359
2026-07-23T16:01:57.672,178.6778,0.4341,2.0967
2026-07-23T16:01:57.686,178.6778,0.5712,2.175
2026-07-23T16:01:57.697,178.6903,0.4733,2.1946
2026-07-23T16:01:57.700,178.6939,0.6495,2.2338
2026-07-23T16:01:57.719,178.71,0.5712,2.3513
2026-07-23T16:01:57.729,178.7208,0.8061,2.3904
2026-07-23T16:01:57.729,178.7257,0.6495,2.5862
2026-07-23T16:01:57.752,178.7415,0.8453,2.645
2026-07-23T16:01:57.761,178.7575,0.6495,2.6058
2026-07-23T16:01:57.761,178.7575,0.8257,2.7429
2026-07-23T16:01:57.777,178.7575,0.6299,2.7037
2026-07-23T16:01:57.792,178.79,0.767,2.7037
2026-07-23T16:01:57.792,178.79,0.6299,2.7233
2026-07-23T16:01:57.792,178.79,0.7082,2.7233
2026-07-23T16:01:57.819,178.8213,0.5712,2.8212
2026-07-23T16:01:57.825,178.8213,0.7474,2.7625
2026-07-23T16:01:57.841,178.8213,0.5516,2.782
2026-07-23T16:01:57.852,178.8351,0.7082,2.7233
2026-07-23T16:01:57.856,178.8571,0.5124,2.6841
2026-07-23T16:01:57.872,178.8571,0.6103,2.6645
2026-07-23T16:01:57.872,178.8677,0.4928,2.6058
2026-07-23T16:01:57.888,178.8842,0.5908,2.5862
2026-07-23T16:01:57.888,178.8842,0.3754,2.6254
2026-07-23T16:01:57.908,178.8999,0.532,2.6645
2026-07-23T16:01:57.918,178.9019,0.3362,2.5862
2026-07-23T16:01:57.920,178.9217,0.5124,2.6058
2026-07-23T16:01:57.935,178.9317,0.3166,2.5275
2026-07-23T16:01:57.935,178.935,0.532,2.5079
2026-07-23T16:01:57.956,178.9635,0.2187,2.4883
2026-07-23T16:01:57.972,178.9635,0.3949,2.4687
2026-07-23T16:01:57.982,178.9686,0.16,2.3708
2026-07-23T16:01:57.991,178.9686,0.2775,2.4492
2026-07-23T16:01:57.999,178.995,0.16,2.41
2026-07-23T16:01:57.999,179.0053,0.3166,2.3904
2026-07-23T16:01:58.019,179.0053,0.1208,2.3513
2026-07-23T16:01:58.019,179.0108,0.2187,2.3513
2026-07-23T16:01:58.033,179.0348,0.0033,2.2925
2026-07-23T16:01:58.046,179.0426,0.1796,2.3121
2026-07-23T16:01:58.056,179.0426,-0.0163,2.2338
2026-07-23T16:01:58.078,179.0739,0.1796,2.2338
2026-07-23T16:01:58.086,179.0825,-0.0163,2.2925
2026-07-23T16:01:58.086,179.0825,0.16,2.1359
2026-07-23T16:01:58.093,179.0825,-0.0946,2.1946
2026-07-23T16:01:58.109,179.1078,0.1012,2.2534
2026-07-23T16:01:58.125,179.1078,-0.0946,2.1555
2026-07-23T16:01:58.125,179.1214,0.0817,2.2142
2026-07-23T16:01:58.133,179.1244,-0.1729,2.1359
2026-07-23T16:01:58.152,179.1494,-0.075,2.2534
2026-07-23T16:01:58.159,179.154,-0.2121,2.2338
2026-07-23T16:01:58.159,179.154,-0.075,2.175
2026-07-23T16:01:58.175,179.154,-0.31,2.2142
2026-07-23T16:01:58.188,179.1908,-0.2512,2.3121
2026-07-23T16:01:58.200,179.1908,-0.447,2.2142
2026-07-23T16:01:58.205,179.1908,-0.31,2.2534
2026-07-23T16:01:58.205,179.223,-0.5841,2.1946
2026-07-23T16:01:58.220,179.2291,-0.3883,2.3317
2026-07-23T16:01:58.242,179.2323,-0.6428,2.2142
2026-07-23T16:01:58.242,179.2342,-0.5058,2.2142
2026-07-23T16:01:58.256,179.2487,-0.7016,2.2338
2026-07-23T16:01:58.268,179.2646,-0.4862,2.2729
2026-07-23T16:01:58.283,179.2682,-0.6428,2.2534
2026-07-23T16:01:58.293,179.2961,-0.4274,2.3121
2026-07-23T16:01:58.299,179.2961,-0.6428,2.2338
2026-07-23T16:01:58.299,179.2961,-0.5254,2.3317
2026-07-23T16:01:58.319,179.3053,-0.6624,2.2925
2026-07-23T16:01:58.331,179.328,-0.4862,2.3121
2026-07-23T16:01:58.331,179.328,-0.7016,2.2534
2026-07-23T16:01:58.347,179.3351,-0.5645,2.3317
2026-07-23T16:01:58.356,179.3441,-0.7212,2.2925
2026-07-23T16:01:58.379,179.3684,-0.5058,2.3513
2026-07-23T16:01:58.379,179.3684,-0.7016,2.3121
2026-07-23T16:01:58.386,179.376,-0.4862,2.3121
2026-07-23T16:01:58.395,179.4018,-0.682,2.3121
2026-07-23T16:01:58.411,179.4078,-0.5645,2.3513
2026-07-23T16:01:58.419,179.4078,-0.7407,2.2925
2026-07-23T16:01:58.427,179.4078,-0.5254,2.3317
2026-07-23T16:01:58.427,179.4414,-0.7212,2.3317
2026-07-23T16:01:58.450,179.4414,-0.5645,2.3904
2026-07-23T16:01:58.459,179.4414,-0.6233,2.3121
2026-07-23T16:01:58.459,179.4551,-0.4862,2.3708
2026-07-23T16:01:58.486,179.483,-0.6037,2.3708
2026-07-23T16:01:58.486,179.483,-0.4666,2.3708
2026-07-23T16:01:58.492,179.4871,-0.6624,2.41
2026-07-23T16:01:58.506,179.4871,-0.4274,2.41
2026-07-23T16:01:58.522,179.5245,-0.6233,2.3317
2026-07-23T16:01:58.522,179.5245,-0.3491,2.3904
2026-07-23T16:01:58.538,179.5245,-0.5449,2.2925
2026-07-23T16:01:58.538,179.5352,-0.3883,2.3904
2026-07-23T16:01:58.556,179.5509,-0.5058,2.3708
2026-07-23T16:01:58.556,179.5666,-0.31,2.4492
2026-07-23T16:01:58.575,179.5682,-0.4666,2.3513
2026-07-23T16:01:58.586,179.5984,-0.3491,2.3708
2026-07-23T16:01:58.586,179.6019,-0.4666,2.3121
2026-07-23T16:01:58.602,179.608,-0.2708,2.3904
2026-07-23T16:01:58.619,179.608,-0.2512,2.3317
2026-07-23T16:01:58.633,179.6351,-0.2512,2.3708
2026-07-23T16:01:58.634,179.6351,-0.3687,2.4492
2026-07-23T16:01:58.649,179.6463,-0.2904,2.4883
2026-07-23T16:01:58.659,179.6499,-0.3687,2.3904
2026-07-23T16:01:58.665,179.6499,-0.1533,2.4883
2026-07-23T16:01:58.686,179.678,-0.3687,2.4687
2026-07-23T16:01:58.686,179.678,-0.1729,2.5079
2026-07-23T16:01:58.701,179.6914,-0.2708,2.5471
2026-07-23T16:01:58.701,179.694,-0.1533,2.6254
2026-07-23T16:01:58.719,179.7264,-0.2316,2.6254
2026-07-23T16:01:58.729,179.735,-0.1533,2.8212
2026-07-23T16:01:58.729,179.735,-0.2512,2.7625
2026-07-23T16:01:58.745,179.7415,-0.1337,2.9583
2026-07-23T16:01:58.760,179.7572,-0.2708,2.9387
2026-07-23T16:01:58.762,179.7683,-0.1142,3.1149
2026-07-23T16:01:58.777,179.7733,-0.1925,3.0953
2026-07-23T16:01:58.786,179.7748,-0.075,3.2324
2026-07-23T16:01:58.792,179.806,-0.1533,3.252
2026-07-23T16:01:58.808,179.806,0.0033,3.3107
2026-07-23T16:01:58.819,179.8167,-0.0946,3.2911
2026-07-23T16:01:58.826,179.8167,0.0033,3.389
2026-07-23T16:01:58.840,179.8369,-0.1142,3.3695
2026-07-23T16:01:58.857,179.8529,0.1012,3.4086
2026-07-23T16:01:58.857,179.8586,0.0621,3.4086
2026-07-23T16:01:58.867,179.8586,0.2187,3.389
2026-07-23T16:01:58.876,179.8846,0.1208,3.4282
2026-07-23T16:01:58.888,179.8846,0.2383,3.4869
2026-07-23T16:01:58.888,179.8846,0.1796,3.389
2026-07-23T16:01:58.909,179.906,0.2383,3.4478
2026-07-23T16:01:58.920,179.906,0.1991,3.4086
2026-07-23T16:01:58.925,179.9352,0.3362,3.4282
2026-07-23T16:01:58.935,179.9418,0.2383,3.389
2026-07-23T16:01:58.957,179.9479,0.3949,3.389
2026-07-23T16:01:58.957,179.9479,0.2775,3.3499
2026-07-23T16:01:58.967,179.9834,0.3558,3.4086
2026-07-23T16:01:58.983,179.9834,0.2383,3.3499
2026-07-23T16:01:58.993,179.9834,0.3949,3.4282
2026-07-23T16:01:58.999,179.9834,0.297,3.3303
2026-07-23T16:01:58.999,180.0015,0.4145,3.4086
2026-07-23T16:01:59.019,180.0272,0.3949,3.389
2026-07-23T16:01:59.019,180.0272,0.4537,3.5065
2026-07-23T16:01:59.034,180.0353,0.3754,3.389
2026-07-23T16:01:59.052,180.0353,0.4341,3.5065
2026-07-23T16:01:59.057,180.0687,0.3362,3.4478
2026-07-23T16:01:59.062,180.0687,0.3949,3.4086
2026-07-23T16:01:59.078,180.0687,0.3558,3.4282
2026-07-23T16:01:59.086,180.0747,0.3949,3.4086
2026-07-23T16:01:59.094,180.1061,0.3754,3.3695
2026-07-23T16:01:59.110,180.1086,0.3754,3.389
2026-07-23T16:01:59.118,180.1086,0.2775,3.3107
2026-07-23T16:01:59.126,180.1086,0.3362,3.4282
2026-07-23T16:01:59.141,180.1379,0.1991,3.4282
2026-07-23T16:01:59.153,180.1379,0.2383,3.3695
2026-07-23T16:01:59.159,180.1505,0.1991,3.3499
2026-07-23T16:01:59.159,180.155,0.2775,3.3695
2026-07-23T16:01:59.178,180.1711,0.1208,3.3695
2026-07-23T16:01:59.189,180.1871,0.2579,3.3695
2026-07-23T16:01:59.189,180.1922,0.1404,3.4086
2026-07-23T16:01:59.206,180.1922,0.2187,3.2911
2026-07-23T16:01:59.222,180.2271,0.1208,3.2128
2026-07-23T16:01:59.222,180.2271,0.2187,3.2716
2026-07-23T16:01:59.243,180.2271,0.1991,3.1932
2026-07-23T16:01:59.243,180.2353,0.1796,3.2128
2026-07-23T16:01:59.268,180.2655,0.0621,3.1932
2026-07-23T16:01:59.268,180.2686,0.1404,3.2716
2026-07-23T16:01:59.278,180.2686,0.1012,3.1541
2026-07-23T16:01:59.286,180.302,0.1012,3.1932
2026-07-23T16:01:59.301,180.3065,0.1012,3.1149
2026-07-23T16:01:59.301,180.3065,0.0425,3.2128
2026-07-23T16:01:59.319,180.3126,0.0229,3.1736
2026-07-23T16:01:59.326,180.3358,0.1012,3.2128
2026-07-23T16:01:59.348,180.3446,-0.0163,3.1345
2026-07-23T16:01:59.348,180.3446,0.0817,3.1541
2026-07-23T16:01:59.363,180.3446,0.0229,3.1932
2026-07-23T16:01:59.368,180.3446,0.0621,3.1541
2026-07-23T16:01:59.387,180.3748,0.0425,3.1541
2026-07-23T16:01:59.387,180.3748,0.1012,3.2128
2026-07-23T16:01:59.395,180.3904,0.0033,3.1149
2026-07-23T16:01:59.410,180.4234,0.0229,3.2128
2026-07-23T16:01:59.426,180.428,0.0033,3.1541
2026-07-23T16:01:59.426,180.435,-0.0358,3.1932
2026-07-23T16:01:59.426,180.4382,0.0229,3.1541
2026-07-23T16:01:59.449,180.4423,-0.0554,3.1736
2026-07-23T16:01:59.458,180.4702,-0.0358,3.1932
2026-07-23T16:01:59.458,180.4702,-0.0358,3.2324
2026-07-23T16:01:59.486,180.4702,-0.0163,3.1736
2026-07-23T16:01:59.493,180.4861,-0.0554,3.2716
2026-07-23T16:01:59.493,180.5067,0.0033,3.252
2026-07-23T16:01:59.505,180.5175,0.0621,3.2716
2026-07-23T16:01:59.521,180.5175,0.0425,3.2716
2026-07-23T16:01:59.521,180.5175,0.0425,3.2716
2026-07-23T16:01:59.537,180.5284,0.0033,3.2716
2026-07-23T16:01:59.537,180.5499,-0.0358,3.2716
2026-07-23T16:01:59.557,180.5499,0.0229,3.2324
2026-07-23T16:01:59.568,180.5652,0.0425,3.2911
2026-07-23T16:01:59.579,180.5683,0.0817,3.2128
2026-07-23T16:01:59.586,180.5979,0.0229,3.3107
2026-07-23T16:01:59.601,180.6019,0.0425,3.2324
2026-07-23T16:01:59.601,180.6067,0.0621,3.3107
2026-07-23T16:01:59.619,180.6092,0.1208,3.2716
2026-07-23T16:01:59.632,180.6352,0.0229,3.2716
2026-07-23T16:01:59.632,180.6352,0.0425,3.2324
2026-07-23T16:01:59.649,180.6447,0.0817,3.2716
2026-07-23T16:01:59.660,180.6508,0.0425,3.2716
2026-07-23T16:01:59.665,180.6769,0.0621,3.252
2026-07-23T16:01:59.681,180.6769,0.0621,3.2911
2026-07-23T16:01:59.686,180.6769,0.0229,3.2324
2026-07-23T16:01:59.702,180.6769,0.1012,3.1541
2026-07-23T16:01:59.712,180.7101,-0.0163,3.1932
2026-07-23T16:01:59.719,180.7101,0.0229,3.2128
2026-07-23T16:01:59.728,180.7245,0.0229,3.2716
2026-07-23T16:01:59.728,180.7291,0.0425,3.2324
2026-07-23T16:01:59.753,180.7562,-0.0554,3.1932
2026-07-23T16:01:59.761,180.7562,0.0033,3.1932
2026-07-23T16:01:59.761,180.7562,-0.0163,3.2324
2026-07-23T16:01:59.780,180.772,0.0621,3.2128
2026-07-23T16:01:59.786,180.772,-0.0358,3.3303
2026-07-23T16:01:59.807,180.8018,0.0425,3.2716
2026-07-23T16:01:59.807,180.8069,0.0425,3.3303
2026-07-23T16:01:59.819,180.8069,0.0425,3.2911
2026-07-23T16:01:59.827,180.8349,0.0229,3.3107
2026-07-23T16:01:59.839,180.8349,0.0621,3.252
2026-07-23T16:01:59.853,180.8349,0.0033,3.3499
2026-07-23T16:01:59.858,180.8508,0.0817,3.252
2026-07-23T16:01:59.870,180.8687,0.0033,3.4282
2026-07-23T16:01:59.886,180.8825,0.0425,3.3303
2026-07-23T16:01:59.886,180.8825,0.0425,3.389
2026-07-23T16:01:59.902,180.8825,0.0621,3.4478
2026-07-23T16:01:59.910,180.9177,0.0817,3.4086
2026-07-23T16:01:59.920,180.9219,0.1012,3.3695
2026-07-23T16:01:59.920,180.9219,0.0621,3.4869
2026-07-23T16:01:59.933,180.9296,0.0425,3.4282
2026-07-23T16:01:59.952,180.9456,0.0817,3.5848
2026-07-23T16:01:59.958,180.9614,0.1208,3.5457
2026-07-23T16:01:59.973,180.9683,0.1012,3.5848
2026-07-23T16:01:59.980,180.9683,0.1991,3.624
2026-07-23T16:01:59.994,180.9934,0.1404,3.6632
2026-07-23T16:01:59.996,181.007,0.1991,3.6827
2026-07-23T16:01:59.996,181.0096,0.1991,3.7415
2026-07-23T16:02:00.019,181.0096,0.2775,3.7415
2026-07-23T16:02:00.028,181.0414,0.2187,3.8002
2026-07-23T16:02:00.044,181.0414,0.2775,3.7807
2026-07-23T16:02:00.044,181.0414,0.3362,3.859
2026-07-23T16:02:00.060,181.0571,0.4145,3.859
2026-07-23T16:02:00.060,181.0571,0.3166,3.996
2026-07-23T16:02:00.092,181.0891,0.4145,3.8981
2026-07-23T16:02:00.092,181.0891,0.4537,3.996
2026-07-23T16:02:00.092,181.0891,0.4733,4.0352
2026-07-23T16:02:00.108,181.0891,0.4537,4.0744
2026-07-23T16:02:00.124,181.1204,0.5908,4.1723
2026-07-23T16:02:00.124,181.1306,0.5712,4.2506
2026-07-23T16:02:00.140,181.1306,0.6887,4.2898
2026-07-23T16:02:00.140,181.1365,0.7082,4.3289
2026-07-23T16:02:00.171,181.1749,0.767,4.4268
2026-07-23T16:02:00.171,181.1749,0.767,4.5443
2026-07-23T16:02:00.181,181.179,0.9236,4.4856
2026-07-23T16:02:00.187,181.186,0.9628,4.5051
2026-07-23T16:02:00.187,181.2143,0.9628,4.5247
2026-07-23T16:02:00.202,181.2193,0.9236,4.603
2026-07-23T16:02:00.224,181.2229,1.0019,4.5835
2026-07-23T16:02:00.230,181.2303,0.8649,4.6422
2026-07-23T16:02:00.240,181.2561,1.0019,4.5639
2026-07-23T16:02:00.257,181.2561,0.904,4.5639
2026-07-23T16:02:00.260,181.2561,1.0019,4.4856
2026-07-23T16:02:00.269,181.2684,0.8061,4.466
2026-07-23T16:02:00.282,181.2684,0.9824,4.4072
2026-07-23T16:02:00.293,181.2876,0.8453,4.466
2026-07-23T16:02:00.293,181.2876,0.9236,4.3093
2026-07-23T16:02:00.307,181.3034,0.8257,4.3093
2026-07-23T16:02:00.319,181.3075,0.904,4.2506
2026-07-23T16:02:00.328,181.3349,0.7278,4.231
2026-07-23T16:02:00.338,181.3349,0.8257,4.1918
2026-07-23T16:02:00.352,181.3349,0.7278,4.3485
2026-07-23T16:02:00.358,181.3506,0.8061,4.3485
2026-07-23T16:02:00.370,181.3687,0.7082,4.231
2026-07-23T16:02:00.386,181.3825,0.8257,4.1723
2026-07-23T16:02:00.386,181.3933,0.7082,4.1918
2026-07-23T16:02:00.401,181.3933,0.8453,4.1527
2026-07-23T16:02:00.401,181.3983,0.7866,4.1331
2026-07-23T16:02:00.419,181.4143,0.6887,4.1331
2026-07-23T16:02:00.433,181.4316,0.6691,4.1918
2026-07-23T16:02:00.444,181.4351,0.7866,4.1135
2026-07-23T16:02:00.449,181.4351,0.6495,4.1527
2026-07-23T16:02:00.458,181.4615,0.7474,4.0939
2026-07-23T16:02:00.465,181.4615,0.6103,4.1918
2026-07-23T16:02:00.486,181.4685,0.767,4.1135
2026-07-23T16:02:00.486,181.4931,0.5712,4.1527
2026-07-23T16:02:00.498,181.4931,0.7278,4.1331
2026-07-23T16:02:00.512,181.5019,0.5908,4.2506
2026-07-23T16:02:00.519,181.5019,0.7278,4.1527
2026-07-23T16:02:00.528,181.5269,0.6103,4.1527
2026-07-23T16:02:00.536,181.532,0.7082,4.1331
2026-07-23T16:02:00.544,181.535,0.5516,4.1918
2026-07-23T16:02:00.560,181.5566,0.6887,4.1135
2026-07-23T16:02:00.576,181.5734,0.5124,4.2114
2026-07-23T16:02:00.583,181.5734,0.6103,4.1723
2026-07-23T16:02:00.586,181.5734,0.4928,4.2702
2026-07-23T16:02:00.591,181.6043,0.6299,4.1723
2026-07-23T16:02:00.607,181.6101,0.4341,4.1527
2026-07-23T16:02:00.619,181.6101,0.5908,4.1918
2026-07-23T16:02:00.624,181.6101,0.4537,4.1918
2026-07-23T16:02:00.640,181.637,0.532,4.2114
2026-07-23T16:02:00.653,181.637,0.3166,4.1527
2026-07-23T16:02:00.661,181.637,0.4537,4.1331
2026-07-23T16:02:00.661,181.6533,0.3166,4.1331
2026-07-23T16:02:00.671,181.6685,0.4733,4.1918
2026-07-23T16:02:00.688,181.686,0.2775,4.1918
2026-07-23T16:02:00.688,181.686,0.4733,4.1135
2026-07-23T16:02:00.704,181.715,0.3362,4.1918
2026-07-23T16:02:00.719,181.715,0.4537,4.0744
2026-07-23T16:02:00.736,181.715,0.297,4.0352
2026-07-23T16:02:00.742,181.715,0.1991,4.1135
2026-07-23T16:02:00.753,181.7466,0.3166,4.1723
2026-07-23T16:02:00.758,181.7466,0.3754,4.1135
2026-07-23T16:02:00.766,181.7466,0.2187,4.2114
2026-07-23T16:02:00.766,181.7624,0.4341,4.1135
2026-07-23T16:02:00.786,181.7781,0.2579,4.1723
2026-07-23T16:02:00.797,181.7781,0.4537,4.1331
2026-07-23T16:02:00.797,181.7941,0.3166,4.1723
2026-07-23T16:02:00.829,181.8188,0.5908,4.466
2026-07-23T16:02:00.829,181.8188,0.4341,4.1723
2026-07-23T16:02:00.829,181.8261,0.6299,4.1918
2026-07-23T16:02:00.845,181.8419,0.6103,4.2506
2026-07-23T16:02:00.861,181.8419,0.767,4.2506
2026-07-23T16:02:00.870,181.858,0.5908,4.3093
2026-07-23T16:02:00.877,181.8606,0.7474,4.2506
2026-07-23T16:02:00.886,181.874,0.5908,4.3681
2026-07-23T16:02:00.893,181.8901,0.7866,4.3289
2026-07-23T16:02:00.911,181.8901,0.5712,4.3877
2026-07-23T16:02:00.925,181.9219,0.6887,4.3877
2026-07-23T16:02:00.925,181.9219,0.5908,4.603
2026-07-23T16:02:00.941,181.9219,0.7278,4.4464
2026-07-23T16:02:00.941,181.9351,0.5712,4.3681
2026-07-23T16:02:00.958,181.9538,0.8061,4.4072
2026-07-23T16:02:00.958,181.9538,0.4733,4.466
2026-07-23T16:02:00.973,181.9538,0.7278,4.3681
2026-07-23T16:02:00.995,181.9857,0.4537,4.3877
2026-07-23T16:02:01.005,181.9857,0.532,4.3289
2026-07-23T16:02:01.005,181.9857,0.3754,4.3681
2026-07-23T16:02:01.005,181.9857,0.5124,4.3289
2026-07-23T16:02:01.021,182.0176,0.2383,4.3093
2026-07-23T16:02:01.037,182.0176,0.3949,4.2898
2026-07-23T16:02:01.037,182.0495,0.1991,4.3681
2026-07-23T16:02:01.058,182.0495,0.3166,4.3681
2026-07-23T16:02:01.068,182.0495,0.1404,4.4268
2026-07-23T16:02:01.078,182.0495,0.3166,4.3877
2026-07-23T16:02:01.086,182.0812,0.1796,4.3681
2026-07-23T16:02:01.100,182.0812,0.3754,4.3681
2026-07-23T16:02:01.100,182.0901,0.1991,4.5051
2026-07-23T16:02:01.120,182.1127,0.297,4.3877
2026-07-23T16:02:01.132,182.1127,0.1208,4.4464
2026-07-23T16:02:01.141,182.1127,0.3362,4.4072
2026-07-23T16:02:01.148,182.1442,0.1404,4.4856
2026-07-23T16:02:01.162,182.1442,0.3558,4.4268
2026-07-23T16:02:01.164,182.1442,0.2187,4.4464
2026-07-23T16:02:01.186,182.1769,0.3754,4.5051
2026-07-23T16:02:01.195,182.1769,0.1991,4.4464
2026-07-23T16:02:01.195,182.1769,0.4145,4.4268
2026-07-23T16:02:01.211,182.2088,0.1404,4.4464
2026-07-23T16:02:01.219,182.2088,0.3558,4.466
2026-07-23T16:02:01.228,182.2088,0.1796,4.4856
2026-07-23T16:02:01.228,182.2088,0.3949,4.5051
2026-07-23T16:02:01.258,182.2549,0.297,4.5051
2026-07-23T16:02:01.260,182.2549,0.4341,4.6422
2026-07-23T16:02:01.260,182.2549,0.16,4.5639
2026-07-23T16:02:01.284,182.2873,0.4537,4.5247
2026-07-23T16:02:01.295,182.2873,0.2383,4.6226
2026-07-23T16:02:01.306,182.2873,0.4145,4.5835
2026-07-23T16:02:01.306,182.2873,0.2579,4.8772
2026-07-23T16:02:01.321,182.3192,0.3754,4.6226
2026-07-23T16:02:01.328,182.3192,0.2579,4.7009
2026-07-23T16:02:01.338,182.3192,0.4733,4.7597
2026-07-23T16:02:01.338,182.3354,0.2775,4.8184
2026-07-23T16:02:01.370,182.361,0.4145,4.8968
2026-07-23T16:02:01.370,182.361,0.2383,4.9555
2026-07-23T16:02:01.370,182.3666,0.4145,5.0926
2026-07-23T16:02:01.386,182.3825,0.2187,5.1121
2026-07-23T16:02:01.401,182.3825,0.4145,5.073
2026-07-23T16:02:01.412,182.3982,0.3166,5.1905
2026-07-23T16:02:01.419,182.4027,0.4537,5.1905
2026-07-23T16:02:01.433,182.4297,0.3558,5.2296
2026-07-23T16:02:01.433,182.4352,0.532,5.2884
2026-07-23T16:02:01.453,182.4352,0.4341,5.3471
2026-07-23T16:02:01.458,182.4615,0.5516,5.3471
2026-07-23T16:02:01.479,182.4685,0.3754,5.3471
2026-07-23T16:02:01.480,182.4685,0.5516,5.308
2026-07-23T16:02:01.486,182.4685,0.4341,5.3275
2026-07-23T16:02:01.496,182.502,0.532,5.308
2026-07-23T16:02:01.512,182.502,0.3754,5.3471
2026-07-23T16:02:01.519,182.5087,0.4733,5.308
2026-07-23T16:02:01.528,182.5278,0.3558,5.4646
2026-07-23T16:02:01.545,182.5357,0.4928,5.2688
2026-07-23T16:02:01.553,182.5402,0.4145,5.3275
2026-07-23T16:02:01.560,182.5402,0.5516,5.2688
2026-07-23T16:02:01.579,182.5695,0.3754,5.308
2026-07-23T16:02:01.579,182.572,0.5124,5.2688
2026-07-23T16:02:01.591,182.572,0.3362,5.21
2026-07-23T16:02:01.607,182.6038,0.4928,5.2884
2026-07-23T16:02:01.607,182.6048,0.3558,5.3471
2026-07-23T16:02:01.620,182.6078,0.532,5.1709
2026-07-23T16:02:01.623,182.6114,0.4341,5.2492
2026-07-23T16:02:01.639,182.6352,0.5516,5.21
2026-07-23T16:02:01.639,182.6363,0.3949,5.2688
2026-07-23T16:02:01.662,182.6363,0.5712,5.2688
2026-07-23T16:02:01.671,182.6668,0.5516,5.2688
2026-07-23T16:02:01.687,182.6684,0.5712,5.1709
2026-07-23T16:02:01.687,182.6684,0.3949,5.2492
2026-07-23T16:02:01.704,182.7017,0.5712,5.1317
2026-07-23T16:02:01.704,182.7017,0.5124,5.2296
2026-07-23T16:02:01.719,182.7078,0.5712,5.1905
2026-07-23T16:02:01.736,182.7307,0.532,5.308
2026-07-23T16:02:01.745,182.7368,0.5908,5.1709
2026-07-23T16:02:01.752,182.7368,0.4733,5.2688
2026-07-23T16:02:01.759,182.7368,0.6495,5.2492
2026-07-23T16:02:01.765,182.7684,0.5124,5.3275
2026-07-23T16:02:01.765,182.7684,0.6887,5.2296
2026-07-23T16:02:01.788,182.7782,0.5516,5.308
2026-07-23T16:02:01.797,182.8096,0.6103,5.2884
2026-07-23T16:02:01.813,182.8096,0.5712,5.1905
2026-07-23T16:02:01.829,182.8096,0.7082,5.2296
2026-07-23T16:02:01.829,182.8096,0.5712,5.2688
2026-07-23T16:02:01.829,182.8415,0.7474,5.2492
2026-07-23T16:02:01.853,182.8415,0.5712,5.2492
2026-07-23T16:02:01.860,182.8415,0.7278,5.2884
2026-07-23T16:02:01.871,182.8415,0.5516,5.2492
2026-07-23T16:02:01.892,182.873,0.7278,5.2492
2026-07-23T16:02:01.892,182.873,0.6691,5.3471
2026-07-23T16:02:01.892,182.873,0.767,5.2884
2026-07-23T16:02:01.908,182.9078,0.767,5.4059
2026-07-23T16:02:01.924,182.9208,0.8061,5.2884
2026-07-23T16:02:01.924,182.9208,0.6691,5.3863
2026-07-23T16:02:01.940,182.9208,0.8649,5.4059
2026-07-23T16:02:01.954,182.9527,0.7866,5.4254
2026-07-23T16:02:01.959,182.9527,0.8845,5.4059
2026-07-23T16:02:01.972,182.9527,0.7866,5.3667
2026-07-23T16:02:01.972,182.9684,0.9628,5.3863
2026-07-23T16:02:01.988,182.9999,0.767,5.4646
2026-07-23T16:02:02.003,183.0019,0.9236,5.3863
2026-07-23T16:02:02.003,183.008,0.904,5.5233
2026-07-23T16:02:02.019,183.008,0.9824,5.4842
2026-07-23T16:02:02.035,183.0375,0.904,5.5038
2026-07-23T16:02:02.037,183.0476,1.0607,5.4842
2026-07-23T16:02:02.051,183.0476,0.9824,5.5038
2026-07-23T16:02:02.059,183.0476,1.0999,5.4842
2026-07-23T16:02:02.088,183.0794,1.0411,5.5038
2026-07-23T16:02:02.088,183.0794,1.0803,5.4254
2026-07-23T16:02:02.088,183.0794,1.0607,5.5233
2026-07-23T16:02:02.098,183.0794,1.0803,5.3667
2026-07-23T16:02:02.114,183.1117,1.0803,5.3471
2026-07-23T16:02:02.130,183.1117,1.1586,5.3667
2026-07-23T16:02:02.130,183.1117,1.0999,5.3863
2026-07-23T16:02:02.130,183.1269,1.1978,5.3275
2026-07-23T16:02:02.153,183.1535,1.139,5.3863
2026-07-23T16:02:02.162,183.1535,1.3152,5.3667
2026-07-23T16:02:02.162,183.1584,1.139,5.5233
2026-07-23T16:02:02.178,183.1584,1.2957,5.308
2026-07-23T16:02:02.189,183.1918,1.1978,5.3667
2026-07-23T16:02:02.193,183.1954,1.3348,5.3275
2026-07-23T16:02:02.209,183.2017,1.2173,5.3863
2026-07-23T16:02:02.225,183.2224,1.374,5.4254
2026-07-23T16:02:02.225,183.2224,1.2761,5.4059
2026-07-23T16:02:02.246,183.2224,1.374,5.3863
2026-07-23T16:02:02.252,183.2385,1.2957,5.4254
2026-07-23T16:02:02.259,183.2684,1.3348,5.445
2026-07-23T16:02:02.273,183.2712,1.3152,5.5038
2026-07-23T16:02:02.273,183.2712,1.4719,5.4842
2026-07-23T16:02:02.290,183.2712,1.3348,5.5821
2026-07-23T16:02:02.290,183.3021,1.511,5.5233
2026-07-23T16:02:02.307,183.3021,1.4131,5.5821
2026-07-23T16:02:02.322,183.3083,1.5502,5.5625
2026-07-23T16:02:02.337,183.3337,1.511,5.6017
2026-07-23T16:02:02.337,183.3353,1.4915,5.6996
2026-07-23T16:02:02.337,183.3393,1.511,5.7387
2026-07-23T16:02:02.359,183.3497,1.609,5.68
2026-07-23T16:02:02.371,183.3685,1.5894,5.7975
2026-07-23T16:02:02.386,183.3685,1.6481,5.8171
2026-07-23T16:02:02.390,183.3815,1.6481,5.8562
2026-07-23T16:02:02.401,183.4085,1.7852,5.8758
2026-07-23T16:02:02.419,183.4133,1.6873,5.915
2026-07-23T16:02:02.419,183.4133,1.7656,5.915
2026-07-23T16:02:02.432,183.4133,1.6285,5.9345
2026-07-23T16:02:02.455,183.4453,1.7264,5.8366
2026-07-23T16:02:02.455,183.4453,1.6481,5.9345
2026-07-23T16:02:02.464,183.4453,1.7069,5.8954
2026-07-23T16:02:02.464,183.4453,1.609,5.9345
2026-07-23T16:02:02.480,183.4772,1.746,5.8758
2026-07-23T16:02:02.490,183.4772,1.609,5.8562
2026-07-23T16:02:02.496,183.4871,1.6873,5.8954
2026-07-23T16:02:02.519,183.5101,1.609,5.8758
2026-07-23T16:02:02.519,183.5101,1.6873,5.7583
2026-07-23T16:02:02.528,183.5101,1.6285,5.8562
2026-07-23T16:02:02.538,183.5399,1.7264,5.7779
2026-07-23T16:02:02.544,183.5399,1.7264,5.8366
2026-07-23T16:02:02.561,183.5399,1.6873,5.8171
2026-07-23T16:02:02.561,183.5557,1.6873,5.8171
2026-07-23T16:02:02.591,183.5715,1.6677,5.7583
2026-07-23T16:02:02.591,183.5715,1.6481,5.8366
2026-07-23T16:02:02.591,183.5715,1.7069,5.7191
2026-07-23T16:02:02.607,183.6124,1.7069,5.7779
2026-07-23T16:02:02.622,183.6124,1.6677,5.68
2026-07-23T16:02:02.622,183.6195,1.6481,5.7387
2026-07-23T16:02:02.638,183.6195,1.7656,5.7779
2026-07-23T16:02:02.660,183.6404,1.7264,5.7975
2026-07-23T16:02:02.663,183.6511,1.7264,5.6408
2026-07-23T16:02:02.670,183.6542,1.7264,5.7583
2026-07-23T16:02:02.670,183.6686,1.7069,5.7387
2026-07-23T16:02:02.691,183.6843,1.7264,5.7387
2026-07-23T16:02:02.705,183.6843,1.6873,5.7387
2026-07-23T16:02:02.705,183.6843,1.6873,5.7975
2026-07-23T16:02:02.719,183.715,1.7069,5.7191
2026-07-23T16:02:02.735,183.7185,1.6677,5.7387
2026-07-23T16:02:02.747,183.7406,1.7852,5.68
2026-07-23T16:02:02.753,183.7469,1.6677,5.7191
2026-07-23T16:02:02.766,183.7469,1.6677,5.68
2026-07-23T16:02:02.769,183.7469,1.6873,5.68
2026-07-23T16:02:02.769,183.7685,1.6481,5.6408
2026-07-23T16:02:02.791,183.7793,1.6285,5.6212
2026-07-23T16:02:02.798,183.7793,1.609,5.6017
2026-07-23T16:02:02.813,183.8102,1.5894,5.6017
2026-07-23T16:02:02.819,183.8175,1.6873,5.5038
2026-07-23T16:02:02.830,183.8211,1.5502,5.5625
2026-07-23T16:02:02.830,183.8269,1.5698,5.6408
2026-07-23T16:02:02.861,183.842,1.5698,5.5038
2026-07-23T16:02:02.861,183.858,1.5698,5.5038
2026-07-23T16:02:02.872,183.8629,1.6285,5.5625
2026-07-23T16:02:02.886,183.8897,1.6285,5.5429
2026-07-23T16:02:02.893,183.8897,1.6677,5.5821
2026-07-23T16:02:02.909,183.8897,1.6481,5.5038
2026-07-23T16:02:02.909,183.8897,1.7264,5.5625
2026-07-23T16:02:02.924,183.922,1.7069,5.5821
2026-07-23T16:02:02.925,183.922,1.7264,5.6604
2026-07-23T16:02:02.940,183.9356,1.6873,5.6408
2026-07-23T16:02:02.940,183.9376,1.8048,5.7191
2026-07-23T16:02:02.960,183.9535,1.746,5.7387
2026-07-23T16:02:02.973,183.9695,1.8048,5.8171
2026-07-23T16:02:02.986,183.9695,1.7656,5.68
2026-07-23T16:02:02.992,183.9695,1.8439,5.8171
2026-07-23T16:02:03.004,184.0094,1.8635,5.68
2026-07-23T16:02:03.004,184.0094,1.8635,5.7583
2026-07-23T16:02:03.020,184.0169,1.9418,5.7387
2026-07-23T16:02:03.020,184.0169,1.9614,5.8562
2026-07-23T16:02:03.039,184.0488,1.9027,5.8954
2026-07-23T16:02:03.053,184.0488,1.9614,5.9541
2026-07-23T16:02:03.068,184.0488,1.9027,5.9345
2026-07-23T16:02:03.068,184.0647,2.0593,5.9737
2026-07-23T16:02:03.093,184.0804,1.9614,5.9933
2026-07-23T16:02:03.093,184.0804,2.0201,6.0716
2026-07-23T16:02:03.115,184.1018,2.0397,6.0129
2026-07-23T16:02:03.115,184.1018,2.0985,6.2087
2026-07-23T16:02:03.122,184.1353,2.1181,6.0324
2026-07-23T16:02:03.131,184.1353,2.1964,6.1499
2026-07-23T16:02:03.131,184.142,2.216,6.1108
2026-07-23T16:02:03.153,184.1438,2.3139,6.1499
2026-07-23T16:02:03.160,184.1438,2.0985,6.1891
2026-07-23T16:02:03.179,184.1755,2.2355,6.2282
2026-07-23T16:02:03.179,184.1755,2.1768,6.2478
2026-07-23T16:02:03.193,184.1755,2.2747,6.2087
2026-07-23T16:02:03.195,184.1913,2.1572,6.1303
2026-07-23T16:02:03.210,184.2232,2.3334,6.2674
2026-07-23T16:02:03.226,184.2232,2.1964,6.1891
2026-07-23T16:02:03.226,184.2326,2.3334,6.1695
2026-07-23T16:02:03.242,184.2392,2.1768,6.2087
2026-07-23T16:02:03.253,184.2553,2.2943,6.1891
2026-07-23T16:02:03.261,184.271,2.2355,6.0912
2026-07-23T16:02:03.274,184.2725,2.3139,6.1108
2026-07-23T16:02:03.293,184.2795,2.1964,6.052
2026-07-23T16:02:03.293,184.2795,2.353,6.1303
2026-07-23T16:02:03.306,184.3098,2.2747,6.0324
2026-07-23T16:02:03.306,184.3098,2.353,6.0912
2026-07-23T16:02:03.330,184.3179,2.2355,6.0324
2026-07-23T16:02:03.330,184.3214,2.3334,6.052
2026-07-23T16:02:03.353,184.3503,2.216,6.052
2026-07-23T16:02:03.353,184.3503,2.4118,6.0716
2026-07-23T16:02:03.361,184.3503,2.2943,6.1108
2026-07-23T16:02:03.372,184.3686,2.4118,6.052
2026-07-23T16:02:03.384,184.3967,2.2943,6.0324
2026-07-23T16:02:03.393,184.4048,2.4118,5.9737
2026-07-23T16:02:03.401,184.4097,2.3139,5.915
2026-07-23T16:02:03.401,184.4127,2.353,5.9541
2026-07-23T16:02:03.419,184.4127,2.3139,5.9345
2026-07-23T16:02:03.432,184.4446,2.3922,5.9345
2026-07-23T16:02:03.447,184.4466,2.1964,5.8954
2026-07-23T16:02:03.447,184.4466,2.3726,5.9737
2026-07-23T16:02:03.464,184.4466,2.1964,5.8171
2026-07-23T16:02:03.464,184.4766,2.4509,5.9541
2026-07-23T16:02:03.486,184.488,2.2355,5.915
2026-07-23T16:02:03.497,184.4926,2.4313,5.9737
2026-07-23T16:02:03.497,184.4926,2.2551,5.8366
2026-07-23T16:02:03.527,184.5245,2.4313,5.8954
2026-07-23T16:02:03.527,184.5245,2.3139,5.8758
2026-07-23T16:02:03.527,184.5299,2.4509,5.915
2026-07-23T16:02:03.543,184.5299,2.3922,5.8562
2026-07-23T16:02:03.553,184.5558,2.6076,5.8954
2026-07-23T16:02:03.561,184.5558,2.4118,5.7583
2026-07-23T16:02:03.575,184.5558,2.4705,5.8562
2026-07-23T16:02:03.586,184.5717,2.3726,5.8758
2026-07-23T16:02:03.594,184.6036,2.5684,5.8562
2026-07-23T16:02:03.607,184.6036,2.3726,5.7583
2026-07-23T16:02:03.607,184.6099,2.6076,5.8171
2026-07-23T16:02:03.622,184.6135,2.4118,5.7583
2026-07-23T16:02:03.622,184.6356,2.6859,5.8954
2026-07-23T16:02:03.638,184.6434,2.3922,5.7975
2026-07-23T16:02:03.661,184.6434,2.6272,5.8562
2026-07-23T16:02:03.661,184.6434,2.4509,5.7975
2026-07-23T16:02:03.670,184.6551,2.6859,5.8758
2026-07-23T16:02:03.670,184.6841,2.5097,5.7779
2026-07-23T16:02:03.694,184.6841,2.7251,5.8171
2026-07-23T16:02:03.694,184.697,2.5292,5.8954
2026-07-23T16:02:03.706,184.7153,2.7642,5.9737
2026-07-23T16:02:03.719,184.7313,2.4509,5.8954
2026-07-23T16:02:03.735,184.7313,2.6859,5.9345
2026-07-23T16:02:03.748,184.7384,2.5097,5.9737
2026-07-23T16:02:03.753,184.7384,2.7055,5.9737
2026-07-23T16:02:03.763,184.7686,2.5488,5.8366
2026-07-23T16:02:03.766,184.7686,2.6859,5.8758
2026-07-23T16:02:03.782,184.7803,2.5292,5.8366
2026-07-23T16:02:03.795,184.7803,2.7446,5.9345
2026-07-23T16:02:03.813,184.8102,2.4901,5.9541
2026-07-23T16:02:03.813,184.8102,2.8034,5.9345
2026-07-23T16:02:03.819,184.8102,2.5684,5.8366
2026-07-23T16:02:03.831,184.8218,2.7642,5.9737
2026-07-23T16:02:03.845,184.8441,2.588,5.9541
2026-07-23T16:02:03.853,184.8441,2.8621,6.0129
2026-07-23T16:02:03.861,184.8582,2.5292,5.9541
2026-07-23T16:02:03.873,184.8638,2.8034,6.0129
2026-07-23T16:02:03.877,184.89,2.588,5.9933
2026-07-23T16:02:03.895,184.89,2.8621,5.9933
2026-07-23T16:02:03.895,184.89,2.5684,5.8954
2026-07-23T16:02:03.915,184.89,2.7838,5.9737
2026-07-23T16:02:03.925,184.9215,2.588,5.8562
2026-07-23T16:02:03.925,184.9215,2.823,5.9541
2026-07-23T16:02:03.941,184.9373,2.5292,5.9737
2026-07-23T16:02:03.941,184.9373,2.7446,5.8758
2026-07-23T16:02:03.961,184.9687,2.5684,5.8758
2026-07-23T16:02:03.972,184.9687,2.8425,5.8758
2026-07-23T16:02:03.972,184.9687,2.6272,5.8171
2026-07-23T16:02:03.998,184.9687,2.823,5.915
2026-07-23T16:02:04.004,185.0023,2.588,5.915
2026-07-23T16:02:04.004,185.0104,2.8425,5.9345
2026-07-23T16:02:04.020,185.0104,2.6076,5.8562
2026-07-23T16:02:04.020,185.0167,2.7838,5.8954
2026-07-23T16:02:04.052,185.0355,2.6076,5.8171
2026-07-23T16:02:04.053,185.0355,2.7055,5.8562
2026-07-23T16:02:04.061,185.0485,2.5684,5.7191
2026-07-23T16:02:04.068,185.0721,2.7838,5.7583
2026-07-23T16:02:04.083,185.0805,2.5684,5.7975
2026-07-23T16:02:04.086,185.081,2.7446,5.7387
2026-07-23T16:02:04.099,185.081,2.6859,5.6408
2026-07-23T16:02:04.115,185.1141,2.7251,5.7583
2026-07-23T16:02:04.123,185.1141,2.6076,5.6996
2026-07-23T16:02:04.132,185.1141,2.7642,5.7387
2026-07-23T16:02:04.132,185.1449,2.5488,5.7583
2026-07-23T16:02:04.153,185.1449,2.8034,5.7583
2026-07-23T16:02:04.165,185.1449,2.5488,5.7191
2026-07-23T16:02:04.165,185.1556,2.7251,5.7583
2026-07-23T16:02:04.194,185.1751,2.6272,5.7779
2026-07-23T16:02:04.194,185.1751,2.8817,5.8171
2026-07-23T16:02:04.196,185.1908,2.6076,5.7583
2026-07-23T16:02:04.226,185.2104,2.8425,5.8171
2026-07-23T16:02:04.226,185.2229,2.6663,5.7583
2026-07-23T16:02:04.226,185.224,2.8425,5.8171
2026-07-23T16:02:04.242,185.224,2.6467,5.7779
2026-07-23T16:02:04.253,185.2537,2.8425,5.7583
2026-07-23T16:02:04.261,185.2537,2.7251,5.7583
2026-07-23T16:02:04.275,185.2537,2.9404,5.7583
2026-07-23T16:02:04.286,185.2696,2.7055,5.7387
2026-07-23T16:02:04.296,185.2855,2.8034,5.7387
2026-07-23T16:02:04.304,185.2855,2.6272,5.7191
2026-07-23T16:02:04.304,185.3022,2.8034,5.68
2026-07-23T16:02:04.320,185.3284,2.7251,5.6996
2026-07-23T16:02:04.336,185.337,2.823,5.7583
2026-07-23T16:02:04.336,185.337,2.6859,5.6604
2026-07-23T16:02:04.353,185.3432,2.9013,5.6996
2026-07-23T16:02:04.368,185.364,2.7446,5.7387
2026-07-23T16:02:04.379,185.3687,2.9404,5.7191
2026-07-23T16:02:04.386,185.3687,2.7838,5.7387
2026-07-23T16:02:04.394,185.3687,2.9013,5.8366
2026-07-23T16:02:04.400,185.3956,2.7642,5.7583
2026-07-23T16:02:04.415,185.4061,2.9992,5.7779
2026-07-23T16:02:04.419,185.4117,2.823,5.8758
2026-07-23T16:02:04.431,185.4353,3.0383,5.915
2026-07-23T16:02:04.446,185.4353,2.9013,5.8954
2026-07-23T16:02:04.446,185.4435,3.0775,5.915
2026-07-23T16:02:04.462,185.4476,2.96,5.9345
2026-07-23T16:02:04.462,185.4685,3.1363,5.9345
2026-07-23T16:02:04.478,185.4752,2.9992,5.8366
2026-07-23T16:02:04.486,185.4752,3.1754,5.9345
2026-07-23T16:02:04.498,185.5108,3.0188,5.915
2026-07-23T16:02:04.519,185.5108,3.2342,5.9541
2026-07-23T16:02:04.526,185.5108,3.0971,6.0129
2026-07-23T16:02:04.526,185.5227,3.2537,6.0324
2026-07-23T16:02:04.540,185.5466,3.1363,6.1108
2026-07-23T16:02:04.558,185.5542,3.2929,6.0912
2026-07-23T16:02:04.562,185.5542,3.2146,6.1108
2026-07-23T16:02:04.573,185.5542,3.3908,6.0912
2026-07-23T16:02:04.582,185.5857,3.2929,6.1891
2026-07-23T16:02:04.597,185.5857,3.4887,6.287
2026-07-23T16:02:04.605,185.5857,3.4887,6.2674
2026-07-23T16:02:04.605,185.5857,3.5866,6.3849
2026-07-23T16:02:04.624,185.6174,3.5083,6.4436
2026-07-23T16:02:04.624,185.6174,3.6845,6.4436
2026-07-23T16:02:04.637,185.6174,3.567,6.4241
2026-07-23T16:02:04.637,185.6563,3.802,6.4045
2026-07-23T16:02:04.668,185.6563,3.6062,6.5415
2026-07-23T16:02:04.668,185.6646,3.8216,6.5415
2026-07-23T16:02:04.686,185.6686,3.7041,6.5415
2026-07-23T16:02:04.700,185.6816,3.9195,6.522
2026-07-23T16:02:04.700,185.6816,3.7824,6.5024
2026-07-23T16:02:04.715,185.6965,3.9391,6.6003
2026-07-23T16:02:04.719,185.713,3.8412,6.5807
2026-07-23T16:02:04.732,185.713,3.9782,6.5611
2026-07-23T16:02:04.732,185.713,3.8412,6.5024
2026-07-23T16:02:04.762,185.7473,3.9978,6.5611
2026-07-23T16:02:04.764,185.7473,3.8999,6.5611
2026-07-23T16:02:04.779,185.7604,4.037,6.659
2026-07-23T16:02:04.779,185.7604,3.9586,6.6199
2026-07-23T16:02:04.798,185.7922,4.1153,6.659
2026-07-23T16:02:04.798,185.7922,3.9782,6.6786
2026-07-23T16:02:04.811,185.7922,4.0957,6.6786
2026-07-23T16:02:04.819,185.8242,3.9195,6.6003
2026-07-23T16:02:04.832,185.8242,4.037,6.7178
2026-07-23T16:02:04.843,185.8357,3.9391,6.6394
2026-07-23T16:02:04.843,185.8403,4.1349,6.6199
2026-07-23T16:02:04.862,185.8688,3.9586,6.6982
2026-07-23T16:02:04.862,185.8688,4.1936,6.7765
2026-07-23T16:02:04.886,185.872,3.9978,6.7178
2026-07-23T16:02:04.891,185.9035,4.1349,6.6982
2026-07-23T16:02:04.899,185.9109,4.0565,6.7178
2026-07-23T16:02:04.907,185.9109,4.1349,6.6786
2026-07-23T16:02:04.923,185.9109,3.9782,6.6199
2026-07-23T16:02:04.939,185.9354,4.0957,6.5415
2026-07-23T16:02:04.939,185.948,3.9391,6.6003
2026-07-23T16:02:04.954,185.9515,4.0761,6.5611
2026-07-23T16:02:04.962,185.9515,3.9782,6.6199
2026-07-23T16:02:04.978,185.9685,4.0761,6.5807
2026-07-23T16:02:04.986,185.9834,3.9391,6.5611
2026-07-23T16:02:04.986,185.9834,3.9782,6.4828
2026-07-23T16:02:05.002,185.9834,3.9586,6.522
2026-07-23T16:02:05.002,186.0111,4.0761,6.5024
2026-07-23T16:02:05.019,186.0152,4.037,6.5611
2026-07-23T16:02:05.019,186.0152,3.9978,6.4828
2026-07-23T16:02:05.041,186.0466,3.8803,6.4045
2026-07-23T16:02:05.053,186.0481,3.9978,6.4632
2026-07-23T16:02:05.066,186.0481,3.8216,6.522
2026-07-23T16:02:05.066,186.0481,4.037,6.3849
2026-07-23T16:02:05.086,186.0783,3.8412,6.4828
2026-07-23T16:02:05.086,186.0783,3.9586,6.4241
2026-07-23T16:02:05.099,186.094,3.8803,6.5024
2026-07-23T16:02:05.129,186.1152,4.0174,6.4436
2026-07-23T16:02:05.129,186.1152,3.8607,6.5024
2026-07-23T16:02:05.129,186.1152,4.0174,6.4632
2026-07-23T16:02:05.145,186.1257,3.9586,6.4632
2026-07-23T16:02:05.153,186.1484,3.9782,6.4828
2026-07-23T16:02:05.162,186.1484,3.9782,6.5024
2026-07-23T16:02:05.166,186.1575,4.0957,6.5024
2026-07-23T16:02:05.186,186.1734,4.037,6.522
2026-07-23T16:02:05.193,186.1894,4.1544,6.522
2026-07-23T16:02:05.199,186.1894,4.0565,6.5611
2026-07-23T16:02:05.208,186.1982,4.3894,6.4828
2026-07-23T16:02:05.224,186.222,4.2524,6.5415
2026-07-23T16:02:05.224,186.222,4.3111,6.5024
2026-07-23T16:02:05.240,186.2333,4.1544,6.522
2026-07-23T16:02:05.253,186.2528,4.2719,6.5024
2026-07-23T16:02:05.273,186.2528,4.1349,6.5415
2026-07-23T16:02:05.273,186.2689,4.2524,6.4241
2026-07-23T16:02:05.284,186.2689,4.174,6.5611
2026-07-23T16:02:05.291,186.2847,4.3111,6.4632
2026-07-23T16:02:05.304,186.3019,4.2132,6.5415
2026-07-23T16:02:05.304,186.3114,4.2719,6.5415
2026-07-23T16:02:05.320,186.3114,4.2524,6.6199
2026-07-23T16:02:05.333,186.3356,4.3698,6.522
2026-07-23T16:02:05.336,186.3488,4.2719,6.659
2026-07-23T16:02:05.353,186.3488,4.3698,6.522
2026-07-23T16:02:05.368,186.3488,4.2524,6.5807
2026-07-23T16:02:05.374,186.3807,4.409,6.5807
2026-07-23T16:02:05.386,186.3807,4.2524,6.5807
2026-07-23T16:02:05.386,186.3965,4.4482,6.6199
2026-07-23T16:02:05.400,186.4028,4.409,6.659
2026-07-23T16:02:05.400,186.4053,4.4873,6.6199
2026-07-23T16:02:05.420,186.4283,4.4873,6.6786
2026-07-23T16:02:05.431,186.4283,4.5852,6.6982
2026-07-23T16:02:05.431,186.4354,4.4873,6.659
2026-07-23T16:02:05.454,186.4444,4.5461,6.659
2026-07-23T16:02:05.463,186.46,4.5265,6.6199
2026-07-23T16:02:05.463,186.4686,4.6048,6.6786
2026-07-23T16:02:05.479,186.4759,4.5852,6.6982
2026-07-23T16:02:05.495,186.4759,4.644,6.6394
2026-07-23T16:02:05.500,186.5114,4.7223,6.7178
2026-07-23T16:02:05.511,186.5114,4.644,6.6786
2026-07-23T16:02:05.527,186.5239,4.6244,6.6786
2026-07-23T16:02:05.527,186.5239,4.5852,6.6786
2026-07-23T16:02:05.559,186.5561,4.644,6.6982
2026-07-23T16:02:05.562,186.5561,4.6244,6.6199
2026-07-23T16:02:05.562,186.5561,4.6635,6.6394
2026-07-23T16:02:05.562,186.5718,4.6244,6.659
2026-07-23T16:02:05.583,186.5884,4.6048,6.6199
2026-07-23T16:02:05.591,186.6039,4.5852,6.6982
2026-07-23T16:02:05.600,186.6039,4.6244,6.6199
2026-07-23T16:02:05.623,186.6195,4.6048,6.5807
2026-07-23T16:02:05.625,186.6195,4.6244,6.6982
2026-07-23T16:02:05.625,186.6354,4.6635,6.659
2026-07-23T16:02:05.639,186.6514,4.6635,6.7178
2026-07-23T16:02:05.655,186.6574,4.6244,6.6003
2026-07-23T16:02:05.670,186.6574,4.6831,6.7373
2026-07-23T16:02:05.670,186.6832,4.6244,6.6394
2026-07-23T16:02:05.670,186.6832,4.644,6.6786
2026-07-23T16:02:05.686,186.6832,4.5852,6.6982
2026-07-23T16:02:05.708,186.7044,4.7419,6.7569
2026-07-23T16:02:05.708,186.7065,4.7027,6.7178
2026-07-23T16:02:05.719,186.7305,4.7615,6.8548
2026-07-23T16:02:05.734,186.7305,4.6831,6.8744
2026-07-23T16:02:05.734,186.7407,4.781,6.9136
2026-07-23T16:02:05.757,186.7502,4.7027,6.8548
2026-07-23T16:02:05.766,186.7798,4.8398,6.9527
2026-07-23T16:02:05.781,186.7824,4.7223,6.894
2026-07-23T16:02:05.781,186.7824,4.8985,6.9919
2026-07-23T16:02:05.797,186.7824,4.6831,6.9723
2026-07-23T16:02:05.801,186.7944,4.8594,7.1094
2026-07-23T16:02:05.813,186.8241,4.7615,7.0311
2026-07-23T16:02:05.820,186.8259,4.8594,7.129
2026-07-23T16:02:05.833,186.8259,4.7223,7.0115
2026-07-23T16:02:05.845,186.8357,4.8594,7.0311
2026-07-23T16:02:05.863,186.869,4.7223,7.0115
2026-07-23T16:02:05.863,186.869,4.8006,7.0311
2026-07-23T16:02:05.875,186.869,4.6635,7.0115
2026-07-23T16:02:05.886,186.8738,4.8789,7.0898
2026-07-23T16:02:05.893,186.8897,4.7223,7.0702
2026-07-23T16:02:05.909,186.9076,4.8985,7.129
2026-07-23T16:02:05.909,186.9076,4.8594,7.0506
2026-07-23T16:02:05.925,186.9116,4.9377,7.1681
2026-07-23T16:02:05.940,186.9374,4.781,7.0702
2026-07-23T16:02:05.940,186.9513,4.9181,7.129
2026-07-23T16:02:05.958,186.9533,4.7615,7.1094
2026-07-23T16:02:05.962,186.9533,4.9573,7.129
2026-07-23T16:02:05.988,186.9848,4.8202,7.129
2026-07-23T16:02:05.988,186.9863,5.016,7.129
2026-07-23T16:02:06.000,186.9908,4.8398,7.1485
2026-07-23T16:02:06.002,186.9908,5.0356,7.1877
2026-07-23T16:02:06.020,187.0168,4.8398,7.129
2026-07-23T16:02:06.020,187.0168,5.0552,7.2073
2026-07-23T16:02:06.037,187.0326,4.8985,7.1485
2026-07-23T16:02:06.042,187.0353,5.1922,7.1877
2026-07-23T16:02:06.052,187.0353,4.8985,7.1877
2026-07-23T16:02:06.068,187.0514,5.0943,7.266
2026-07-23T16:02:06.068,187.0643,4.9181,7.2269
2026-07-23T16:02:06.086,187.0689,5.0943,7.2269
2026-07-23T16:02:06.102,187.0993,4.9573,7.266
2026-07-23T16:02:06.102,187.102,5.0747,7.2269
2026-07-23T16:02:06.115,187.102,4.8985,7.2269
2026-07-23T16:02:06.125,187.1278,5.1139,7.3639
2026-07-23T16:02:06.131,187.1278,4.9377,7.266
2026-07-23T16:02:06.131,187.1353,5.1335,7.3052
2026-07-23T16:02:06.153,187.1353,4.9181,7.2856
2026-07-23T16:02:06.162,187.1593,5.1531,7.3639
2026-07-23T16:02:06.179,187.1724,5.016,7.3248
2026-07-23T16:02:06.186,187.1751,5.2706,7.4423
2026-07-23T16:02:06.194,187.1751,5.0552,7.4423
2026-07-23T16:02:06.203,187.2019,5.2706,7.501
2026-07-23T16:02:06.210,187.207,5.0943,7.4814
2026-07-23T16:02:06.226,187.2156,5.388,7.5402
2026-07-23T16:02:06.226,187.2229,5.1335,7.5206
2026-07-23T16:02:06.242,187.2409,5.3489,7.501
2026-07-23T16:02:06.253,187.2409,5.1726,7.5402
2026-07-23T16:02:06.266,187.2547,5.3685,7.5597
2026-07-23T16:02:06.274,187.2547,5.2118,7.5597
2026-07-23T16:02:06.292,187.2863,5.4468,7.5206
2026-07-23T16:02:06.292,187.2863,5.2901,7.5793
2026-07-23T16:02:06.306,187.2863,5.4272,7.5206
2026-07-23T16:02:06.321,187.3244,5.2706,7.5793
2026-07-23T16:02:06.321,187.3244,5.388,7.5402
2026-07-23T16:02:06.334,187.3244,5.2706,7.4618
2026-07-23T16:02:06.337,187.3368,5.388,7.5989
2026-07-23T16:02:06.369,187.3528,5.2118,7.5206
2026-07-23T16:02:06.369,187.3663,5.4468,7.5597
2026-07-23T16:02:06.375,187.3688,5.251,7.5206
2026-07-23T16:02:06.388,187.3688,5.4664,7.501
2026-07-23T16:02:06.388,187.402,5.2901,7.501
2026-07-23T16:02:06.404,187.402,5.388,7.5206
2026-07-23T16:02:06.404,187.402,5.2118,7.5402
2026-07-23T16:02:06.420,187.4078,5.4272,7.4227
2026-07-23T16:02:06.432,187.4284,5.1922,7.4227
2026-07-23T16:02:06.448,187.4355,5.3489,7.4031
2026-07-23T16:02:06.453,187.4355,5.251,7.4423
2026-07-23T16:02:06.463,187.4686,5.3097,7.4423
2026-07-23T16:02:06.479,187.4686,5.1726,7.4814
2026-07-23T16:02:06.479,187.4773,5.3685,7.501
2026-07-23T16:02:06.495,187.4826,5.1726,7.4618
2026-07-23T16:02:06.511,187.5082,5.3685,7.4814
2026-07-23T16:02:06.511,187.5129,5.1726,7.4618
2026-07-23T16:02:06.519,187.5129,5.4076,7.4618
2026-07-23T16:02:06.534,187.5129,5.1531,7.4031
2026-07-23T16:02:06.553,187.5401,5.3685,7.4814
2026-07-23T16:02:06.553,187.5401,5.0943,7.4814
2026-07-23T16:02:06.564,187.5558,5.3489,7.4423
2026-07-23T16:02:06.564,187.5748,5.1335,7.4423
2026-07-23T16:02:06.591,187.5874,5.2706,7.4031
2026-07-23T16:02:06.591,187.5874,5.1335,7.4814
2026-07-23T16:02:06.607,187.5874,5.2706,7.4814
2026-07-23T16:02:06.619,187.62,5.1335,7.4618
2026-07-23T16:02:06.626,187.62,5.3097,7.4423
2026-07-23T16:02:06.626,187.62,5.1726,7.4814
2026-07-23T16:02:06.638,187.62,5.3685,7.501
2026-07-23T16:02:06.664,187.6581,5.2314,7.4423
2026-07-23T16:02:06.664,187.6581,5.3293,7.4618
2026-07-23T16:02:06.671,187.6581,5.1726,7.4423
2026-07-23T16:02:06.671,187.6675,5.3097,7.4423
2026-07-23T16:02:06.702,187.6833,5.1139,7.4031
2026-07-23T16:02:06.702,187.6833,5.2901,7.3444
2026-07-23T16:02:06.709,187.7001,5.0747,7.3835
2026-07-23T16:02:06.734,187.7149,5.3293,7.3248
2026-07-23T16:02:06.734,187.7149,5.1531,7.3639
2026-07-23T16:02:06.734,187.7309,5.3489,7.2856
2026-07-23T16:02:06.753,187.7354,5.1726,7.3835
2026-07-23T16:02:06.766,187.7627,5.016,7.2856
2026-07-23T16:02:06.766,187.7627,5.1726,7.3248
2026-07-23T16:02:06.786,187.7689,5.2706,7.3444
2026-07-23T16:02:06.805,187.8023,5.1726,7.3639
2026-07-23T16:02:06.805,187.8023,5.2314,7.3639
2026-07-23T16:02:06.813,187.8023,5.0943,7.4227
2026-07-23T16:02:06.820,187.8262,5.3293,7.3052
2026-07-23T16:02:06.834,187.8357,5.1531,7.501
2026-07-23T16:02:06.845,187.8357,5.388,7.501
2026-07-23T16:02:06.853,187.8432,5.2118,7.5989
2026-07-23T16:02:06.864,187.8688,5.5251,7.5597
2026-07-23T16:02:06.877,187.8739,5.3489,7.6772
2026-07-23T16:02:06.887,187.8739,5.5055,7.6576
2026-07-23T16:02:06.894,187.8739,5.3097,7.7164
2026-07-23T16:02:06.918,187.9136,5.5251,7.6772
2026-07-23T16:02:06.918,187.9136,5.3489,7.6968
2026-07-23T16:02:06.925,187.9136,5.6426,7.7555
2026-07-23T16:02:06.925,187.9215,5.4664,7.8339
2026-07-23T16:02:06.940,187.955,5.6622,7.7751
2026-07-23T16:02:06.959,187.955,5.4468,7.8143
2026-07-23T16:02:06.964,187.955,5.6817,7.7751
2026-07-23T16:02:06.974,187.955,5.5055,7.8926
2026-07-23T16:02:06.988,187.9918,5.7013,7.736
2026-07-23T16:02:06.988,187.9918,5.5251,7.7164
2026-07-23T16:02:07.006,188.0004,5.7797,7.7164
2026-07-23T16:02:07.006,188.0025,5.6034,7.7555
2026-07-23T16:02:07.020,188.0326,5.7797,7.6968
2026-07-23T16:02:07.043,188.0357,5.5447,7.7751
2026-07-23T16:02:07.043,188.0357,5.8188,7.736
2026-07-23T16:02:07.053,188.0357,5.6622,7.736
2026-07-23T16:02:07.068,188.069,5.858,7.736
2026-07-23T16:02:07.068,188.069,5.7013,7.7751
2026-07-23T16:02:07.087,188.0755,5.9167,7.8339
2026-07-23T16:02:07.087,188.0755,5.7992,7.8535
2026-07-23T16:02:07.115,188.1023,5.9755,7.9318
2026-07-23T16:02:07.115,188.1023,5.7992,7.9514
2026-07-23T16:02:07.126,188.1023,6.0146,7.8926
2026-07-23T16:02:07.131,188.1357,5.8384,7.8535
2026-07-23T16:02:07.147,188.1357,6.0929,7.9318
2026-07-23T16:02:07.153,188.1437,5.9363,7.9709
2026-07-23T16:02:07.168,188.1691,6.1125,7.9318
2026-07-23T16:02:07.179,188.1754,5.9755,8.0884
2026-07-23T16:02:07.179,188.1754,6.1321,7.9709
2026-07-23T16:02:07.195,188.1754,5.995,8.0688
2026-07-23T16:02:07.206,188.2145,6.2496,8.0493
2026-07-23T16:02:07.220,188.2145,6.1908,8.0688
2026-07-23T16:02:07.226,188.2145,6.3867,8.108
2026-07-23T16:02:07.226,188.2236,6.2104,8.1863
2026-07-23T16:02:07.260,188.2458,6.3867,8.3234
2026-07-23T16:02:07.260,188.2558,6.2104,8.2451
2026-07-23T16:02:07.265,188.2569,6.3279,8.1667
2026-07-23T16:02:07.274,188.2569,6.1908,8.1667
2026-07-23T16:02:07.290,188.287,6.4454,8.1863
2026-07-23T16:02:07.297,188.287,6.2888,8.2842
2026-07-23T16:02:07.307,188.287,6.4454,8.2842
2026-07-23T16:02:07.308,188.3023,6.3083,8.3234
2026-07-23T16:02:07.322,188.3342,6.4454,8.2646
2026-07-23T16:02:07.338,188.3347,6.3475,8.3038
2026-07-23T16:02:07.338,188.3357,6.4062,8.2451
2026-07-23T16:02:07.353,188.3357,6.3671,8.2255
2026-07-23T16:02:07.365,188.369,6.4454,8.2059
2026-07-23T16:02:07.376,188.369,6.3083,8.2646
2026-07-23T16:02:07.385,188.369,6.4258,8.2255
2026-07-23T16:02:07.387,188.369,6.3867,8.2842
2026-07-23T16:02:07.401,188.4024,6.5629,8.2646
2026-07-23T16:02:07.417,188.4024,6.3867,8.2646
2026-07-23T16:02:07.420,188.4093,6.602,8.2255
2026-07-23T16:02:07.449,188.4354,6.465,8.3234
2026-07-23T16:02:07.449,188.4354,6.6804,8.2646
2026-07-23T16:02:07.453,188.4354,6.5041,8.3626
2026-07-23T16:02:07.465,188.445,6.5825,8.3821
2026-07-23T16:02:07.465,188.4689,6.5237,8.4017
2026-07-23T16:02:07.486,188.4773,6.6412,8.3626
2026-07-23T16:02:07.496,188.4773,6.5433,8.3626
2026-07-23T16:02:07.512,188.5084,6.5825,8.2842
2026-07-23T16:02:07.520,188.5148,6.5041,8.2842
2026-07-23T16:02:07.528,188.5148,6.5825,8.2842
2026-07-23T16:02:07.528,188.5148,6.465,8.343
2026-07-23T16:02:07.543,188.5404,6.5825,8.3038
2026-07-23T16:02:07.559,188.5404,6.465,8.3038
2026-07-23T16:02:07.566,188.5404,6.5433,8.2451
2026-07-23T16:02:07.575,188.5757,6.4846,8.2842
2026-07-23T16:02:07.575,188.5757,6.5041,8.343
2026-07-23T16:02:07.591,188.5879,6.4258,8.343
2026-07-23T16:02:07.607,188.5879,6.4846,8.4213
2026-07-23T16:02:07.608,188.6179,6.4258,8.4213
2026-07-23T16:02:07.626,188.6196,6.5041,8.3821
2026-07-23T16:02:07.626,188.6196,6.3475,8.4213
2026-07-23T16:02:07.639,188.6196,6.5237,8.343
2026-07-23T16:02:07.655,188.6521,6.4062,8.3821
2026-07-23T16:02:07.666,188.6575,6.4846,8.343
2026-07-23T16:02:07.670,188.6595,6.4846,8.343
2026-07-23T16:02:07.686,188.6829,6.5629,8.343
2026-07-23T16:02:07.686,188.6829,6.4258,8.4017
2026-07-23T16:02:07.708,188.6989,6.4846,8.3626
2026-07-23T16:02:07.718,188.7025,6.4846,8.343
2026-07-23T16:02:07.720,188.7147,6.5237,8.343
2026-07-23T16:02:07.734,188.7304,6.4846,8.3626
2026-07-23T16:02:07.750,188.7358,6.5041,8.2842
2026-07-23T16:02:07.753,188.7579,6.4454,8.2842
2026-07-23T16:02:07.766,188.7632,6.4454,8.2646
2026-07-23T16:02:07.766,188.7632,6.4258,8.2842
2026-07-23T16:02:07.787,188.7692,6.465,8.3234
2026-07-23T16:02:07.797,188.7943,6.4846,8.3234
2026-07-23T16:02:07.809,188.7943,6.5041,8.2646
2026-07-23T16:02:07.814,188.8024,6.5629,8.3038
2026-07-23T16:02:07.830,188.8263,6.5041,8.2451
2026-07-23T16:02:07.835,188.8263,6.5237,8.2059
2026-07-23T16:02:07.845,188.8356,6.465,8.2451
2026-07-23T16:02:07.853,188.8356,6.5237,8.3038
2026-07-23T16:02:07.866,188.8584,6.4454,8.2646
2026-07-23T16:02:07.877,188.8688,6.5041,8.2646
2026-07-23T16:02:07.886,188.875,6.4846,8.2646
2026-07-23T16:02:07.894,188.9054,6.465,8.3234
2026-07-23T16:02:07.909,188.9096,6.4846,8.2255
2026-07-23T16:02:07.909,188.9151,6.5237,8.3038
2026-07-23T16:02:07.926,188.9151,6.465,8.3234
2026-07-23T16:02:07.940,188.9376,6.5041,8.3821
2026-07-23T16:02:07.940,188.9376,6.5433,8.3234
2026-07-23T16:02:07.956,188.9514,6.6412,8.343
2026-07-23T16:02:07.966,188.9534,6.6608,8.3821
2026-07-23T16:02:07.972,188.9587,6.602,8.3038
2026-07-23T16:02:07.988,188.9849,6.5825,8.3038
2026-07-23T16:02:07.988,188.9849,6.5825,8.3234
2026-07-23T16:02:08.009,188.993,6.5629,8.1667
2026-07-23T16:02:08.020,189.0164,6.6608,8.1863
2026-07-23T16:02:08.020,189.0164,6.5825,8.2059
2026-07-23T16:02:08.036,189.0164,6.7783,8.3038
2026-07-23T16:02:08.044,189.0348,6.7195,8.1472
2026-07-23T16:02:08.053,189.0593,6.7587,8.1863
2026-07-23T16:02:08.066,189.0593,7.1111,8.2059
2026-07-23T16:02:08.067,189.0692,6.8762,8.1863
2026-07-23T16:02:08.086,189.0692,6.9741,8.1472
2026-07-23T16:02:08.104,189.085,7.072,8.1667
2026-07-23T16:02:08.104,189.085,7.1111,8.1667
2026-07-23T16:02:08.120,189.1022,7.1503,8.1667
2026-07-23T16:02:08.120,189.1022,7.2482,8.1472
2026-07-23T16:02:08.136,189.1184,7.444,8.2059
2026-07-23T16:02:08.136,189.1358,7.4244,8.2059
2026-07-23T16:02:08.153,189.1358,7.5811,8.2451
2026-07-23T16:02:08.169,189.169,7.5615,8.343
2026-07-23T16:02:08.169,189.169,7.679,8.4409
2026-07-23T16:02:08.187,189.169,7.6986,8.4213
2026-07-23T16:02:08.187,189.169,7.679,8.4605
2026-07-23T16:02:08.211,189.2023,7.7377,8.5975
2026-07-23T16:02:08.211,189.2023,7.8161,8.4017
2026-07-23T16:02:08.220,189.2023,7.8552,8.4213
2026-07-23T16:02:08.236,189.2356,7.8748,8.4213
2026-07-23T16:02:08.236,189.2356,7.8552,8.48
2026-07-23T16:02:08.253,189.2433,7.9923,8.48
2026-07-23T16:02:08.253,189.2433,7.8552,8.5779
2026-07-23T16:02:08.284,189.2691,7.8748,8.5388
2026-07-23T16:02:08.284,189.2691,7.8161,8.6367
2026-07-23T16:02:08.294,189.2805,7.8552,8.5975
2026-07-23T16:02:08.317,189.3021,7.8161,8.5584
2026-07-23T16:02:08.317,189.3021,7.7573,8.5388
2026-07-23T16:02:08.331,189.3126,7.7377,8.5975
2026-07-23T16:02:08.331,189.3355,7.679,8.6171
2026-07-23T16:02:08.347,189.3444,7.6398,8.6563
2026-07-23T16:02:08.353,189.3444,7.6986,8.6171
2026-07-23T16:02:08.366,189.3444,7.679,8.5584
2026-07-23T16:02:08.386,189.3769,7.6986,8.5975
2026-07-23T16:02:08.386,189.3769,7.5615,8.6563
2026-07-23T16:02:08.395,189.3769,7.7181,8.6758
2026-07-23T16:02:08.411,189.4082,7.6594,8.715
2026-07-23T16:02:08.420,189.4102,7.7377,8.6954
2026-07-23T16:02:08.420,189.4102,7.6007,8.715
2026-07-23T16:02:08.428,189.4158,7.7377,8.6758
2026-07-23T16:02:08.453,189.4396,7.6986,8.7542
2026-07-23T16:02:08.459,189.4396,7.7377,8.6758
2026-07-23T16:02:08.467,189.4396,7.6594,8.715
2026-07-23T16:02:08.474,189.4709,7.7377,8.6367
2026-07-23T16:02:08.486,189.4709,7.6202,8.8129
2026-07-23T16:02:08.490,189.4709,7.7377,8.715
2026-07-23T16:02:08.506,189.5025,7.6594,8.7346
2026-07-23T16:02:08.522,189.5025,7.8161,8.7346
2026-07-23T16:02:08.522,189.5159,7.7181,8.715
2026-07-23T16:02:08.522,189.5195,7.7573,8.715
2026-07-23T16:02:08.553,189.5352,7.6594,8.715
2026-07-23T16:02:08.553,189.5352,7.7573,8.715
2026-07-23T16:02:08.567,189.5503,7.5811,8.7542
2026-07-23T16:02:08.577,189.5821,7.6986,8.6563
2026-07-23T16:02:08.586,189.5821,7.6594,8.7542
2026-07-23T16:02:08.586,189.5821,7.8356,8.7933
2026-07-23T16:02:08.605,189.5821,7.7181,8.8325
2026-07-23T16:02:08.628,189.6186,7.7965,8.8129
2026-07-23T16:02:08.628,189.6186,7.6986,8.8521
2026-07-23T16:02:08.633,189.6186,7.7377,8.6954
2026-07-23T16:02:08.633,189.6293,7.6594,8.8325
2026-07-23T16:02:08.664,189.6611,7.6986,8.7542
2026-07-23T16:02:08.669,189.6691,7.679,8.715
2026-07-23T16:02:08.669,189.6763,7.7181,8.6954
2026-07-23T16:02:08.680,189.6783,7.6594,8.7933
2026-07-23T16:02:08.696,189.708,7.7573,8.715
2026-07-23T16:02:08.712,189.708,7.6986,8.7542
2026-07-23T16:02:08.720,189.7124,7.7573,8.715
2026-07-23T16:02:08.729,189.7161,7.7377,8.8325
2026-07-23T16:02:08.729,189.7439,7.8748,8.8129
2026-07-23T16:02:08.753,189.7439,7.7769,8.7933
2026-07-23T16:02:08.759,189.7561,7.8161,8.7542
2026-07-23T16:02:08.767,189.7561,7.8356,8.8521
2026-07-23T16:02:08.776,189.7613,7.8944,8.7933
2026-07-23T16:02:08.791,189.7889,7.8748,8.9108
2026-07-23T16:02:08.795,189.7889,7.9923,8.8717
2026-07-23T16:02:08.807,189.7889,7.8944,8.8717
2026-07-23T16:02:08.812,189.8275,7.9727,8.8912
2026-07-23T16:02:08.823,189.8275,7.8944,8.9891
2026-07-23T16:02:08.840,189.8275,7.8748,8.8717
2026-07-23T16:02:08.840,189.8355,7.8944,8.95
2026-07-23T16:02:08.856,189.8355,7.9727,8.9304
2026-07-23T16:02:08.871,189.869,8.0119,9.0087
2026-07-23T16:02:08.871,189.869,7.9923,8.9696
2026-07-23T16:02:08.886,189.869,7.9727,8.9891
2026-07-23T16:02:08.886,189.8829,8.0119,9.0479
2026-07-23T16:02:08.913,189.9108,7.9727,9.0283
2026-07-23T16:02:08.913,189.9108,8.0314,8.9696
2026-07-23T16:02:08.920,189.9164,7.9335,8.9304
2026-07-23T16:02:08.934,189.9164,8.0902,8.95
2026-07-23T16:02:08.953,189.9464,7.9531,8.95
2026-07-23T16:02:08.953,189.9525,8.0119,8.9304
2026-07-23T16:02:08.967,189.9525,8.0314,8.95
2026-07-23T16:02:08.967,189.9525,8.0314,8.95
2026-07-23T16:02:08.997,189.9782,8.051,9.0479
2026-07-23T16:02:08.997,189.9782,8.0706,9.0087
2026-07-23T16:02:09.003,189.9782,8.1685,8.9891
2026-07-23T16:02:09.013,190.0165,8.0706,9.0087
2026-07-23T16:02:09.029,190.0165,8.0706,9.0479
2026-07-23T16:02:09.029,190.0255,8.0706,9.0675
2026-07-23T16:02:09.045,190.0255,8.0706,9.1066
2026-07-23T16:02:09.053,190.0416,8.0902,9.1262
2026-07-23T16:02:09.067,190.0627,8.1489,9.2045
2026-07-23T16:02:09.076,190.0627,8.1489,9.2045
2026-07-23T16:02:09.092,190.0895,8.2272,9.2241
2026-07-23T16:02:09.092,190.0895,8.1489,9.2633
2026-07-23T16:02:09.108,190.0895,8.1685,9.3024
2026-07-23T16:02:09.113,190.1021,8.1489,9.2828
2026-07-23T16:02:09.128,190.1211,8.1685,9.1849
2026-07-23T16:02:09.128,190.1211,8.1098,9.2437
2026-07-23T16:02:09.140,190.1211,8.2272,9.2828
2026-07-23T16:02:09.157,190.163,8.2272,9.2437
2026-07-23T16:02:09.172,190.163,8.3056,9.2633
2026-07-23T16:02:09.172,190.169,8.3056,9.3416
2026-07-23T16:02:09.188,190.169,8.2468,9.2828
2026-07-23T16:02:09.188,190.2005,8.2468,9.2437
2026-07-23T16:02:09.204,190.2025,8.2272,9.2828
2026-07-23T16:02:09.214,190.2025,8.1489,9.1458
2026-07-23T16:02:09.220,190.2338,8.1881,9.2437
2026-07-23T16:02:09.236,190.2358,8.1685,9.2241
2026-07-23T16:02:09.236,190.2445,8.1881,9.1849
2026-07-23T16:02:09.253,190.2445,8.2077,9.1654
2026-07-23T16:02:09.268,190.2689,8.1881,9.1849
2026-07-23T16:02:09.268,190.2689,8.1685,9.1654
2026-07-23T16:02:09.287,190.2813,8.1685,9.2045
2026-07-23T16:02:09.295,190.2858,8.0902,9.1262
2026-07-23T16:02:09.299,190.3124,8.2664,9.1849
2026-07-23T16:02:09.320,190.3124,8.1685,9.0675
2026-07-23T16:02:09.320,190.3169,8.1489,9.1066
2026-07-23T16:02:09.337,190.3169,8.1489,9.0283
2026-07-23T16:02:09.347,190.3435,8.1293,9.0283
2026-07-23T16:02:09.353,190.3435,8.1098,8.9696
2026-07-23T16:02:09.363,190.3596,8.1489,9.0479
2026-07-23T16:02:09.378,190.3635,8.051,8.9304
2026-07-23T16:02:09.394,190.3916,7.9727,8.9108
2026-07-23T16:02:09.394,190.3916,7.914,8.8129
2026-07-23T16:02:09.394,190.3916,7.8944,8.7737
2026-07-23T16:02:09.414,190.4022,7.9531,8.6367
2026-07-23T16:02:09.426,190.4236,7.8356,8.6758
2026-07-23T16:02:09.426,190.4236,7.8944,8.6171
2026-07-23T16:02:09.442,190.4357,7.8356,8.6367
2026-07-23T16:02:09.453,190.4402,7.8944,8.6367
2026-07-23T16:02:09.474,190.4688,7.914,8.5779
2026-07-23T16:02:09.474,190.4688,7.914,8.6954
2026-07-23T16:02:09.486,190.4714,7.8944,8.715
2026-07-23T16:02:09.491,190.4948,7.9531,8.6758
2026-07-23T16:02:09.506,190.5024,7.8944,8.7933
2026-07-23T16:02:09.515,190.5024,8.0314,8.7933
2026-07-23T16:02:09.522,190.5024,7.914,8.8325
2026-07-23T16:02:09.546,190.5363,8.0314,8.7542
2026-07-23T16:02:09.546,190.5363,8.0706,8.7737
2026-07-23T16:02:09.553,190.5363,8.1098,8.8521
2026-07-23T16:02:09.569,190.569,8.051,8.8521
2026-07-23T16:02:09.569,190.569,8.1293,8.9304
2026-07-23T16:02:09.587,190.569,8.1685,8.7542
2026-07-23T16:02:09.587,190.578,8.2272,8.8325
2026-07-23T16:02:09.601,190.5978,8.2468,8.7542
2026-07-23T16:02:09.615,190.6048,8.4818,8.6954
2026-07-23T16:02:09.629,190.609,8.521,8.6954
2026-07-23T16:02:09.633,190.6368,8.6972,8.6954
2026-07-23T16:02:09.633,190.6368,8.7168,8.715
2026-07-23T16:02:09.659,190.6448,8.8343,8.7933
2026-07-23T16:02:09.664,190.6448,8.8343,8.715
2026-07-23T16:02:09.680,190.6691,8.9713,8.7737
2026-07-23T16:02:09.688,190.6691,9.0888,8.7542
2026-07-23T16:02:09.696,190.6767,9.0888,8.8129
2026-07-23T16:02:09.704,190.6924,9.1084,8.7737
2026-07-23T16:02:09.720,190.7029,9.2259,8.8521
2026-07-23T16:02:09.727,190.7029,9.1671,8.8129
2026-07-23T16:02:09.743,190.7246,9.2454,8.8912
2026-07-23T16:02:09.743,190.7246,9.2846,8.9108
2026-07-23T16:02:09.754,190.7357,9.3825,8.95
2026-07-23T16:02:09.768,190.7649,9.2259,8.95
2026-07-23T16:02:09.775,190.7649,9.3434,9.0283
2026-07-23T16:02:09.786,190.772,9.3434,9.0675
2026-07-23T16:02:09.796,190.7879,9.3434,9.1066
2026-07-23T16:02:09.807,190.804,9.3434,9.1066
2026-07-23T16:02:09.823,190.804,9.3629,9.2241
2026-07-23T16:02:09.823,190.804,9.3629,9.2633
2026-07-23T16:02:09.839,190.8363,9.3629,9.2437
2026-07-23T16:02:09.839,190.8363,9.3825,9.3024
2026-07-23T16:02:09.855,190.8363,9.3434,9.3416
2026-07-23T16:02:09.879,190.87,9.3434,9.3024
2026-07-23T16:02:09.879,190.87,9.4021,9.4003
2026-07-23T16:02:09.887,190.87,9.3238,9.3024
2026-07-23T16:02:09.887,190.9024,9.4608,9.322
2026-07-23T16:02:09.916,190.9024,9.3629,9.2437
2026-07-23T16:02:09.919,190.9024,9.4217,9.3416
2026-07-23T16:02:09.921,190.9155,9.3434,9.3024
2026-07-23T16:02:09.935,190.9392,9.4217,9.3416
2026-07-23T16:02:09.953,190.9473,9.4021,9.2437
2026-07-23T16:02:09.953,190.9473,9.5196,9.3416
2026-07-23T16:02:09.968,190.9473,9.3825,9.3612
2026-07-23T16:02:09.985,190.9795,9.5196,9.3416
2026-07-23T16:02:09.990,190.9795,9.4217,9.2633
2026-07-23T16:02:09.998,190.9795,9.5196,9.3612
2026-07-23T16:02:10.004,191.0108,9.4608,9.3024
2026-07-23T16:02:10.020,191.0169,9.5,9.3024
2026-07-23T16:02:10.020,191.0169,9.4021,9.2828
2026-07-23T16:02:10.030,191.0169,9.4608,9.322
2026-07-23T16:02:10.046,191.043,9.3042,9.3024
2026-07-23T16:02:10.062,191.043,9.4021,9.2828
2026-07-23T16:02:10.068,191.043,9.2846,9.3024
2026-07-23T16:02:10.078,191.0787,9.4413,9.3416
2026-07-23T16:02:10.094,191.0787,9.3042,9.3808
2026-07-23T16:02:10.094,191.0787,9.4804,9.4395
2026-07-23T16:02:10.110,191.0938,9.3238,9.4395
2026-07-23T16:02:10.120,191.1221,9.4804,9.4591
2026-07-23T16:02:10.129,191.1242,9.265,9.4395
2026-07-23T16:02:10.129,191.1242,9.4804,9.4787
2026-07-23T16:02:10.145,191.1539,9.2259,9.4591
2026-07-23T16:02:10.168,191.1539,9.4413,9.4591
2026-07-23T16:02:10.168,191.162,9.1867,9.3416
2026-07-23T16:02:10.175,191.1671,9.4608,9.4591
2026-07-23T16:02:10.175,191.1671,9.1867,9.4003
2026-07-23T16:02:10.205,191.1848,9.4021,9.3808
2026-07-23T16:02:10.205,191.1848,9.1084,9.4982
2026-07-23T16:02:10.218,191.1848,9.3238,9.4003
2026-07-23T16:02:10.220,191.2171,9.128,9.3416
2026-07-23T16:02:10.236,191.2171,9.265,9.4003
2026-07-23T16:02:10.236,191.2358,9.0888,9.2828
2026-07-23T16:02:10.254,191.2637,9.2454,9.2828
2026-07-23T16:02:10.268,191.2673,9.128,9.3024
2026-07-23T16:02:10.268,191.2693,9.3629,9.4591
2026-07-23T16:02:10.288,191.2693,9.1867,9.3416
2026-07-23T16:02:10.299,191.3022,9.3629,9.4003
2026-07-23T16:02:10.299,191.3022,9.2063,9.4003
2026-07-23T16:02:10.318,191.3022,9.3629,9.4003
2026-07-23T16:02:10.332,191.336,9.3434,9.4003
2026-07-23T16:02:10.346,191.3434,9.4804,9.4591
2026-07-23T16:02:10.346,191.3434,9.3629,9.4003
2026-07-23T16:02:10.362,191.3434,9.5196,9.4199
2026-07-23T16:02:10.362,191.3754,9.4021,9.3808
2026-07-23T16:02:10.387,191.3754,9.5587,9.4787
2026-07-23T16:02:10.387,191.3754,9.4413,9.3808
2026-07-23T16:02:10.394,191.3935,9.5783,9.4199
2026-07-23T16:02:10.394,191.4237,9.3629,9.3612
2026-07-23T16:02:10.426,191.4237,9.5783,9.3808
2026-07-23T16:02:10.426,191.4237,9.3825,9.4003
2026-07-23T16:02:10.426,191.4389,9.5783,9.4395
2026-07-23T16:02:10.444,191.4389,9.5196,9.4395
2026-07-23T16:02:10.475,191.4708,9.9895,9.4395
2026-07-23T16:02:10.475,191.4708,9.4413,9.4787
2026-07-23T16:02:10.475,191.4708,9.5783,9.5961
2026-07-23T16:02:10.487,191.4708,9.4217,9.5178
2026-07-23T16:02:10.490,191.5025,9.5587,9.5178
2026-07-23T16:02:10.505,191.5175,9.4217,9.5766
2026-07-23T16:02:10.505,191.5175,9.6762,9.5766
2026-07-23T16:02:10.522,191.5175,9.5196,9.6157
2026-07-23T16:02:10.536,191.549,9.6566,9.6549
2026-07-23T16:02:10.536,191.549,9.4804,9.6353
2026-07-23T16:02:10.553,191.5694,9.6371,9.7136
2026-07-23T16:02:10.568,191.5694,9.4608,9.7528
2026-07-23T16:02:10.568,191.5694,9.6371,9.7136
2026-07-23T16:02:10.588,191.6025,9.5,9.7332
2026-07-23T16:02:10.600,191.6126,9.6371,9.694
2026-07-23T16:02:10.600,191.6177,9.4021,9.6549
2026-07-23T16:02:10.615,191.6177,9.6175,9.6353
2026-07-23T16:02:10.620,191.6283,9.4021,9.6157
2026-07-23T16:02:10.632,191.6703,9.6566,9.5374
2026-07-23T16:02:10.653,191.6703,9.4608,9.5766
2026-07-23T16:02:10.653,191.6763,9.6958,9.557
2026-07-23T16:02:10.668,191.6763,9.5587,9.6549
2026-07-23T16:02:10.679,191.6763,9.7741,9.6157
2026-07-23T16:02:10.687,191.7241,9.5587,9.6353
2026-07-23T16:02:10.713,191.7241,9.7545,9.6157
2026-07-23T16:02:10.713,191.7241,9.5783,9.6745
2026-07-23T16:02:10.720,191.7357,9.735,9.6353
2026-07-23T16:02:10.727,191.7408,9.6762,9.7528
2026-07-23T16:02:10.727,191.7458,9.7545,9.694
2026-07-23T16:02:10.743,191.7458,9.7741,9.7136
2026-07-23T16:02:10.755,191.772,9.7937,9.7332
2026-07-23T16:02:10.775,191.772,9.6371,9.6353
2026-07-23T16:02:10.775,191.7879,9.8525,9.5961
2026-07-23T16:02:10.787,191.7879,9.6566,9.6353
2026-07-23T16:02:10.797,191.7879,9.8525,9.5961
2026-07-23T16:02:10.807,191.8293,9.6762,9.7136
2026-07-23T16:02:10.823,191.8293,9.7937,9.6157
2026-07-23T16:02:10.823,191.8359,9.6762,9.694
2026-07-23T16:02:10.823,191.8359,9.7741,9.6157
2026-07-23T16:02:10.839,191.8359,9.5979,9.6549
2026-07-23T16:02:10.854,191.871,9.735,9.5766
2026-07-23T16:02:10.870,191.871,9.5979,9.6157
2026-07-23T16:02:10.880,191.871,9.735,9.6157
2026-07-23T16:02:10.887,191.883,9.6566,9.7136
2026-07-23T16:02:10.887,191.883,9.7937,9.5766
2026-07-23T16:02:10.903,191.9177,9.7545,9.6549
2026-07-23T16:02:10.922,191.9177,9.8329,9.694
2026-07-23T16:02:10.922,191.9311,9.7741,9.694
2026-07-23T16:02:10.934,191.9358,9.8329,9.6549
2026-07-23T16:02:10.968,191.9629,9.735,9.7528
2026-07-23T16:02:10.968,191.9691,9.7741,9.6745
2026-07-23T16:02:10.968,191.9691,9.7154,9.6745
2026-07-23T16:02:10.968,191.9702,9.7937,9.6157
2026-07-23T16:02:10.987,191.9702,9.8329,9.7136
2026-07-23T16:02:10.999,192.0025,9.8133,9.6549
2026-07-23T16:02:11.014,192.0108,9.7937,9.7528
2026-07-23T16:02:11.014,192.0108,9.8133,9.7136
2026-07-23T16:02:11.030,192.0175,9.7545,9.7528
2026-07-23T16:02:11.030,192.0426,9.7545,9.6549
2026-07-23T16:02:11.047,192.0426,9.7741,9.7136
2026-07-23T16:02:11.062,192.0426,9.7741,9.6353
2026-07-23T16:02:11.068,192.0586,9.8133,9.694
2026-07-23T16:02:11.078,192.0798,9.6958,9.6157
2026-07-23T16:02:11.089,192.09,9.7545,9.5178
2026-07-23T16:02:11.093,192.09,9.7545,9.6353
2026-07-23T16:02:11.093,192.09,9.8133,9.7136
2026-07-23T16:02:11.121,192.1237,9.8525,9.694
2026-07-23T16:02:11.131,192.1237,10.0091,9.7528
2026-07-23T16:02:11.141,192.1356,9.9308,9.7332
2026-07-23T16:02:11.153,192.1374,9.9895,9.7528
2026-07-23T16:02:11.153,192.1374,9.9112,9.7919
2026-07-23T16:02:11.172,192.1705,9.8916,9.8311
2026-07-23T16:02:11.175,192.1705,9.9308,9.7528
2026-07-23T16:02:11.188,192.1705,9.9895,9.7919
2026-07-23T16:02:11.204,192.2047,10.0091,9.8115
2026-07-23T16:02:11.214,192.2047,10.0483,9.8507
2026-07-23T16:02:11.214,192.2047,10.0483,9.8899
2026-07-23T16:02:11.221,192.2177,10.0287,9.9486
2026-07-23T16:02:11.235,192.2359,10.0287,9.8703
2026-07-23T16:02:11.251,192.2359,10.0874,9.9486
2026-07-23T16:02:11.256,192.2495,10.107,9.929
2026-07-23T16:02:11.268,192.2495,10.2636,9.9682
2026-07-23T16:02:11.268,192.2707,10.2049,9.9486
2026-07-23T16:02:11.287,192.2802,10.2441,9.9486
2026-07-23T16:02:11.300,192.2883,10.2832,10.0269
2026-07-23T16:02:11.315,192.3176,10.342,9.9878
2026-07-23T16:02:11.321,192.3176,10.342,10.0465
2026-07-23T16:02:11.331,192.3176,10.3224,10.0857
2026-07-23T16:02:11.339,192.3176,10.4203,10.0857
2026-07-23T16:02:11.353,192.3439,10.479,10.0465
2026-07-23T16:02:11.363,192.3439,10.3811,10.0857
2026-07-23T16:02:11.368,192.3599,10.4595,10.0465
2026-07-23T16:02:11.379,192.3599,10.479,9.9682
2026-07-23T16:02:11.395,192.3918,10.5574,10.0465
2026-07-23T16:02:11.395,192.3918,10.5378,10.0269
2026-07-23T16:02:11.411,192.4024,10.5965,10.0661
2026-07-23T16:02:11.411,192.4076,10.5574,10.0857
2026-07-23T16:02:11.427,192.4361,10.5378,9.9878
2026-07-23T16:02:11.443,192.4412,10.5378,10.0269
2026-07-23T16:02:11.443,192.4412,10.5574,9.9682
2026-07-23T16:02:11.458,192.4412,10.4595,10.0465
2026-07-23T16:02:11.469,192.4716,10.5769,10.1052
2026-07-23T16:02:11.474,192.4716,10.6357,10.164
2026-07-23T16:02:11.487,192.4716,10.7727,10.1836
2026-07-23T16:02:11.492,192.4875,10.7532,10.2031
2026-07-23T16:02:11.506,192.5035,10.8119,10.1248
2026-07-23T16:02:11.522,192.5181,10.7727,10.2227
2026-07-23T16:02:11.522,192.5191,10.7727,10.0857
2026-07-23T16:02:11.538,192.5191,10.7336,10.2031
2026-07-23T16:02:11.548,192.551,10.8315,10.1444
2026-07-23T16:02:11.554,192.551,10.7923,10.1444
2026-07-23T16:02:11.569,192.551,10.8511,10.0857
2026-07-23T16:02:11.570,192.5669,10.8315,10.1444
2026-07-23T16:02:11.589,192.5829,10.8902,10.1052
2026-07-23T16:02:11.589,192.5829,10.8119,10.1444
2026-07-23T16:02:11.602,192.5989,10.7923,10.0857
2026-07-23T16:02:11.618,192.6027,10.7727,10.1444
2026-07-23T16:02:11.623,192.6314,10.8511,10.164
2026-07-23T16:02:11.634,192.6359,10.8315,10.2031
2026-07-23T16:02:11.650,192.6359,10.9294,10.2031
2026-07-23T16:02:11.653,192.6634,10.8707,10.2423
2026-07-23T16:02:11.673,192.6721,10.9294,10.2031
2026-07-23T16:02:11.673,192.6721,10.8119,10.2227
2026-07-23T16:02:11.687,192.6721,10.8511,10.164
2026-07-23T16:02:11.687,192.6785,10.714,10.2227
2026-07-23T16:02:11.714,192.7101,10.7727,10.164
2026-07-23T16:02:11.714,192.7101,10.714,10.2619
2026-07-23T16:02:11.729,192.7101,10.7532,10.1836
2026-07-23T16:02:11.729,192.736,10.6748,10.1836
2026-07-23T16:02:11.745,192.7421,10.7532,10.164
2026-07-23T16:02:11.756,192.7467,10.714,10.2031
2026-07-23T16:02:11.769,192.7467,10.7336,10.164
2026-07-23T16:02:11.777,192.7739,10.7336,10.2227
2026-07-23T16:02:11.787,192.7739,10.7336,10.2423
2026-07-23T16:02:11.798,192.7739,10.8902,10.2031
2026-07-23T16:02:11.810,192.806,10.7923,10.2031
2026-07-23T16:02:11.820,192.806,10.8119,10.2423
2026-07-23T16:02:11.825,192.8187,11.1448,10.2227
2026-07-23T16:02:11.841,192.8378,10.7727,10.2423
2026-07-23T16:02:11.853,192.8378,10.7532,10.164
2026-07-23T16:02:11.857,192.8378,10.714,10.2227
2026-07-23T16:02:11.857,192.8536,10.6748,10.1836
2026-07-23T16:02:11.881,192.8729,10.8315,10.164
2026-07-23T16:02:11.889,192.8854,10.6944,10.2031
2026-07-23T16:02:11.889,192.8869,10.8902,10.1444
2026-07-23T16:02:11.904,192.9141,10.8511,10.1444
2026-07-23T16:02:11.904,192.9186,10.9294,10.2619
2026-07-23T16:02:11.924,192.9186,10.9294,10.2619
2026-07-23T16:02:11.938,192.9186,10.9294,10.4185
2026-07-23T16:02:11.938,192.9493,10.8707,10.3206
2026-07-23T16:02:11.953,192.9553,10.8511,10.399
2026-07-23T16:02:11.969,192.9553,10.8119,10.399
2026-07-23T16:02:11.969,192.9673,10.8315,10.399
2026-07-23T16:02:11.987,192.9806,10.8119,10.3794
2026-07-23T16:02:12.000,192.9806,10.8707,10.4969
2026-07-23T16:02:12.006,192.9974,10.8707,10.3598
2026-07-23T16:02:12.020,193.0189,10.9686,10.4773
2026-07-23T16:02:12.031,193.0279,10.9686,10.4577
2026-07-23T16:02:12.031,193.0279,10.9294,10.5164
2026-07-23T16:02:12.048,193.0279,10.8511,10.4969
2026-07-23T16:02:12.063,193.0597,10.9098,10.6535
2026-07-23T16:02:12.070,193.0597,10.8902,10.5556
2026-07-23T16:02:12.079,193.0597,10.8707,10.4969
2026-07-23T16:02:12.094,193.0918,10.7923,10.4185
2026-07-23T16:02:12.094,193.0918,10.7923,10.4185
2026-07-23T16:02:12.111,193.0918,10.7923,10.3794
2026-07-23T16:02:12.111,193.1024,10.9098,10.2815
2026-07-23T16:02:12.132,193.1361,10.8315,10.4381
2026-07-23T16:02:12.143,193.1397,10.9294,10.536
2026-07-23T16:02:12.143,193.1397,10.9294,10.5164
2026-07-23T16:02:12.159,193.1397,10.9686,10.5752
2026-07-23T16:02:12.175,193.1743,10.9881,10.5556
2026-07-23T16:02:12.175,193.1743,11.0077,10.5752
2026-07-23T16:02:12.190,193.1743,10.9686,10.6339
2026-07-23T16:02:12.190,193.1878,11.1056,10.5556
2026-07-23T16:02:12.206,193.2056,11.1056,10.6339
2026-07-23T16:02:12.225,193.2194,11.0469,10.5556
2026-07-23T16:02:12.225,193.2194,11.0273,10.536
2026-07-23T16:02:12.225,193.2249,11.0665,10.4773
2026-07-23T16:02:12.239,193.2508,11.0665,10.4969
2026-07-23T16:02:12.256,193.2508,11.0469,10.4969
2026-07-23T16:02:12.270,193.2508,11.0273,10.5556
2026-07-23T16:02:12.279,193.2694,11.0273,10.4381
2026-07-23T16:02:12.290,193.2982,11.0273,10.5556
2026-07-23T16:02:12.302,193.3046,11.0469,10.5556
2026-07-23T16:02:12.302,193.3078,11.0077,10.6731
2026-07-23T16:02:12.320,193.3139,11.086,10.6731
2026-07-23T16:02:12.333,193.3436,11.0665,10.6339
2026-07-23T16:02:12.340,193.3454,11.0665,10.7122
2026-07-23T16:02:12.355,193.3491,11.0273,10.5752
2026-07-23T16:02:12.359,193.3491,11.0077,10.4969
2026-07-23T16:02:12.365,193.3801,10.9881,10.5556
2026-07-23T16:02:12.387,193.3801,10.9686,10.4969
2026-07-23T16:02:12.387,193.3862,11.0469,10.5752
2026-07-23T16:02:12.396,193.3862,10.9881,10.5164
2026-07-23T16:02:12.428,193.4144,11.0273,10.5164
2026-07-23T16:02:12.428,193.4195,11.0077,10.5752
2026-07-23T16:02:12.431,193.4195,11.1056,10.5556
2026-07-23T16:02:12.437,193.4236,11.0469,10.5556
2026-07-23T16:02:12.460,193.4389,11.1252,10.6143
2026-07-23T16:02:12.460,193.4546,11.0469,10.5556
2026-07-23T16:02:12.470,193.4561,11.1252,10.5752
2026-07-23T16:02:12.474,193.4615,10.9686,10.5164
2026-07-23T16:02:12.487,193.4863,11.0273,10.4773
2026-07-23T16:02:12.490,193.4863,10.8315,10.4381
2026-07-23T16:02:12.507,193.4863,10.9686,10.4773
2026-07-23T16:02:12.520,193.5194,10.8707,10.4381
2026-07-23T16:02:12.526,193.5194,10.9686,10.5164
2026-07-23T16:02:12.537,193.5194,10.8315,10.4381
2026-07-23T16:02:12.554,193.5574,11.0273,10.4577
2026-07-23T16:02:12.554,193.5574,11.0273,10.5556
2026-07-23T16:02:12.570,193.566,11.2427,10.4969
2026-07-23T16:02:12.570,193.5691,11.086,10.4773
2026-07-23T16:02:12.590,193.5814,11.1839,10.5164
2026-07-23T16:02:12.601,193.5814,11.0273,10.4577
2026-07-23T16:02:12.608,193.5994,11.2427,10.5556
2026-07-23T16:02:12.620,193.6024,11.1644,10.4381
2026-07-23T16:02:12.632,193.6287,11.2427,10.4773
2026-07-23T16:02:12.632,193.6287,10.9294,10.5556
2026-07-23T16:02:12.650,193.6359,11.1644,10.4773
2026-07-23T16:02:12.653,193.6646,10.8511,10.4577
2026-07-23T16:02:12.667,193.6692,11.1056,10.4577
2026-07-23T16:02:12.679,193.6692,10.9294,10.5164
2026-07-23T16:02:12.695,193.676,11.2231,10.4773
2026-07-23T16:02:12.695,193.7027,11.0273,10.4969
2026-07-23T16:02:12.715,193.7079,11.2427,10.4773
2026-07-23T16:02:12.720,193.7079,11.1839,10.4773
2026-07-23T16:02:12.727,193.7079,11.2623,10.5556
2026-07-23T16:02:12.743,193.7393,11.1056,10.4969
2026-07-23T16:02:12.743,193.7393,11.2818,10.5556
2026-07-23T16:02:12.759,193.7482,11.1448,10.4969
2026-07-23T16:02:12.770,193.7528,11.3798,10.5752
2026-07-23T16:02:12.776,193.7764,11.2427,10.7318
2026-07-23T16:02:12.790,193.7764,11.4189,10.6927
2026-07-23T16:02:12.799,193.7897,11.1448,10.6927
2026-07-23T16:02:12.806,193.8195,11.3602,10.8493
2026-07-23T16:02:12.827,193.8231,11.1644,10.7122
2026-07-23T16:02:12.827,193.8231,11.321,10.8493
2026-07-23T16:02:12.841,193.8313,11.1839,10.7514
2026-07-23T16:02:12.841,193.8498,11.4189,10.8101
2026-07-23T16:02:12.866,193.8624,11.2818,10.7906
2026-07-23T16:02:12.866,193.8624,11.4189,10.8493
2026-07-23T16:02:12.882,193.8677,11.2427,10.8297
2026-07-23T16:02:12.886,193.8982,11.4777,10.908
2026-07-23T16:02:12.901,193.8982,11.3406,10.8101
2026-07-23T16:02:12.901,193.9026,11.5951,10.8297
2026-07-23T16:02:12.918,193.9129,11.556,10.8689
2026-07-23T16:02:12.933,193.9359,11.693,10.8689
2026-07-23T16:02:12.933,193.9467,11.5756,10.8885
2026-07-23T16:02:12.949,193.9467,11.7714,11.006
2026-07-23T16:02:12.953,193.9517,11.4581,11.0451
2026-07-23T16:02:12.970,193.9771,11.5951,10.9472
2026-07-23T16:02:12.987,193.9793,11.3602,11.0255
2026-07-23T16:02:12.987,193.9793,11.5168,10.8885
2026-07-23T16:02:13.003,193.9793,11.2623,11.006
2026-07-23T16:02:13.007,193.9793,11.3993,10.908
2026-07-23T16:02:13.020,194.0074,11.2231,10.9472
2026-07-23T16:02:13.030,194.0074,11.3798,10.8885
2026-07-23T16:02:13.030,194.0198,11.1839,10.9276
2026-07-23T16:02:13.053,194.0468,11.4189,10.8689
2026-07-23T16:02:13.058,194.0488,11.2818,10.8493
2026-07-23T16:02:13.071,194.0508,11.3602,10.7514
2026-07-23T16:02:13.074,194.0816,11.1448,10.8689
2026-07-23T16:02:13.091,194.0844,11.2623,10.771
2026-07-23T16:02:13.100,194.0886,11.0077,10.7906
2026-07-23T16:02:13.111,194.1199,11.1839,10.771
2026-07-23T16:02:13.122,194.1199,11.0665,10.8885
2026-07-23T16:02:13.130,194.1234,11.321,10.8885
2026-07-23T16:02:13.139,194.1234,11.2623,10.9276
2026-07-23T16:02:13.153,194.1552,11.3014,10.908
2026-07-23T16:02:13.153,194.1552,11.1448,10.8493
2026-07-23T16:02:13.153,194.1609,11.2623,10.8689
2026-07-23T16:02:13.174,194.1653,11.0665,10.8885
2026-07-23T16:02:13.187,194.1908,11.1252,10.7514
2026-07-23T16:02:13.201,194.1985,10.949,10.771
2026-07-23T16:02:13.212,194.2017,11.0273,10.8101
2026-07-23T16:02:13.220,194.2334,10.8511,10.8101
2026-07-23T16:02:13.232,194.2384,10.8902,10.8101
2026-07-23T16:02:13.242,194.2418,10.8119,10.8101
2026-07-23T16:02:13.249,194.2465,10.8315,10.7906
2026-07-23T16:02:13.258,194.2485,10.8119,10.8689
2026-07-23T16:02:13.279,194.2781,10.7336,10.8493
2026-07-23T16:02:13.279,194.2802,10.6944,10.9472
2026-07-23T16:02:13.293,194.2822,10.6748,10.9668
2026-07-23T16:02:13.299,194.2822,10.6944,11.1626
2026-07-23T16:02:13.311,194.3085,10.714,11.2213
2026-07-23T16:02:13.320,194.3201,10.6944,11.3388
2026-07-23T16:02:13.331,194.3233,10.714,11.2801
2026-07-23T16:02:13.333,194.3233,10.6357,11.5542
2026-07-23T16:02:13.343,194.3553,10.6748,11.5542
2026-07-23T16:02:13.359,194.3553,10.5769,11.7109
2026-07-23T16:02:13.374,194.3553,10.6553,11.8479
2026-07-23T16:02:13.383,194.3553,10.5769,11.8871
2026-07-23T16:02:13.390,194.3868,10.6161,11.9458
2026-07-23T16:02:13.390,194.3868,10.5965,11.985
2026-07-23T16:02:13.406,194.3868,10.5769,12.0633
2026-07-23T16:02:13.438,194.4202,10.5182,12.1612
2026-07-23T16:02:13.438,194.4275,10.4595,12.2395
2026-07-23T16:02:13.438,194.4275,10.4007,12.3766
2026-07-23T16:02:13.452,194.4339,10.3811,12.2983
2026-07-23T16:02:13.453,194.4571,10.3028,12.3374
2026-07-23T16:02:13.471,194.4571,10.342,12.2591
2026-07-23T16:02:13.478,194.4656,10.2245,12.2787
2026-07-23T16:02:13.487,194.4871,10.2832,12.357
2026-07-23T16:02:13.500,194.4871,10.2832,12.3962
2026-07-23T16:02:13.508,194.4991,10.2636,12.5137
2026-07-23T16:02:13.516,194.5027,10.1657,12.592
2026-07-23T16:02:13.530,194.532,10.1853,12.4941
2026-07-23T16:02:13.550,194.5394,10.107,12.4745
2026-07-23T16:02:13.550,194.5394,10.1853,12.3962
2026-07-23T16:02:13.564,194.5691,10.0678,12.2983
2026-07-23T16:02:13.571,194.5691,10.0483,12.3179
2026-07-23T16:02:13.583,194.5767,10.0483,12.1416
2026-07-23T16:02:13.590,194.5767,10.107,12.1612
2026-07-23T16:02:13.596,194.6026,9.9895,12.1221
2026-07-23T16:02:13.611,194.6085,10.0287,12.0829
2026-07-23T16:02:13.618,194.6114,9.9895,11.9654
2026-07-23T16:02:13.630,194.6159,10.0091,11.9654
2026-07-23T16:02:13.633,194.6397,9.9504,11.9067
2026-07-23T16:02:13.643,194.6397,9.9504,11.8871
2026-07-23T16:02:13.662,194.6555,9.9504,11.7892
2026-07-23T16:02:13.667,194.6796,9.9308,11.9067
2026-07-23T16:02:13.679,194.6796,9.8133,11.8871
2026-07-23T16:02:13.690,194.6884,9.8329,11.9262
2026-07-23T16:02:13.706,194.6884,9.735,11.8871
2026-07-23T16:02:13.706,194.6884,9.735,11.8675
2026-07-23T16:02:13.730,194.7209,9.6566,11.9262
2026-07-23T16:02:13.730,194.7209,9.6566,12.0046
2026-07-23T16:02:13.739,194.7299,9.5979,11.8479
2026-07-23T16:02:13.739,194.7353,9.6762,11.9654
2026-07-23T16:02:13.763,194.7511,9.6566,11.9067
2026-07-23T16:02:13.772,194.7645,9.6762,11.985
2026-07-23T16:02:13.781,194.7711,9.6762,11.9458
2026-07-23T16:02:13.787,194.7908,9.7545,12.0046
2026-07-23T16:02:13.787,194.7908,9.5979,12.0046
2026-07-23T16:02:13.802,194.8027,9.6566,12.0829
2026-07-23T16:02:13.822,194.8055,9.6566,12.0242
2026-07-23T16:02:13.834,194.8305,9.8133,12.0829
2026-07-23T16:02:13.842,194.8325,9.6566,12.1025
2026-07-23T16:02:13.853,194.8358,9.8916,12.1612
2026-07-23T16:02:13.856,194.8392,9.735,12.2395
2026-07-23T16:02:13.872,194.866,9.9112,12.4158
2026-07-23T16:02:13.887,194.8706,9.7545,12.4549
2026-07-23T16:02:13.890,194.8706,9.8133,12.4941
2026-07-23T16:02:13.899,194.8933,9.7154,12.4158
2026-07-23T16:02:13.899,194.8933,9.9112,12.3766
2026-07-23T16:02:13.921,194.905,9.6762,12.3962
2026-07-23T16:02:13.933,194.9274,9.8329,12.2983
2026-07-23T16:02:13.933,194.9313,9.6958,12.3374
2026-07-23T16:02:13.944,194.936,9.8525,12.2983
2026-07-23T16:02:13.958,194.94,9.7154,12.2395
2026-07-23T16:02:13.975,194.9577,9.9699,12.3179
2026-07-23T16:02:13.978,194.9577,9.8133,12.2591
2026-07-23T16:02:13.991,194.9725,9.9895,12.2591
2026-07-23T16:02:13.994,194.9956,9.9112,12.2591
2026-07-23T16:02:14.008,194.9956,10.0483,12.2787
2026-07-23T16:02:14.023,195.0028,9.8525,12.2591
2026-07-23T16:02:14.031,195.0206,10.0091,12.4353
2026-07-23T16:02:14.038,195.0206,9.9112,12.4158
2026-07-23T16:02:14.050,195.0343,10.2049,12.3962
2026-07-23T16:02:14.071,195.0611,10.1853,12.3766
2026-07-23T16:02:14.071,195.0611,10.342,12.4158
2026-07-23T16:02:14.071,195.0659,10.2636,12.4158
2026-07-23T16:02:14.090,195.0883,10.4203,12.4941
2026-07-23T16:02:14.101,195.0913,10.4203,12.4549
2026-07-23T16:02:14.112,195.0967,10.5574,12.5137
2026-07-23T16:02:14.120,195.0967,10.479,12.592
2026-07-23T16:02:14.133,195.1242,10.6357,12.5137
2026-07-23T16:02:14.139,195.1272,10.5378,12.4941
2026-07-23T16:02:14.153,195.1302,10.6357,12.4745
2026-07-23T16:02:14.153,195.1525,10.5378,12.5724
2026-07-23T16:02:14.175,195.1616,10.6553,12.4941
2026-07-23T16:02:14.181,195.1616,10.5965,12.5528
2026-07-23T16:02:14.187,195.1914,10.6748,12.6507
2026-07-23T16:02:14.195,195.1914,10.5574,12.5333
2026-07-23T16:02:14.212,195.1955,10.6748,12.5333
2026-07-23T16:02:14.233,195.2235,10.4986,12.5137
2026-07-23T16:02:14.233,195.2235,10.6161,12.4158
2026-07-23T16:02:14.242,195.2235,10.5182,12.5137
2026-07-23T16:02:14.246,195.2361,10.6161,12.5528
2026-07-23T16:02:14.259,195.2539,10.5574,12.6312
2026-07-23T16:02:14.274,195.2539,10.7532,12.5333
2026-07-23T16:02:14.274,195.2693,10.6944,12.6312
2026-07-23T16:02:14.289,195.2693,10.8315,12.5724
2026-07-23T16:02:14.305,195.2913,10.7336,12.6507
2026-07-23T16:02:14.305,195.301,10.7727,12.6312
2026-07-23T16:02:14.320,195.3025,10.714,12.6703
2026-07-23T16:02:14.342,195.3357,10.8119,12.5137
2026-07-23T16:02:14.342,195.3372,10.6748,12.5724
2026-07-23T16:02:14.352,195.3403,10.7923,12.5137
2026-07-23T16:02:14.353,195.3403,10.6944,12.5724
2026-07-23T16:02:14.372,195.3732,10.8707,12.5137
2026-07-23T16:02:14.383,195.3747,10.714,12.5724
2026-07-23T16:02:14.391,195.3795,10.7727,12.592
2026-07-23T16:02:14.404,195.4027,10.6944,12.5333
2026-07-23T16:02:14.415,195.4112,10.6944,12.5528
2026-07-23T16:02:14.423,195.4154,10.6944,12.4941
2026-07-23T16:02:14.430,195.4165,10.7727,12.4353
2026-07-23T16:02:14.453,195.4437,10.7727,12.4941
2026-07-23T16:02:14.453,195.4437,10.7923,12.4941
2026-07-23T16:02:14.462,195.4437,10.8119,12.592
2026-07-23T16:02:14.472,195.4437,10.7727,12.5137
2026-07-23T16:02:14.487,195.4829,10.8119,12.5724
2026-07-23T16:02:14.487,195.4829,10.7727,12.6899
2026-07-23T16:02:14.494,195.4829,10.8707,12.7878
2026-07-23T16:02:14.509,195.5065,10.8707,12.8074
2026-07-23T16:02:14.520,195.5065,10.949,12.9836
2026-07-23T16:02:14.525,195.521,10.8315,12.9836
2026-07-23T16:02:14.540,195.521,10.8511,12.9836
2026-07-23T16:02:14.557,195.5533,10.7923,12.9836
2026-07-23T16:02:14.557,195.5533,10.7923,12.9836
2026-07-23T16:02:14.572,195.5533,10.7727,12.964
2026-07-23T16:02:14.572,195.5692,10.8119,13.0032
2026-07-23T16:02:14.588,195.5842,10.8511,12.9836
2026-07-23T16:02:14.604,195.6027,11.0077,13.1403
2026-07-23T16:02:14.604,195.6027,10.9881,13.1598
2026-07-23T16:02:14.620,195.6115,11.1448,13.2382
2026-07-23T16:02:14.634,195.6379,11.0469,13.2577
2026-07-23T16:02:14.635,195.6379,11.2035,13.2969
2026-07-23T16:02:14.653,195.6379,11.1056,13.434
2026-07-23T16:02:14.662,195.6473,11.1644,13.434
2026-07-23T16:02:14.672,195.6694,11.1252,13.434
2026-07-23T16:02:14.682,195.6694,11.2623,13.434
2026-07-23T16:02:14.689,195.6836,11.321,13.3556
2026-07-23T16:02:14.698,195.6893,11.556,13.434
2026-07-23T16:02:14.698,195.7112,11.5951,13.5515
2026-07-23T16:02:14.720,195.7112,11.693,13.5906
2026-07-23T16:02:14.739,195.7212,11.6343,13.7473
2026-07-23T16:02:14.743,195.7212,11.7322,13.7668
2026-07-23T16:02:14.754,195.7499,11.6735,13.8647
2026-07-23T16:02:14.762,195.7499,11.8693,13.8647
2026-07-23T16:02:14.762,195.7499,11.8105,13.7473
2026-07-23T16:02:14.787,195.784,11.9084,13.6689
2026-07-23T16:02:14.793,195.7878,11.7322,13.6102
2026-07-23T16:02:14.801,195.7895,11.7518,13.5123
2026-07-23T16:02:14.809,195.792,11.6735,13.5123
2026-07-23T16:02:14.824,195.8213,11.7714,13.5123
2026-07-23T16:02:14.824,195.8213,11.7714,13.5906
2026-07-23T16:02:14.840,195.8213,11.928,13.6102
2026-07-23T16:02:14.854,195.8529,11.8497,13.7864
2026-07-23T16:02:14.857,195.8529,11.9672,13.7668
2026-07-23T16:02:14.872,195.8529,11.9476,13.806
2026-07-23T16:02:14.872,195.8529,11.9868,13.7864
2026-07-23T16:02:14.888,195.8843,11.9672,13.7864
2026-07-23T16:02:14.888,195.8905,11.9672,13.7473
2026-07-23T16:02:14.904,195.8905,11.8889,13.7668
2026-07-23T16:02:14.920,195.9212,11.8889,13.6102
2026-07-23T16:02:14.926,195.9212,11.8301,13.6102
2026-07-23T16:02:14.941,195.9212,11.8693,13.4927
2026-07-23T16:02:14.941,195.9317,11.8301,13.571
