wall_time,elapsed_s,F1_N,F2_N
2026-07-21T15:53:38.603,0.0788,0.1384,0.0474
2026-07-21T15:53:38.603,0.0788,0.0797,0.0865
2026-07-21T15:53:38.619,0.0965,0.0993,0.0865
2026-07-21T15:53:38.638,0.1012,0.1189,0.0082
2026-07-21T15:53:38.649,0.1106,0.0797,0.067
2026-07-21T15:53:38.651,0.1197,0.1776,0.067
2026-07-21T15:53:38.666,0.1264,0.1384,0.0082
2026-07-21T15:53:38.666,0.1324,0.0797,0.0278
2026-07-21T15:53:38.687,0.1324,0.0797,0.0865
2026-07-21T15:53:38.697,0.1579,0.0993,0.0474
2026-07-21T15:53:38.697,0.1579,0.0601,0.1061
2026-07-21T15:53:38.720,0.1579,0.0993,-0.0309
2026-07-21T15:53:38.729,0.1694,0.0993,0.067
2026-07-21T15:53:38.738,0.1737,0.0993,0.067
2026-07-21T15:53:38.749,0.1737,0.0797,0.0082
2026-07-21T15:53:38.751,0.1737,0.0993,0.0865
2026-07-21T15:53:38.770,0.2057,0.0405,0.0474
2026-07-21T15:53:38.776,0.2088,0.158,0.0082
2026-07-21T15:53:38.788,0.2088,0.0405,0.0865
2026-07-21T15:53:38.797,0.218,0.158,-0.0114
2026-07-21T15:53:38.811,0.2374,0.021,0.0278
2026-07-21T15:53:38.811,0.2374,0.0405,0.0082
2026-07-21T15:53:38.827,0.2374,0.0601,0.0865
2026-07-21T15:53:38.838,0.2374,0.0601,0.0865
2026-07-21T15:53:38.849,0.2535,0.0993,0.0278
2026-07-21T15:53:38.856,0.2535,0.0601,0.0474
2026-07-21T15:53:38.866,0.2848,0.0601,0.0278
2026-07-21T15:53:38.872,0.2848,0.2168,0.067
2026-07-21T15:53:38.888,0.2976,0.7259,0.204
2026-07-21T15:53:38.903,0.3199,2.0574,0.4586
2026-07-21T15:53:38.903,0.3199,4.6224,0.9677
2026-07-21T15:53:38.916,0.3325,9.733,2.3188
2026-07-21T15:53:38.935,0.3498,18.3877,3.8852
2026-07-21T15:53:38.949,0.3681,30.0774,6.6069
2026-07-21T15:53:38.951,0.3681,42.7658,10.2294
2026-07-21T15:53:38.956,0.3801,53.3785,13.3427
2026-07-21T15:53:38.968,0.402,62.2094,15.3008
2026-07-21T15:53:38.968,0.4091,70.6096,16.6715
2026-07-21T15:53:38.987,0.4156,78.3048,17.8071
2026-07-21T15:53:38.999,0.4176,84.5903,18.7078
2026-07-21T15:53:38.999,0.4419,89.7792,19.589
2026-07-21T15:53:39.020,0.4442,94.1848,20.568
2026-07-21T15:53:39.028,0.4442,97.7681,21.3708
2026-07-21T15:53:39.041,0.4442,101.0968,22.2715
2026-07-21T15:53:39.050,0.475,104.1319,22.996
2026-07-21T15:53:39.058,0.4816,106.2857,23.466
2026-07-21T15:53:39.063,0.4865,108.0284,23.8772
2026-07-21T15:53:39.078,0.5067,109.7124,24.1513
2026-07-21T15:53:39.093,0.5067,111.1418,24.3079
2026-07-21T15:53:39.093,0.5067,111.8663,24.3863
2026-07-21T15:53:39.109,0.52,112.9236,24.7191
2026-07-21T15:53:39.117,0.5499,113.6873,25.0324
2026-07-21T15:53:39.125,0.5538,114.3726,25.4045
2026-07-21T15:53:39.139,0.5538,114.7838,25.659
2026-07-21T15:53:39.149,0.5695,114.8817,25.8157
2026-07-21T15:53:39.157,0.5695,114.7055,26.0115
2026-07-21T15:53:39.168,0.5853,114.5097,26.4814
2026-07-21T15:53:39.179,0.5902,114.5292,27.0884
2026-07-21T15:53:39.188,0.6013,114.7055,27.5192
2026-07-21T15:53:39.188,0.6013,114.5292,27.8912
2026-07-21T15:53:39.209,0.617,114.353,28.0087
2026-07-21T15:53:39.220,0.6329,114.353,27.9695
2026-07-21T15:53:39.220,0.6329,114.5488,28.1066
2026-07-21T15:53:39.251,0.6615,114.3334,28.1262
2026-07-21T15:53:39.251,0.6615,114.1964,28.2241
2026-07-21T15:53:39.251,0.6684,113.7852,28.322
2026-07-21T15:53:39.272,0.6802,113.1586,28.557
2026-07-21T15:53:39.272,0.6802,112.3949,28.8115
2026-07-21T15:53:39.287,0.6907,112.0229,29.0857
2026-07-21T15:53:39.299,0.7116,112.0816,29.5752
2026-07-21T15:53:39.309,0.7173,112.1208,29.7906
2026-07-21T15:53:39.315,0.7355,112.3558,30.0647
2026-07-21T15:53:39.330,0.7355,112.6103,30.2997
2026-07-21T15:53:39.336,0.7435,112.8061,30.515
2026-07-21T15:53:39.351,0.7607,112.8257,30.6325
2026-07-21T15:53:39.354,0.7607,112.4537,30.7696
2026-07-21T15:53:39.362,0.7828,112.1208,31.0633
2026-07-21T15:53:39.379,0.7828,112.0033,31.3962
2026-07-21T15:53:39.379,0.8061,111.8663,31.7878
2026-07-21T15:53:39.394,0.8061,112.3166,32.1207
2026-07-21T15:53:39.409,0.8128,112.7865,32.4144
2026-07-21T15:53:39.425,0.8326,112.8845,32.6885
2026-07-21T15:53:39.425,0.8326,112.9236,33.0214
2026-07-21T15:53:39.441,0.8599,112.6886,33.3347
2026-07-21T15:53:39.441,0.8599,112.5516,33.785
2026-07-21T15:53:39.457,0.8656,112.5712,34.0983
2026-07-21T15:53:39.472,0.8855,112.767,34.392
2026-07-21T15:53:39.478,0.8855,112.9824,34.7641
2026-07-21T15:53:39.491,0.9101,113.0803,35.1165
2026-07-21T15:53:39.491,0.9101,113.1977,35.4886
2026-07-21T15:53:39.509,0.9165,112.9432,35.7235
2026-07-21T15:53:39.522,0.9329,112.5516,36.0172
2026-07-21T15:53:39.529,0.9375,112.1012,36.2522
2026-07-21T15:53:39.539,0.9486,111.4942,36.448
2026-07-21T15:53:39.539,0.9486,111.083,36.7613
2026-07-21T15:53:39.556,0.9646,110.8089,37.2704
2026-07-21T15:53:39.567,0.9838,110.5739,37.8187
2026-07-21T15:53:39.583,0.9838,110.6718,38.4061
2026-07-21T15:53:39.599,0.9978,110.6327,38.9544
2026-07-21T15:53:39.602,0.9978,110.4564,39.3264
2026-07-21T15:53:39.602,1.0118,110.7306,39.4243
2026-07-21T15:53:39.616,1.0275,110.7893,39.5026
2026-07-21T15:53:39.630,1.0334,110.6914,39.6593
2026-07-21T15:53:39.636,1.0522,111.0439,39.8942
2026-07-21T15:53:39.652,1.0522,111.4159,39.8942
2026-07-21T15:53:39.652,1.0761,111.2984,39.7376
2026-07-21T15:53:39.671,1.0792,111.1418,39.6397
2026-07-21T15:53:39.678,1.0938,110.9068,39.5418
2026-07-21T15:53:39.679,1.1028,110.7697,39.6201
2026-07-21T15:53:39.700,1.1065,110.7306,39.5614
2026-07-21T15:53:39.700,1.1243,110.4369,39.483
2026-07-21T15:53:39.712,1.1263,110.339,39.3068
2026-07-21T15:53:39.725,1.1492,110.2802,39.1893
2026-07-21T15:53:39.741,1.1512,110.3781,39.0718
2026-07-21T15:53:39.745,1.1545,110.2215,38.8565
2026-07-21T15:53:39.759,1.1702,109.7711,38.8369
2026-07-21T15:53:39.770,1.1702,109.6732,38.739
2026-07-21T15:53:39.773,1.1984,109.5753,38.5236
2026-07-21T15:53:39.789,1.2016,109.4578,38.5236
2026-07-21T15:53:39.799,1.2036,109.2816,38.3865
2026-07-21T15:53:39.804,1.2209,108.4984,38.2886
2026-07-21T15:53:39.817,1.2209,107.4802,38.1515
2026-07-21T15:53:39.822,1.2392,106.462,37.897
2026-07-21T15:53:39.839,1.2488,106.5599,37.7012
2026-07-21T15:53:39.839,1.2675,106.8927,37.3487
2026-07-21T15:53:39.858,1.2675,106.8732,37.0746
2026-07-21T15:53:39.868,1.2675,106.3836,36.8201
2026-07-21T15:53:39.883,1.2803,106.0116,36.7613
2026-07-21T15:53:39.886,1.2803,105.3459,37.055
2026-07-21T15:53:39.899,1.3125,103.8773,37.1921
2026-07-21T15:53:39.899,1.3125,102.1738,37.4858
2026-07-21T15:53:39.915,1.3282,100.0786,37.897
2026-07-21T15:53:39.915,1.3349,98.9821,38.0928
2026-07-21T15:53:39.940,1.3441,99.1583,38.3082
2026-07-21T15:53:39.947,1.3441,99.3933,38.4648
2026-07-21T15:53:39.963,1.3761,99.0996,38.5432
2026-07-21T15:53:39.963,1.3761,98.6101,38.504
2026-07-21T15:53:39.978,1.3761,97.6506,38.504
2026-07-21T15:53:39.978,1.3916,96.652,38.504
2026-07-21T15:53:39.995,1.3916,97.0632,38.4844
2026-07-21T15:53:40.010,1.4229,97.2786,38.6215
2026-07-21T15:53:40.010,1.4229,97.5527,38.504
2026-07-21T15:53:40.026,1.4397,97.7094,38.4453
2026-07-21T15:53:40.041,1.4397,98.0618,38.4648
2026-07-21T15:53:40.041,1.4546,98.2185,38.4844
2026-07-21T15:53:40.058,1.4703,98.1597,38.5627
2026-07-21T15:53:40.058,1.4713,97.4157,38.6215
2026-07-21T15:53:40.073,1.4864,95.8296,38.6606
2026-07-21T15:53:40.089,1.4864,95.4576,38.7781
2026-07-21T15:53:40.090,1.5021,96.1821,38.9544
2026-07-21T15:53:40.105,1.5021,96.8478,38.9935
2026-07-21T15:53:40.121,1.5358,97.0632,38.9544
2026-07-21T15:53:40.121,1.5358,97.1024,38.9739
2026-07-21T15:53:40.139,1.5498,97.259,39.0523
2026-07-21T15:53:40.139,1.5498,97.3177,39.1306
2026-07-21T15:53:40.154,1.5498,97.024,39.0914
2026-07-21T15:53:40.168,1.5815,96.0254,38.876
2026-07-21T15:53:40.168,1.5815,94.2827,38.5627
2026-07-21T15:53:40.184,1.5971,92.4421,38.0145
2026-07-21T15:53:40.200,1.5971,92.1876,37.7795
2026-07-21T15:53:40.200,1.6211,92.3247,37.5837
2026-07-21T15:53:40.216,1.6287,92.6771,37.6229
2026-07-21T15:53:40.232,1.6444,92.7554,37.7599
2026-07-21T15:53:40.240,1.6444,92.5988,37.7991
2026-07-21T15:53:40.247,1.6444,91.9722,37.8774
2026-07-21T15:53:40.254,1.6759,91.4827,37.7403
2026-07-21T15:53:40.263,1.6759,91.2673,37.7208
2026-07-21T15:53:40.279,1.6759,90.9344,37.662
2026-07-21T15:53:40.279,1.6918,90.4253,37.5837
2026-07-21T15:53:40.294,1.6918,89.975,37.6033
2026-07-21T15:53:40.310,1.7234,89.0938,37.7403
2026-07-21T15:53:40.310,1.7234,88.0169,37.7403
2026-07-21T15:53:40.326,1.7392,87.5078,37.5641
2026-07-21T15:53:40.340,1.7392,87.4099,37.4466
2026-07-21T15:53:40.342,1.7392,87.7623,37.2312
2026-07-21T15:53:40.358,1.7712,88.3498,37.1529
2026-07-21T15:53:40.358,1.7712,88.5847,36.9571
2026-07-21T15:53:40.374,1.7949,88.5064,36.8005
2026-07-21T15:53:40.390,1.7949,88.5064,36.7613
2026-07-21T15:53:40.390,1.803,88.2519,36.5459
2026-07-21T15:53:40.413,1.8213,87.6253,36.1935
2026-07-21T15:53:40.413,1.8213,87.0966,35.9977
2026-07-21T15:53:40.437,1.8365,86.9204,35.8802
2026-07-21T15:53:40.440,1.8365,87.4099,35.8802
2026-07-21T15:53:40.440,1.868,87.7036,35.8606
2026-07-21T15:53:40.455,1.868,87.5665,35.8019
2026-07-21T15:53:40.455,1.868,87.2532,35.6844
2026-07-21T15:53:40.487,1.8821,86.9399,35.6648
2026-07-21T15:53:40.487,1.8989,86.3329,35.469
2026-07-21T15:53:40.501,1.9198,85.491,35.3319
2026-07-21T15:53:40.501,1.9208,84.5903,35.1165
2026-07-21T15:53:40.517,1.9214,84.042,34.9207
2026-07-21T15:53:40.532,1.9456,83.5721,34.7445
2026-07-21T15:53:40.539,1.9456,83.8266,34.6857
2026-07-21T15:53:40.550,1.9609,83.9049,34.5291
2026-07-21T15:53:40.556,1.9609,84.042,34.4508
2026-07-21T15:53:40.564,1.9769,84.1203,34.4312
2026-07-21T15:53:40.579,1.9938,84.1399,34.4312
2026-07-21T15:53:40.579,1.9938,84.3749,34.5487
2026-07-21T15:53:40.595,2.0094,84.6294,34.4116
2026-07-21T15:53:40.612,2.0213,84.6882,34.1767
2026-07-21T15:53:40.612,2.0249,84.7861,34.2354
2026-07-21T15:53:40.628,2.04,85.2364,34.2941
2026-07-21T15:53:40.640,2.04,85.6672,34.392
2026-07-21T15:53:40.659,2.0559,85.8434,34.4312
2026-07-21T15:53:40.659,2.0716,86.0392,34.4704
2026-07-21T15:53:40.659,2.0727,85.863,34.5487
2026-07-21T15:53:40.674,2.0882,85.8238,34.5487
2026-07-21T15:53:40.691,2.0882,86.098,34.5878
2026-07-21T15:53:40.707,2.1044,86.0784,34.392
2026-07-21T15:53:40.707,2.12,85.7455,34.2354
2026-07-21T15:53:40.707,2.1215,85.0602,34.0004
2026-07-21T15:53:40.723,2.138,84.6098,33.8634
2026-07-21T15:53:40.740,2.138,84.4728,33.9417
2026-07-21T15:53:40.757,2.1672,84.9623,33.9808
2026-07-21T15:53:40.757,2.1672,85.5301,33.8634
2026-07-21T15:53:40.757,2.1672,85.7847,33.8438
2026-07-21T15:53:40.770,2.1828,85.863,33.4913
2026-07-21T15:53:40.786,2.1828,85.7259,33.2564
2026-07-21T15:53:40.786,2.2145,85.5889,33.0214
2026-07-21T15:53:40.801,2.2216,85.9217,32.9235
2026-07-21T15:53:40.817,2.2216,86.7441,32.8843
2026-07-21T15:53:40.833,2.2469,87.2924,32.9039
2026-07-21T15:53:40.840,2.2469,87.8015,32.9431
2026-07-21T15:53:40.849,2.2618,88.056,33.0214
2026-07-21T15:53:40.857,2.2618,87.9973,33.0214
2026-07-21T15:53:40.865,2.2618,87.7232,32.9235
2026-07-21T15:53:40.880,2.294,87.8407,32.7277
2026-07-21T15:53:40.880,2.294,88.3693,32.6494
2026-07-21T15:53:40.897,2.3096,88.6826,32.434
2026-07-21T15:53:40.912,2.3096,88.5064,32.2186
2026-07-21T15:53:40.912,2.3258,87.9386,31.9836
2026-07-21T15:53:40.928,2.3386,87.6644,31.7682
2026-07-21T15:53:40.940,2.3417,88.0365,31.7878
2026-07-21T15:53:40.944,2.3577,88.5651,31.5724
2026-07-21T15:53:40.960,2.3577,88.5847,31.5724
2026-07-21T15:53:40.960,2.3733,88.4477,31.5528
2026-07-21T15:53:40.976,2.3911,88.4868,31.6899
2026-07-21T15:53:40.976,2.4061,88.4085,31.7095
2026-07-21T15:53:40.992,2.4061,88.3889,31.7486
2026-07-21T15:53:41.010,2.4061,88.3302,31.6116
2026-07-21T15:53:41.015,2.4368,88.1344,31.6116
2026-07-21T15:53:41.025,2.4389,88.0756,31.5724
2026-07-21T15:53:41.025,2.4389,88.291,31.6899
2026-07-21T15:53:41.041,2.4525,88.5456,31.5724
2026-07-21T15:53:41.057,2.4525,88.5456,31.5332
2026-07-21T15:53:41.071,2.4842,87.8798,31.4745
2026-07-21T15:53:41.071,2.4842,87.1162,31.4158
2026-07-21T15:53:41.088,2.5006,86.7833,31.2395
2026-07-21T15:53:41.088,2.5006,86.8029,31.0046
2026-07-21T15:53:41.103,2.532,86.7441,30.8283
2026-07-21T15:53:41.119,2.532,86.3525,30.8283
2026-07-21T15:53:41.119,2.539,85.863,30.8479
2026-07-21T15:53:41.141,2.5487,85.6085,31.0046
2026-07-21T15:53:41.151,2.5487,85.6085,31.2395
2026-07-21T15:53:41.158,2.5634,85.0406,31.3179
2026-07-21T15:53:41.167,2.5866,84.3161,31.4158
2026-07-21T15:53:41.167,2.5888,83.3567,31.3179
2026-07-21T15:53:41.182,2.6104,81.8685,31.1416
2026-07-21T15:53:41.202,2.6104,79.8517,30.8088
2026-07-21T15:53:41.207,2.6104,76.8559,29.8885
2026-07-21T15:53:41.213,2.6262,74.5257,28.9486
2026-07-21T15:53:41.229,2.6262,75.0153,28.7332
2026-07-21T15:53:41.245,2.642,75.8377,28.7528
2026-07-21T15:53:41.245,2.658,76.5621,28.8311
2026-07-21T15:53:41.261,2.6739,77.0517,29.0465
2026-07-21T15:53:41.261,2.6739,77.1691,29.2031
2026-07-21T15:53:41.277,2.6739,76.6405,29.164
2026-07-21T15:53:41.292,2.6899,75.7789,29.0269
2026-07-21T15:53:41.292,2.7058,74.9174,29.1052
2026-07-21T15:53:41.308,2.7223,74.6236,29.164
2026-07-21T15:53:41.308,2.7223,75.6418,29.4773
2026-07-21T15:53:41.324,2.7398,77.2475,29.7122
2026-07-21T15:53:41.341,2.7398,78.4615,29.7906
2026-07-21T15:53:41.341,2.7398,78.9706,29.8885
2026-07-21T15:53:41.358,2.7691,78.579,29.6731
2026-07-21T15:53:41.358,2.7691,77.7174,29.5948
2026-07-21T15:53:41.372,2.7848,77.1691,29.4381
2026-07-21T15:53:41.388,2.7848,76.7775,29.2423
2026-07-21T15:53:41.388,2.8173,76.3272,29.0073
2026-07-21T15:53:41.403,2.8173,76.2684,28.8115
2026-07-21T15:53:41.423,2.8402,76.895,28.7136
2026-07-21T15:53:41.423,2.8402,77.6391,28.6745
2026-07-21T15:53:41.436,2.8492,78.1286,28.6157
2026-07-21T15:53:41.456,2.8642,78.2069,28.3612
2026-07-21T15:53:41.459,2.8642,77.6391,28.0479
2026-07-21T15:53:41.468,2.8799,76.9929,27.8912
2026-07-21T15:53:41.483,2.8957,76.9538,27.8521
2026-07-21T15:53:41.483,2.8957,77.1691,27.8912
2026-07-21T15:53:41.498,2.8957,77.3062,28.0087
2026-07-21T15:53:41.514,2.928,77.7174,27.95
2026-07-21T15:53:41.514,2.928,77.9915,27.7346
2026-07-21T15:53:41.514,2.9433,78.0699,27.6758
2026-07-21T15:53:41.541,2.9433,78.344,27.48
2026-07-21T15:53:41.547,2.9433,78.4811,27.5584
2026-07-21T15:53:41.562,2.9752,78.5202,27.6367
2026-07-21T15:53:41.562,2.9752,79.0097,27.6171
2026-07-21T15:53:41.578,2.9752,79.3034,27.6367
2026-07-21T15:53:41.594,3.0071,79.7146,27.4017
2026-07-21T15:53:41.594,3.0071,80.3804,27.0884
2026-07-21T15:53:41.610,3.0223,80.8307,26.9122
2026-07-21T15:53:41.610,3.0223,81.1636,26.5989
2026-07-21T15:53:41.626,3.0392,81.1049,26.2856
2026-07-21T15:53:41.641,3.0547,81.1245,26.0115
2026-07-21T15:53:41.641,3.0547,81.2028,25.7961
2026-07-21T15:53:41.659,3.0701,81.7902,25.7765
2026-07-21T15:53:41.673,3.0701,82.5147,25.7569
2026-07-21T15:53:41.681,3.0701,83.0042,25.7765
2026-07-21T15:53:41.689,3.1026,83.1804,25.6982
2026-07-21T15:53:41.689,3.1026,83.2,25.7373
2026-07-21T15:53:41.721,3.1225,82.9651,25.6982
2026-07-21T15:53:41.721,3.1348,82.828,25.8352
2026-07-21T15:53:41.721,3.1348,82.828,25.7961
2026-07-21T15:53:41.741,3.1502,83.1217,25.9332
2026-07-21T15:53:41.741,3.1502,83.6895,25.9527
2026-07-21T15:53:41.753,3.1819,84.2378,25.9136
2026-07-21T15:53:41.769,3.1819,84.7469,25.8744
2026-07-21T15:53:41.769,3.1819,84.7861,25.8744
2026-07-21T15:53:41.784,3.1975,84.5707,25.9919
2026-07-21T15:53:41.800,3.1975,84.6882,26.129
2026-07-21T15:53:41.816,3.2289,85.0406,26.266
2026-07-21T15:53:41.816,3.2289,85.4518,26.2856
2026-07-21T15:53:41.816,3.2289,85.8434,26.3639
2026-07-21T15:53:41.847,3.2606,85.7651,26.3835
2026-07-21T15:53:41.847,3.2606,85.5693,26.2856
2026-07-21T15:53:41.860,3.2606,85.4714,26.266
2026-07-21T15:53:41.863,3.2775,85.3147,26.4227
2026-07-21T15:53:41.879,3.2775,85.2756,26.5989
2026-07-21T15:53:41.879,3.3085,85.2952,26.7164
2026-07-21T15:53:41.896,3.3085,85.1385,26.8339
2026-07-21T15:53:41.911,3.3085,84.6686,26.7751
2026-07-21T15:53:41.911,3.3416,84.1203,26.5989
2026-07-21T15:53:41.927,3.3416,83.8658,26.4814
2026-07-21T15:53:41.927,3.3416,84.1986,26.5597
2026-07-21T15:53:41.959,3.3719,84.8644,26.6576
2026-07-21T15:53:41.959,3.3719,85.0994,26.6772
2026-07-21T15:53:41.960,3.3719,84.9427,26.6381
2026-07-21T15:53:41.974,3.3877,84.1791,26.501
2026-07-21T15:53:41.990,3.4038,83.3958,26.4031
2026-07-21T15:53:41.990,3.4038,82.5734,26.3639
2026-07-21T15:53:42.006,3.4231,82.0448,26.4227
2026-07-21T15:53:42.006,3.4356,82.1035,26.4814
2026-07-21T15:53:42.022,3.4364,82.2993,26.4227
2026-07-21T15:53:42.042,3.4516,82.358,26.3835
2026-07-21T15:53:42.042,3.4516,81.9469,26.3248
2026-07-21T15:53:42.060,3.4674,81.2419,26.1094
2026-07-21T15:53:42.070,3.4674,80.8307,25.9723
2026-07-21T15:53:42.070,3.4833,80.6741,25.7961
2026-07-21T15:53:42.086,3.5002,80.772,25.7765
2026-07-21T15:53:42.086,3.5002,80.9678,25.7373
2026-07-21T15:53:42.119,3.5317,80.8699,25.7569
2026-07-21T15:53:42.119,3.5317,80.9482,25.7765
2026-07-21T15:53:42.119,3.5317,81.0266,25.7765
2026-07-21T15:53:42.142,3.5469,80.9091,25.6003
2026-07-21T15:53:42.150,3.5469,80.537,25.6003
2026-07-21T15:53:42.150,3.5785,80.1063,25.3261
2026-07-21T15:53:42.165,3.5785,79.93,25.2478
2026-07-21T15:53:42.181,3.5785,79.93,25.0716
2026-07-21T15:53:42.181,3.5943,79.8713,24.9345
2026-07-21T15:53:42.197,3.6104,79.8517,24.8562
2026-07-21T15:53:42.197,3.6104,79.8713,24.7583
2026-07-21T15:53:42.213,3.6262,79.7538,24.6604
2026-07-21T15:53:42.229,3.6262,79.5384,24.4646
2026-07-21T15:53:42.242,3.658,79.2839,24.2884
2026-07-21T15:53:42.245,3.658,79.6363,24.2492
2026-07-21T15:53:42.261,3.658,80.0475,24.2296
2026-07-21T15:53:42.277,3.6897,80.2629,24.3079
2026-07-21T15:53:42.277,3.6897,80.2237,24.2884
2026-07-21T15:53:42.293,3.7054,79.8321,24.1709
2026-07-21T15:53:42.293,3.7054,79.3034,23.9751
2026-07-21T15:53:42.308,3.7211,79.2055,23.8184
2026-07-21T15:53:42.324,3.743,79.7146,23.8772
2026-07-21T15:53:42.324,3.743,80.0867,23.9555
2026-07-21T15:53:42.340,3.743,80.4,23.8968
2026-07-21T15:53:42.355,3.7697,80.1846,23.9359
2026-07-21T15:53:42.361,3.7697,79.7342,23.8968
2026-07-21T15:53:42.361,3.7697,79.4601,23.7793
2026-07-21T15:53:42.379,3.7845,79.1468,23.838
2026-07-21T15:53:42.388,3.7845,79.2055,23.9163
2026-07-21T15:53:42.403,3.8166,79.4209,23.9359
2026-07-21T15:53:42.403,3.8166,79.7146,23.9359
2026-07-21T15:53:42.419,3.8431,79.8909,23.8772
2026-07-21T15:53:42.419,3.8431,79.9692,23.9555
2026-07-21T15:53:42.435,3.8485,79.6755,24.0338
2026-07-21T15:53:42.451,3.8645,79.2839,24.073
2026-07-21T15:53:42.453,3.8645,78.951,24.0338
2026-07-21T15:53:42.467,3.8972,78.7943,24.1121
2026-07-21T15:53:42.483,3.8972,78.8335,24.1905
2026-07-21T15:53:42.483,3.8972,78.8139,24.2688
2026-07-21T15:53:42.499,3.9232,78.951,24.4842
2026-07-21T15:53:42.499,3.9232,78.7943,24.5625
2026-07-21T15:53:42.516,3.9295,78.4811,24.5233
2026-07-21T15:53:42.516,3.9436,78.1482,24.3471
2026-07-21T15:53:42.542,3.9436,77.7566,24.1317
2026-07-21T15:53:42.548,3.9436,77.2279,23.9163
2026-07-21T15:53:42.562,3.9755,76.7188,23.7597
2026-07-21T15:53:42.562,3.9755,76.288,23.6422
2026-07-21T15:53:42.579,3.9931,75.9747,23.5051
2026-07-21T15:53:42.579,3.9931,75.6418,23.3485
2026-07-21T15:53:42.594,4.023,75.1915,22.9765
2026-07-21T15:53:42.612,4.023,74.6041,22.5653
2026-07-21T15:53:42.612,4.023,74.2712,22.4086
2026-07-21T15:53:42.626,4.0546,74.2125,22.0953
2026-07-21T15:53:42.642,4.0546,74.1145,22.0757
2026-07-21T15:53:42.642,4.0546,73.7621,22.0562
2026-07-21T15:53:42.663,4.0714,73.3901,22.0953
2026-07-21T15:53:42.663,4.0714,72.8614,21.9387
2026-07-21T15:53:42.673,4.087,72.2152,21.8016
2026-07-21T15:53:42.690,4.102,71.8628,21.7037
2026-07-21T15:53:42.690,4.102,71.5299,21.6645
2026-07-21T15:53:42.721,4.1348,71.1774,21.6254
2026-07-21T15:53:42.721,4.1348,70.9425,21.5471
2026-07-21T15:53:42.721,4.1348,70.8446,21.5275
2026-07-21T15:53:42.742,4.1505,70.6096,21.5471
2026-07-21T15:53:42.753,4.1505,70.6096,21.4492
2026-07-21T15:53:42.763,4.1662,70.7662,21.3513
2026-07-21T15:53:42.769,4.1822,70.7271,21.3317
2026-07-21T15:53:42.769,4.1822,70.59,21.3317
2026-07-21T15:53:42.801,4.197,70.5704,21.2533
2026-07-21T15:53:42.801,4.213,70.5117,21.0771
2026-07-21T15:53:42.801,4.2287,70.4921,20.9401
2026-07-21T15:53:42.815,4.2287,70.3746,20.8422
2026-07-21T15:53:42.832,4.246,70.2767,20.8422
2026-07-21T15:53:42.847,4.2608,70.1397,20.6072
2026-07-21T15:53:42.847,4.2608,69.8851,20.568
2026-07-21T15:53:42.863,4.2608,69.6893,20.6072
2026-07-21T15:53:42.879,4.2922,69.5326,20.7051
2026-07-21T15:53:42.879,4.2922,69.4739,20.7442
2026-07-21T15:53:42.879,4.2922,69.2389,20.7638
2026-07-21T15:53:42.895,4.3231,68.9061,20.8422
2026-07-21T15:53:42.911,4.3231,68.9256,20.7442
2026-07-21T15:53:42.911,4.3231,68.8277,20.6855
2026-07-21T15:53:42.928,4.345,68.8865,20.5484
2026-07-21T15:53:42.942,4.3549,68.6907,20.4897
2026-07-21T15:53:42.942,4.3549,68.7103,20.3918
2026-07-21T15:53:42.963,4.3709,68.6711,20.2743
2026-07-21T15:53:42.963,4.3709,68.5928,20.2743
2026-07-21T15:53:42.973,4.387,68.3578,20.1764
2026-07-21T15:53:42.989,4.4027,67.9466,20.1568
2026-07-21T15:53:42.989,4.4027,67.555,20.0198
2026-07-21T15:53:43.021,4.4341,67.0263,19.8435
2026-07-21T15:53:43.021,4.4341,66.4976,19.6869
2026-07-21T15:53:43.021,4.4341,66.0473,19.5694
2026-07-21T15:53:43.042,4.4502,65.9494,19.4715
2026-07-21T15:53:43.053,4.4502,65.8515,19.4715
2026-07-21T15:53:43.053,4.4668,65.7731,19.4323
2026-07-21T15:53:43.069,4.4822,65.5186,19.4128
2026-07-21T15:53:43.069,4.4822,65.0487,19.3736
2026-07-21T15:53:43.085,4.4982,64.3829,19.1582
2026-07-21T15:53:43.101,4.4982,64.2458,19.1386
2026-07-21T15:53:43.101,4.5141,64.3437,19.0995
2026-07-21T15:53:43.117,4.5309,64.4417,19.0016
2026-07-21T15:53:43.133,4.5309,64.5787,18.9624
2026-07-21T15:53:43.142,4.5616,64.3829,18.8449
2026-07-21T15:53:43.149,4.5616,64.1871,18.7274
2026-07-21T15:53:43.149,4.5616,64.05,18.7666
2026-07-21T15:53:43.164,4.5864,63.9913,18.6099
2026-07-21T15:53:43.180,4.5864,63.9717,18.6883
2026-07-21T15:53:43.201,4.6087,63.8151,18.6687
2026-07-21T15:53:43.201,4.6087,63.7172,18.7274
2026-07-21T15:53:43.211,4.6248,63.6584,18.6295
2026-07-21T15:53:43.211,4.6248,63.6584,18.4729
2026-07-21T15:53:43.227,4.6248,63.7563,18.3946
2026-07-21T15:53:43.243,4.6566,63.8151,18.2575
2026-07-21T15:53:43.243,4.6566,63.5997,17.9638
2026-07-21T15:53:43.265,4.6723,63.4626,17.9638
2026-07-21T15:53:43.265,4.6723,63.5018,17.8463
2026-07-21T15:53:43.275,4.688,63.4235,17.8463
2026-07-21T15:53:43.291,4.7041,63.4039,17.8267
2026-07-21T15:53:43.291,4.7041,63.2864,17.8071
2026-07-21T15:53:43.307,4.7278,63.1885,17.7484
2026-07-21T15:53:43.323,4.7358,63.0906,17.7092
2026-07-21T15:53:43.323,4.7358,63.1102,17.6701
2026-07-21T15:53:43.341,4.7519,63.0123,17.5917
2026-07-21T15:53:43.346,4.7519,63.0123,17.4938
2026-07-21T15:53:43.354,4.7676,62.9731,17.5134
2026-07-21T15:53:43.370,4.7833,62.836,17.4155
2026-07-21T15:53:43.370,4.7833,62.9339,17.3176
2026-07-21T15:53:43.386,4.8166,62.9927,17.3372
2026-07-21T15:53:43.402,4.8166,63.1493,17.298
2026-07-21T15:53:43.402,4.8241,63.3843,17.3176
2026-07-21T15:53:43.419,4.863,63.5997,17.2589
2026-07-21T15:53:43.434,4.863,63.4822,17.2393
2026-07-21T15:53:43.450,4.8786,63.4039,17.2197
2026-07-21T15:53:43.450,4.8786,63.306,17.161
2026-07-21T15:53:43.465,4.9112,63.2864,17.1414
2026-07-21T15:53:43.482,4.9243,63.4626,17.2001
2026-07-21T15:53:43.482,4.9243,63.5605,17.3372
2026-07-21T15:53:43.482,4.9261,63.5801,17.4743
2026-07-21T15:53:43.497,4.9261,63.5801,17.5722
2026-07-21T15:53:43.530,4.958,63.3255,17.6505
2026-07-21T15:53:43.530,4.958,63.071,17.5722
2026-07-21T15:53:43.530,4.958,63.071,17.6505
2026-07-21T15:53:43.530,4.9738,63.1885,17.6113
2026-07-21T15:53:43.545,4.99,63.2276,17.6701
2026-07-21T15:53:43.576,5.0378,63.1297,17.7288
2026-07-21T15:53:43.576,5.0478,63.2081,17.8267
2026-07-21T15:53:43.576,5.0478,63.3451,17.9638
2026-07-21T15:53:43.576,5.0539,63.4822,18.1792
2026-07-21T15:53:43.592,5.0539,63.5409,18.1987
2026-07-21T15:53:43.609,5.0699,63.7172,18.1596
2026-07-21T15:53:43.624,5.1023,63.7759,18.2575
2026-07-21T15:53:43.643,5.1023,63.8934,18.2771
2026-07-21T15:53:43.643,5.1023,63.9326,18.2379
2026-07-21T15:53:43.656,5.1023,63.8542,18.2967
2026-07-21T15:53:43.656,5.1023,63.7955,18.2379
2026-07-21T15:53:43.672,5.1186,63.7367,18.2771
2026-07-21T15:53:43.672,5.1242,63.7955,18.2967
2026-07-21T15:53:43.688,5.1242,63.9326,18.3358
2026-07-21T15:53:43.704,5.1492,63.9326,18.3358
2026-07-21T15:53:43.704,5.1655,63.7563,18.3358
2026-07-21T15:53:43.721,5.1655,63.2668,18.1596
2026-07-21T15:53:43.721,5.1655,62.7773,18.0029
2026-07-21T15:53:43.737,5.1825,62.4053,17.905
2026-07-21T15:53:43.752,5.1981,62.2094,17.8855
2026-07-21T15:53:43.752,5.1981,62.0528,17.8659
2026-07-21T15:53:43.768,5.1981,62.0528,17.768
2026-07-21T15:53:43.784,5.1981,62.0332,17.6505
2026-07-21T15:53:43.784,5.2127,61.6808,17.533
2026-07-21T15:53:43.801,5.2142,61.2108,17.3764
2026-07-21T15:53:43.801,5.2451,60.5842,17.2785
2026-07-21T15:53:43.817,5.2487,59.9772,17.0435
2026-07-21T15:53:43.833,5.2607,59.2723,16.9064
2026-07-21T15:53:43.847,5.2765,58.587,16.7498
2026-07-21T15:53:43.847,5.2765,58.1366,16.691
2026-07-21T15:53:43.867,5.2926,57.8821,16.691
2026-07-21T15:53:43.867,5.2926,57.9996,16.7498
2026-07-21T15:53:43.879,5.2926,58.2933,16.6519
2026-07-21T15:53:43.895,5.3242,58.5087,16.6323
2026-07-21T15:53:43.895,5.3242,58.5674,16.5735
2026-07-21T15:53:43.911,5.3242,58.4304,16.554
2026-07-21T15:53:43.927,5.3559,58.2346,16.4756
2026-07-21T15:53:43.927,5.3559,58.0975,16.3973
2026-07-21T15:53:43.943,5.3635,57.98,16.3582
2026-07-21T15:53:43.943,5.3635,58.0583,16.2407
2026-07-21T15:53:43.959,5.3878,58.1954,16.3582
2026-07-21T15:53:43.974,5.3878,58.352,16.2603
2026-07-21T15:53:43.982,5.4037,58.2933,16.2015
2026-07-21T15:53:43.991,5.4242,58.0387,16.2015
2026-07-21T15:53:44.006,5.4353,57.7255,16.0449
2026-07-21T15:53:44.006,5.4353,57.4317,16.0644
2026-07-21T15:53:44.022,5.4353,57.3143,15.9665
2026-07-21T15:53:44.038,5.4669,57.3143,15.947
2026-07-21T15:53:44.043,5.4669,57.0597,15.8295
2026-07-21T15:53:44.043,5.4834,56.8247,15.7707
2026-07-21T15:53:44.054,5.4834,56.3548,15.5945
2026-07-21T15:53:44.085,5.5146,55.9828,15.4966
2026-07-21T15:53:44.085,5.5146,55.8849,15.4574
2026-07-21T15:53:44.085,5.5146,55.8065,15.3595
2026-07-21T15:53:44.102,5.5194,55.6695,15.3204
2026-07-21T15:53:44.102,5.5194,55.4149,15.2421
2026-07-21T15:53:44.117,5.5493,55.2387,15.2029
2026-07-21T15:53:44.117,5.5493,55.082,15.2225
2026-07-21T15:53:44.143,5.5629,55.0037,15.1833
2026-07-21T15:53:44.168,5.6094,54.945,15.2812
2026-07-21T15:53:44.168,5.6094,54.8862,15.2812
2026-07-21T15:53:44.168,5.6094,54.7296,15.2616
2026-07-21T15:53:44.181,5.6094,54.5534,15.3008
2026-07-21T15:53:44.196,5.6246,54.2401,15.2421
2026-07-21T15:53:44.212,5.6566,54.0443,15.1833
2026-07-21T15:53:44.212,5.6566,53.868,15.2225
2026-07-21T15:53:44.212,5.6566,53.8093,15.0462
2026-07-21T15:53:44.228,5.6566,53.7506,15.1833
2026-07-21T15:53:44.228,5.6566,53.6135,14.9875
2026-07-21T15:53:44.259,5.7045,53.2806,14.9875
2026-07-21T15:53:44.259,5.7045,52.9869,14.7721
2026-07-21T15:53:44.275,5.7045,52.6149,14.6351
2026-07-21T15:53:44.275,5.7045,52.4582,14.6351
2026-07-21T15:53:44.275,5.7045,52.517,14.6938
2026-07-21T15:53:44.307,5.7519,52.517,14.6351
2026-07-21T15:53:44.307,5.7519,52.4582,14.5959
2026-07-21T15:53:44.323,5.7519,52.2037,14.5176
2026-07-21T15:53:44.323,5.7676,51.9883,14.5567
2026-07-21T15:53:44.344,5.7676,51.6946,14.4588
2026-07-21T15:53:44.355,5.7998,51.3617,14.4392
2026-07-21T15:53:44.369,5.7998,50.833,14.4197
2026-07-21T15:53:44.370,5.7998,50.5002,14.3218
2026-07-21T15:53:44.370,5.8169,50.4414,14.3022
2026-07-21T15:53:44.386,5.8169,50.696,14.3805
2026-07-21T15:53:44.386,5.8328,51.1072,14.3218
2026-07-21T15:53:44.418,5.8478,51.2442,14.3218
2026-07-21T15:53:44.418,5.8503,51.3225,14.2043
2026-07-21T15:53:44.434,5.8503,51.2638,14.263
2026-07-21T15:53:44.435,5.8503,51.1659,14.1455
2026-07-21T15:53:44.451,5.8795,50.9897,13.9889
2026-07-21T15:53:44.466,5.8795,51.0484,14.1064
2026-07-21T15:53:44.469,5.8795,51.3813,14.2239
2026-07-21T15:53:44.482,5.9126,51.5771,14.263
2026-07-21T15:53:44.482,5.927,51.6163,14.3218
2026-07-21T15:53:44.498,5.927,51.6358,14.3218
2026-07-21T15:53:44.498,5.927,51.4792,14.3022
2026-07-21T15:53:44.514,5.9508,51.2834,14.2043
2026-07-21T15:53:44.531,5.9508,51.2051,14.126
2026-07-21T15:53:44.544,5.9508,50.9701,14.2043
2026-07-21T15:53:44.546,5.9584,50.833,14.1455
2026-07-21T15:53:44.561,5.975,50.9113,14.2434
2026-07-21T15:53:44.569,5.9906,51.1855,14.1847
2026-07-21T15:53:44.577,5.9906,51.8316,14.2434
2026-07-21T15:53:44.594,6.0252,52.282,14.2434
2026-07-21T15:53:44.594,6.0252,52.4974,14.2239
2026-07-21T15:53:44.609,6.0379,52.517,14.1847
2026-07-21T15:53:44.625,6.0552,52.2037,14.2043
2026-07-21T15:53:44.626,6.0552,52.1841,14.126
2026-07-21T15:53:44.641,6.0552,52.5561,14.263
2026-07-21T15:53:44.644,6.0698,52.7519,14.3413
2026-07-21T15:53:44.656,6.1015,53.2023,14.3805
2026-07-21T15:53:44.674,6.1015,53.5939,14.4001
2026-07-21T15:53:44.674,6.1015,54.0051,14.3218
2026-07-21T15:53:44.688,6.1172,54.5534,14.5176
2026-07-21T15:53:44.704,6.134,55.1995,14.498
2026-07-21T15:53:44.720,6.134,55.8653,14.7134
2026-07-21T15:53:44.720,6.134,56.1198,14.7917
2026-07-21T15:53:44.720,6.1516,56.1786,14.7721
2026-07-21T15:53:44.736,6.1516,56.2373,14.733
2026-07-21T15:53:44.752,6.1782,56.4919,14.6546
2026-07-21T15:53:44.752,6.1782,56.9422,14.6742
2026-07-21T15:53:44.770,6.1812,57.3338,14.7721
2026-07-21T15:53:44.790,6.199,57.5688,14.8896
2026-07-21T15:53:44.796,6.213,57.7646,14.8504
2026-07-21T15:53:44.800,6.214,57.9604,14.7721
2026-07-21T15:53:44.800,6.2301,58.0779,14.7917
2026-07-21T15:53:44.817,6.2301,58.0192,14.7134
2026-07-21T15:53:44.832,6.2451,57.6667,14.5176
2026-07-21T15:53:44.849,6.2769,57.2751,14.4588
2026-07-21T15:53:44.849,6.2769,57.3338,14.4784
2026-07-21T15:53:44.864,6.2769,57.5688,14.5176
2026-07-21T15:53:44.870,6.3242,57.8625,14.6155
2026-07-21T15:53:44.881,6.3257,57.9017,14.5959
2026-07-21T15:53:44.881,6.3257,58.0583,14.5959
2026-07-21T15:53:44.895,6.3402,58.0192,14.498
2026-07-21T15:53:44.911,6.3519,57.9408,14.4588
2026-07-21T15:53:44.927,6.4046,58.0779,14.3218
2026-07-21T15:53:44.943,6.4046,58.3912,14.4392
2026-07-21T15:53:44.943,6.4046,58.5478,14.498
2026-07-21T15:53:44.944,6.4046,58.5478,14.4001
2026-07-21T15:53:44.959,6.4199,58.215,14.3218
2026-07-21T15:53:44.991,6.4677,58.0387,14.3413
2026-07-21T15:53:44.991,6.4677,57.9213,14.4001
2026-07-21T15:53:44.991,6.4677,58.0975,14.4588
2026-07-21T15:53:45.007,6.4836,58.3912,14.5371
2026-07-21T15:53:45.007,6.4836,58.6066,14.5959
2026-07-21T15:53:45.023,6.4836,58.8416,14.6742
2026-07-21T15:53:45.023,6.5006,59.0569,14.5176
2026-07-21T15:53:45.045,6.5006,58.822,14.4784
2026-07-21T15:53:45.045,6.5313,58.6457,14.2826
2026-07-21T15:53:45.071,6.547,58.4304,14.3022
2026-07-21T15:53:45.071,6.547,58.587,14.3022
2026-07-21T15:53:45.086,6.547,58.8416,14.4392
2026-07-21T15:53:45.086,6.5528,58.9982,14.4588
2026-07-21T15:53:45.102,6.5528,59.2332,14.5567
2026-07-21T15:53:45.118,6.5528,59.429,14.6351
2026-07-21T15:53:45.119,6.5528,59.0961,14.498
2026-07-21T15:53:45.134,6.5787,59.0374,14.5176
2026-07-21T15:53:45.134,6.5962,58.9003,14.5371
2026-07-21T15:53:45.150,6.5962,58.8807,14.5567
2026-07-21T15:53:45.150,6.5962,59.0765,14.733
2026-07-21T15:53:45.171,6.5962,59.3115,14.7917
2026-07-21T15:53:45.181,6.6107,59.5073,14.8309
2026-07-21T15:53:45.181,6.643,59.4094,14.87
2026-07-21T15:53:45.197,6.643,59.1548,14.7917
2026-07-21T15:53:45.213,6.643,58.8024,14.8113
2026-07-21T15:53:45.215,6.643,58.6262,14.7134
2026-07-21T15:53:45.229,6.6531,58.4891,14.6546
2026-07-21T15:53:45.245,6.6748,58.4695,14.6938
2026-07-21T15:53:45.245,6.6748,58.4499,14.6155
2026-07-21T15:53:45.245,6.6748,58.4499,14.6938
2026-07-21T15:53:45.278,6.6908,58.6457,14.6546
2026-07-21T15:53:45.278,6.7271,58.7241,14.6351
2026-07-21T15:53:45.293,6.7385,58.6849,14.5763
2026-07-21T15:53:45.293,6.7385,58.3912,14.5959
2026-07-21T15:53:45.309,6.7385,58.0975,14.5176
2026-07-21T15:53:45.325,6.7713,57.6863,14.4392
2026-07-21T15:53:45.341,6.7864,57.4513,14.5176
2026-07-21T15:53:45.341,6.7864,57.3534,14.6155
2026-07-21T15:53:45.357,6.7864,57.6275,14.7917
2026-07-21T15:53:45.357,6.7979,58.0779,14.8113
2026-07-21T15:53:45.357,6.8341,58.3912,14.8896
2026-07-21T15:53:45.390,6.8351,58.4891,14.8504
2026-07-21T15:53:45.390,6.8351,58.3325,14.8504
2026-07-21T15:53:45.405,6.8499,58.1171,14.8309
2026-07-21T15:53:45.415,6.8539,57.98,14.733
2026-07-21T15:53:45.446,6.8976,57.9017,14.7721
2026-07-21T15:53:45.446,6.8976,58.0192,14.6938
2026-07-21T15:53:45.446,6.9133,58.3716,14.7134
2026-07-21T15:53:45.454,6.9133,58.4108,14.7525
2026-07-21T15:53:45.454,6.9275,58.2933,14.7525
2026-07-21T15:53:45.472,6.9299,57.9408,14.733
2026-07-21T15:53:45.472,6.9773,57.5884,14.733
2026-07-21T15:53:45.484,6.9773,57.6667,14.6546
2026-07-21T15:53:45.516,6.9773,57.9604,14.7525
2026-07-21T15:53:45.516,6.9773,58.2933,14.8113
2026-07-21T15:53:45.516,6.9941,58.3129,14.7721
2026-07-21T15:53:45.516,6.9941,58.215,14.8113
2026-07-21T15:53:45.532,7.0096,57.7842,14.7721
2026-07-21T15:53:45.548,7.0096,57.6275,14.6742
2026-07-21T15:53:45.564,7.0565,57.6863,14.733
2026-07-21T15:53:45.580,7.0565,57.7255,14.6742
2026-07-21T15:53:45.580,7.0565,57.608,14.733
2026-07-21T15:53:45.596,7.0565,57.3534,14.5176
2026-07-21T15:53:45.596,7.0565,56.9814,14.4588
2026-07-21T15:53:45.613,7.073,56.8052,14.3609
2026-07-21T15:53:45.627,7.073,56.5898,14.3413
2026-07-21T15:53:45.628,7.0882,56.3352,14.263
2026-07-21T15:53:45.659,7.1279,56.0415,14.3022
2026-07-21T15:53:45.673,7.1279,55.6891,14.126
2026-07-21T15:53:45.673,7.1279,55.5324,14.0672
2026-07-21T15:53:45.673,7.1279,55.7086,14.028
2026-07-21T15:53:45.675,7.1359,55.6499,14.0085
2026-07-21T15:53:45.692,7.1359,55.4737,13.8714
2026-07-21T15:53:45.707,7.1517,55.317,13.9106
2026-07-21T15:53:45.707,7.1553,55.1408,13.891
2026-07-21T15:53:45.738,7.1841,55.1408,13.8714
2026-07-21T15:53:45.738,7.1841,54.9646,13.9889
2026-07-21T15:53:45.746,7.1841,54.6317,13.8714
2026-07-21T15:53:45.754,7.2003,54.1618,13.7539
2026-07-21T15:53:45.754,7.2003,53.3394,13.6952
2026-07-21T15:53:45.774,7.2003,52.9282,13.5777
2026-07-21T15:53:45.786,7.2473,52.8498,13.5385
2026-07-21T15:53:45.803,7.2473,52.7128,13.5189
2026-07-21T15:53:45.803,7.2473,52.4386,13.284
2026-07-21T15:53:45.803,7.263,51.8708,13.1273
2026-07-21T15:53:45.819,7.264,50.9897,12.9315
2026-07-21T15:53:45.834,7.2801,49.6973,12.7357
2026-07-21T15:53:45.850,7.3281,48.0526,12.3833
2026-07-21T15:53:45.850,7.3281,46.4274,12.1483
2026-07-21T15:53:45.866,7.3281,44.7042,11.7763
2026-07-21T15:53:45.874,7.3428,43.2749,11.3259
2026-07-21T15:53:45.883,7.3428,42.0413,10.9734
2026-07-21T15:53:45.883,7.3428,40.6314,10.5035
2026-07-21T15:53:45.899,7.3586,39.0454,10.0727
2026-07-21T15:53:45.930,7.4069,36.9698,9.3874
2026-07-21T15:53:45.930,7.4069,34.2481,8.5259
2026-07-21T15:53:45.930,7.4069,31.0565,7.5664
2026-07-21T15:53:45.946,7.4235,27.9627,6.4699
2026-07-21T15:53:45.947,7.4282,25.4564,5.4125
2026-07-21T15:53:45.961,7.4282,23.557,4.7859
2026-07-21T15:53:45.977,7.4388,22.5388,4.4922
2026-07-21T15:53:45.977,7.4388,21.9514,4.2572
2026-07-21T15:53:46.010,7.4709,21.2857,3.9831
2026-07-21T15:53:46.010,7.4709,20.4241,3.6502
2026-07-21T15:53:46.010,7.4709,19.543,3.3174
2026-07-21T15:53:46.025,7.4869,18.329,2.9649
2026-07-21T15:53:46.025,7.4869,17.2912,2.632
2026-07-21T15:53:46.047,7.4869,16.9583,2.5146
2026-07-21T15:53:46.057,7.5028,17.1933,2.6125
2026-07-21T15:53:46.057,7.5028,17.7024,2.7495
2026-07-21T15:53:46.073,7.5342,18.5248,2.867
2026-07-21T15:53:46.089,7.5342,19.3472,3.0824
2026-07-21T15:53:46.089,7.5502,19.7779,3.1803
2026-07-21T15:53:46.105,7.5502,19.9542,3.2782
2026-07-21T15:53:46.121,7.5502,20.0325,3.2978
2026-07-21T15:53:46.121,7.5573,20.15,3.3174
2026-07-21T15:53:46.138,7.5985,20.3262,3.4349
2026-07-21T15:53:46.147,7.5985,20.5024,3.5328
2026-07-21T15:53:46.153,7.5985,20.8157,3.5132
2026-07-21T15:53:46.153,7.6138,21.129,3.6111
2026-07-21T15:53:46.176,7.6148,21.129,3.6502
2026-07-21T15:53:46.185,7.6299,21.0115,3.6502
2026-07-21T15:53:46.201,7.6618,20.8353,3.6698
2026-07-21T15:53:46.217,7.6618,20.7766,3.5523
2026-07-21T15:53:46.217,7.6618,20.7961,3.5719
2026-07-21T15:53:46.217,7.678,20.8353,3.5523
2026-07-21T15:53:46.217,7.678,20.6395,3.474
2026-07-21T15:53:46.248,7.678,20.2479,3.337
2026-07-21T15:53:46.248,7.694,19.7779,3.1607
2026-07-21T15:53:46.264,7.7284,19.0143,2.9258
2026-07-21T15:53:46.280,7.7284,18.1919,2.7887
2026-07-21T15:53:46.280,7.7416,17.252,2.5537
2026-07-21T15:53:46.296,7.7416,16.6059,2.3188
2026-07-21T15:53:46.296,7.7416,16.0772,2.1817
2026-07-21T15:53:46.313,7.758,15.431,2.0642
2026-07-21T15:53:46.313,7.7734,14.6674,1.8292
2026-07-21T15:53:46.344,7.7734,13.9037,1.5551
2026-07-21T15:53:46.344,7.7895,12.9443,1.3593
2026-07-21T15:53:46.360,7.7895,11.6519,0.9285
2026-07-21T15:53:46.360,7.7966,10.2813,0.5956
2026-07-21T15:53:46.376,7.8053,8.6365,0.2628
2026-07-21T15:53:46.377,7.8288,7.1288,-0.0897
2026-07-21T15:53:46.392,7.8421,5.6602,-0.3638
2026-07-21T15:53:46.408,7.8442,4.4462,-0.4617
2026-07-21T15:53:46.408,7.8442,3.3497,-0.6967
2026-07-21T15:53:46.424,7.853,2.3315,-0.8337
2026-07-21T15:53:46.424,7.8556,1.6266,-0.9904
2026-07-21T15:53:46.447,7.9009,0.9217,-1.0883
2026-07-21T15:53:46.447,7.9009,0.4321,-1.2254
2026-07-21T15:53:46.463,7.9009,-0.077,-1.2058
2026-07-21T15:53:46.474,7.9167,-0.4686,-1.3037
2026-07-21T15:53:46.477,7.9167,-0.8602,-1.3037
2026-07-21T15:53:46.492,7.9642,-1.0952,-1.2449
2026-07-21T15:53:46.504,7.9642,-1.428,-1.3037
2026-07-21T15:53:46.519,7.9802,-1.5847,-1.2449
2026-07-21T15:53:46.519,7.9802,-1.7217,-1.2645
2026-07-21T15:53:46.535,7.9802,-1.9175,-1.2645
2026-07-21T15:53:46.535,7.9959,-1.8588,-1.2449
2026-07-21T15:53:46.551,8.0291,-1.8588,-1.2449
2026-07-21T15:53:46.577,8.0456,-1.7413,-1.2058
2026-07-21T15:53:46.577,8.0456,-1.8001,-1.147
2026-07-21T15:53:46.599,8.0456,-1.663,-1.1666
2026-07-21T15:53:46.599,8.0456,-1.663,-1.1666
2026-07-21T15:53:46.599,8.0456,-1.6434,-1.1862
2026-07-21T15:53:46.614,8.0456,-1.663,-1.1862
2026-07-21T15:53:46.630,8.093,-1.6043,-1.2254
2026-07-21T15:53:46.648,8.093,-1.5455,-1.1275
2026-07-21T15:53:46.648,8.1078,-1.5063,-1.1275
2026-07-21T15:53:46.663,8.1078,-1.3889,-1.0687
2026-07-21T15:53:46.664,8.1078,-1.3105,-1.0296
2026-07-21T15:53:46.664,8.1078,-1.3497,-1.0491
2026-07-21T15:53:46.679,8.129,-1.3301,-1.0296
2026-07-21T15:53:46.710,8.1589,-1.3497,-1.0491
2026-07-21T15:53:46.710,8.1589,-1.3693,-0.9317
2026-07-21T15:53:46.711,8.1589,-1.3105,-0.9904
2026-07-21T15:53:46.726,8.1589,-1.3497,-0.9121
2026-07-21T15:53:46.726,8.1589,-1.3301,-1.0296
2026-07-21T15:53:46.748,8.171,-1.3105,-0.9708
2026-07-21T15:53:46.748,8.171,-1.2126,-0.9317
2026-07-21T15:53:46.774,8.187,-1.1343,-0.9317
2026-07-21T15:53:46.774,8.187,-1.0756,-0.775
2026-07-21T15:53:46.777,8.2028,-0.9385,-0.8729
2026-07-21T15:53:46.790,8.2028,-0.8798,-0.8142
2026-07-21T15:53:46.806,8.2353,-0.8798,-0.8337
2026-07-21T15:53:46.806,8.2353,-0.821,-0.775
2026-07-21T15:53:46.821,8.2353,-0.8406,-0.7358
2026-07-21T15:53:46.821,8.2353,-0.8406,-0.775
2026-07-21T15:53:46.839,8.2594,-0.8602,-0.7554
2026-07-21T15:53:46.854,8.2664,-0.7427,-0.8142
2026-07-21T15:53:46.854,8.2664,-0.8798,-0.7358
2026-07-21T15:53:46.878,8.2887,-0.9385,-0.7358
2026-07-21T15:53:46.878,8.2993,-0.8993,-0.7358
2026-07-21T15:53:46.885,8.3153,-0.8406,-0.6967
2026-07-21T15:53:46.901,8.3302,-0.8406,-0.7358
2026-07-21T15:53:46.907,8.3302,-0.8406,-0.6771
2026-07-21T15:53:46.918,8.346,-0.8406,-0.6379
2026-07-21T15:53:46.934,8.3596,-0.7819,-0.6771
2026-07-21T15:53:46.934,8.3621,-0.7427,-0.5988
2026-07-21T15:53:46.949,8.3621,-0.684,-0.6967
2026-07-21T15:53:46.965,8.3938,-0.7231,-0.6575
2026-07-21T15:53:46.965,8.3938,-0.7035,-0.5792
2026-07-21T15:53:46.981,8.3938,-0.7231,-0.5988
2026-07-21T15:53:46.996,8.4257,-0.7231,-0.6184
2026-07-21T15:53:46.996,8.4292,-0.7427,-0.6575
2026-07-21T15:53:47.012,8.4292,-0.7427,-0.6379
2026-07-21T15:53:47.012,8.4601,-0.821,-0.6184
2026-07-21T15:53:47.030,8.4601,-0.8798,-0.6575
2026-07-21T15:53:47.030,8.4601,-0.8798,-0.6184
2026-07-21T15:53:47.048,8.4601,-0.9189,-0.6575
2026-07-21T15:53:47.061,8.4906,-0.9385,-0.54
2026-07-21T15:53:47.076,8.4906,-0.8993,-0.5792
2026-07-21T15:53:47.079,8.5052,-0.8602,-0.6575
2026-07-21T15:53:47.095,8.5293,-0.8798,-0.5988
2026-07-21T15:53:47.095,8.5293,-0.8602,-0.5988
2026-07-21T15:53:47.109,8.5373,-0.8014,-0.54
2026-07-21T15:53:47.124,8.5373,-0.821,-0.5988
2026-07-21T15:53:47.140,8.5603,-0.7623,-0.6184
2026-07-21T15:53:47.148,8.5603,-0.821,-0.5792
2026-07-21T15:53:47.148,8.5689,-0.7623,-0.6184
2026-07-21T15:53:47.172,8.5939,-0.8406,-0.54
2026-07-21T15:53:47.179,8.6,-0.8602,-0.5009
2026-07-21T15:53:47.179,8.6,-0.8993,-0.6184
2026-07-21T15:53:47.212,8.6333,-0.8798,-0.5988
2026-07-21T15:53:47.212,8.6333,-0.8993,-0.6575
2026-07-21T15:53:47.219,8.6479,-0.8602,-0.5988
2026-07-21T15:53:47.219,8.6479,-0.9777,-0.5792
2026-07-21T15:53:47.252,8.6796,-0.8993,-0.5988
2026-07-21T15:53:47.252,8.6956,-0.9385,-0.54
2026-07-21T15:53:47.252,8.6956,-0.9189,-0.5792
2026-07-21T15:53:47.266,8.6956,-0.8798,-0.5205
2026-07-21T15:53:47.266,8.7435,-0.8602,-0.5792
2026-07-21T15:53:47.298,8.7435,-0.8798,-0.6184
2026-07-21T15:53:47.298,8.7435,-0.8993,-0.54
2026-07-21T15:53:47.314,8.7435,-0.8602,-0.6184
2026-07-21T15:53:47.314,8.7435,-0.8602,-0.5792
2026-07-21T15:53:47.314,8.7611,-0.8993,-0.6184
2026-07-21T15:53:47.346,8.7915,-0.8798,-0.5792
2026-07-21T15:53:47.346,8.7915,-0.9385,-0.5792
2026-07-21T15:53:47.348,8.7915,-0.9189,-0.6575
2026-07-21T15:53:47.362,8.7915,-0.9385,-0.5988
2026-07-21T15:53:47.362,8.7915,-0.9777,-0.5988
2026-07-21T15:53:47.380,8.8076,-0.9972,-0.6184
2026-07-21T15:53:47.394,8.8553,-0.9777,-0.6184
2026-07-21T15:53:47.394,8.8553,-1.056,-0.5988
2026-07-21T15:53:47.410,8.8615,-0.9385,-0.6184
2026-07-21T15:53:47.410,8.8711,-1.0168,-0.5596
2026-07-21T15:53:47.442,8.9029,-0.9777,-0.6379
2026-07-21T15:53:47.448,8.9029,-0.8993,-0.6379
2026-07-21T15:53:47.458,8.9186,-0.9189,-0.5988
2026-07-21T15:53:47.458,8.9186,-0.8993,-0.5988
2026-07-21T15:53:47.474,8.93,-0.8993,-0.6379
2026-07-21T15:53:47.480,8.9358,-0.9777,-0.5596
2026-07-21T15:53:47.490,8.9358,-0.9385,-0.5988
2026-07-21T15:53:47.505,8.9666,-0.8602,-0.6379
2026-07-21T15:53:47.506,8.9666,-0.9385,-0.6379
2026-07-21T15:53:47.521,8.9666,-0.9385,-0.6184
2026-07-21T15:53:47.521,8.9826,-0.9581,-0.6575
2026-07-21T15:53:47.554,8.9826,-0.9972,-0.5988
2026-07-21T15:53:47.554,8.9826,-1.056,-0.6575
2026-07-21T15:53:47.554,8.9984,-0.9385,-0.6771
2026-07-21T15:53:47.580,9.0311,-0.9777,-0.5988
2026-07-21T15:53:47.580,9.0311,-0.9972,-0.6379
2026-07-21T15:53:47.585,9.0459,-0.9189,-0.6184
2026-07-21T15:53:47.601,9.0459,-0.9777,-0.6184
2026-07-21T15:53:47.617,9.0459,-0.9581,-0.5988
2026-07-21T15:53:47.633,9.0939,-0.9385,-0.6575
2026-07-21T15:53:47.633,9.0939,-0.9189,-0.6184
2026-07-21T15:53:47.633,9.0939,-0.9189,-0.6575
2026-07-21T15:53:47.650,9.1108,-0.9189,-0.6967
2026-07-21T15:53:47.664,9.1108,-0.8602,-0.6575
2026-07-21T15:53:47.681,9.1108,-0.9581,-0.54
2026-07-21T15:53:47.696,9.1416,-0.9189,-0.6184
2026-07-21T15:53:47.696,9.1416,-0.9385,-0.6184
2026-07-21T15:53:47.696,9.1416,-0.9189,-0.6967
2026-07-21T15:53:47.712,9.1573,-0.8798,-0.6771
2026-07-21T15:53:47.712,9.1629,-0.8798,-0.6575
2026-07-21T15:53:47.729,9.1629,-0.9581,-0.6575
2026-07-21T15:53:47.729,9.1731,-0.9189,-0.5596
2026-07-21T15:53:47.760,9.1891,-0.8993,-0.5988
2026-07-21T15:53:47.760,9.206,-0.8798,-0.5988
2026-07-21T15:53:47.776,9.2091,-0.8014,-0.5596
2026-07-21T15:53:47.781,9.2123,-0.6252,-0.5596
2026-07-21T15:53:47.792,9.2381,-0.684,-0.5009
2026-07-21T15:53:47.808,9.2381,-0.684,-0.5009
2026-07-21T15:53:47.808,9.2381,-0.6448,-0.5205
2026-07-21T15:53:47.824,9.2381,-0.5273,-0.5205
2026-07-21T15:53:47.831,9.2381,-0.5077,-0.5009
2026-07-21T15:53:47.839,9.2699,-0.5273,-0.4617
2026-07-21T15:53:47.849,9.2699,-0.5077,-0.4813
2026-07-21T15:53:47.857,9.2699,-0.6252,-0.4813
2026-07-21T15:53:47.871,9.3,-0.6056,-0.5205
2026-07-21T15:53:47.888,9.3,-0.684,-0.5205
2026-07-21T15:53:47.888,9.3157,-0.7427,-0.54
2026-07-21T15:53:47.903,9.3157,-0.7035,-0.54
2026-07-21T15:53:47.919,9.3315,-0.6644,-0.5792
2026-07-21T15:53:47.919,9.3483,-0.7035,-0.5596
2026-07-21T15:53:47.934,9.3483,-0.7035,-0.5009
2026-07-21T15:53:47.950,9.3792,-0.7035,-0.4813
2026-07-21T15:53:47.950,9.3792,-0.7035,-0.5009
2026-07-21T15:53:47.967,9.3792,-0.684,-0.5009
2026-07-21T15:53:47.982,9.4304,-0.6644,-0.4813
2026-07-21T15:53:47.982,9.4304,-0.6448,-0.5205
2026-07-21T15:53:47.982,9.4304,-0.6448,-0.5205
2026-07-21T15:53:47.998,9.4435,-0.6252,-0.5205
2026-07-21T15:53:47.998,9.4906,-0.6252,-0.54
2026-07-21T15:53:48.030,9.4906,-0.7035,-0.54
2026-07-21T15:53:48.030,9.4906,-0.684,-0.5009
2026-07-21T15:53:48.045,9.5066,-0.7035,-0.4813
2026-07-21T15:53:48.049,9.5072,-0.7623,-0.5596
2026-07-21T15:53:48.062,9.5072,-0.7819,-0.5009
2026-07-21T15:53:48.062,9.5233,-0.7035,-0.5205
2026-07-21T15:53:48.083,9.5712,-0.8014,-0.4813
2026-07-21T15:53:48.093,9.5712,-0.7231,-0.5205
2026-07-21T15:53:48.093,9.5712,-0.7623,-0.5205
2026-07-21T15:53:48.109,9.5868,-0.7035,-0.5205
2026-07-21T15:53:48.109,9.5868,-0.7035,-0.54
2026-07-21T15:53:48.126,9.5868,-0.7035,-0.4813
2026-07-21T15:53:48.142,9.6027,-0.684,-0.54
2026-07-21T15:53:48.184,9.6653,-0.6448,-0.54
2026-07-21T15:53:48.184,9.6653,-0.6644,-0.54
2026-07-21T15:53:48.184,9.6811,-0.6644,-0.54
2026-07-21T15:53:48.184,9.6811,-0.6448,-0.3638
2026-07-21T15:53:48.190,9.6811,-0.7035,-0.54
2026-07-21T15:53:48.205,9.6811,-0.684,-0.5205
2026-07-21T15:53:48.205,9.6811,-0.6644,-0.5205
2026-07-21T15:53:48.221,9.6969,-0.7427,-0.4813
2026-07-21T15:53:48.221,9.7309,-0.6056,-0.54
2026-07-21T15:53:48.253,9.7309,-0.8406,-0.5205
2026-07-21T15:53:48.253,9.7445,-0.8406,-0.54
2026-07-21T15:53:48.270,9.7445,-0.8798,-0.5792
2026-07-21T15:53:48.284,9.7445,-0.821,-0.5988
2026-07-21T15:53:48.284,9.7445,-0.8798,-0.5596
2026-07-21T15:53:48.284,9.7603,-0.8406,-0.5205
2026-07-21T15:53:48.300,9.7659,-0.8014,-0.5792
2026-07-21T15:53:48.315,9.7659,-0.8014,-0.5792
2026-07-21T15:53:48.315,9.8074,-0.7427,-0.54
2026-07-21T15:53:48.349,9.8232,-0.7623,-0.5205
2026-07-21T15:53:48.349,9.8232,-0.7231,-0.54
2026-07-21T15:53:48.349,9.8232,-0.7035,-0.5205
2026-07-21T15:53:48.363,9.8312,-0.7819,-0.6184
2026-07-21T15:53:48.363,9.8312,-0.8014,-0.5205
2026-07-21T15:53:48.384,9.8312,-0.8798,-0.5205
2026-07-21T15:53:48.395,9.8393,-0.9385,-0.54
2026-07-21T15:53:48.410,9.8708,-0.9777,-0.54
2026-07-21T15:53:48.410,9.8708,-0.9581,-0.6184
2026-07-21T15:53:48.426,9.8708,-0.9777,-0.6184
2026-07-21T15:53:48.426,9.8708,-1.0168,-0.6379
2026-07-21T15:53:48.442,9.8865,-0.9972,-0.54
2026-07-21T15:53:48.458,9.8865,-0.9972,-0.5792
2026-07-21T15:53:48.458,9.8865,-0.8798,-0.5792
2026-07-21T15:53:48.474,9.9341,-0.8798,-0.5596
2026-07-21T15:53:48.485,9.9341,-0.8798,-0.6184
2026-07-21T15:53:48.489,9.951,-0.7231,-0.5988
2026-07-21T15:53:48.505,9.951,-0.8798,-0.5988
2026-07-21T15:53:48.505,9.951,-0.8406,-0.5596
2026-07-21T15:53:48.537,9.9979,-0.8798,-0.5596
2026-07-21T15:53:48.537,9.9979,-0.9189,-0.5792
2026-07-21T15:53:48.553,9.9979,-0.8798,-0.6184
2026-07-21T15:53:48.553,10.0137,-0.8993,-0.54
2026-07-21T15:53:48.568,10.0137,-0.9581,-0.6184
2026-07-21T15:53:48.569,10.0137,-0.9581,-0.5205
2026-07-21T15:53:48.585,10.0294,-0.9777,-0.5988
2026-07-21T15:53:48.616,10.0453,-0.9385,-0.54
2026-07-21T15:53:48.616,10.0453,-1.0364,-0.5792
2026-07-21T15:53:48.616,10.0453,-1.0952,-0.54
2026-07-21T15:53:48.616,10.0453,-0.9581,-0.6379
2026-07-21T15:53:48.632,10.0453,-0.9189,-0.5596
2026-07-21T15:53:48.632,10.061,-0.8993,-0.5792
2026-07-21T15:53:48.664,10.077,-0.9189,-0.5205
2026-07-21T15:53:48.664,10.077,-0.8406,-0.5596
2026-07-21T15:53:48.664,10.0966,-0.821,-0.4226
2026-07-21T15:53:48.685,10.0966,-0.8602,-0.5792
2026-07-21T15:53:48.696,10.1323,-0.8406,-0.5596
2026-07-21T15:53:48.696,10.1323,-0.8602,-0.5205
2026-07-21T15:53:48.715,10.1424,-0.8798,-0.54
2026-07-21T15:53:48.715,10.167,-0.9189,-0.5988
2026-07-21T15:53:48.728,10.1726,-0.9189,-0.5205
2026-07-21T15:53:48.744,10.1726,-0.9777,-0.5792
2026-07-21T15:53:48.759,10.1726,-1.0168,-0.5205
2026-07-21T15:53:48.775,10.2044,-1.0756,-0.5205
2026-07-21T15:53:48.775,10.2044,-1.0364,-0.5988
2026-07-21T15:53:48.785,10.2044,-1.0364,-0.5596
2026-07-21T15:53:48.791,10.2044,-0.9972,-0.54
2026-07-21T15:53:48.791,10.2201,-1.0168,-0.54
2026-07-21T15:53:48.823,10.252,-0.9581,-0.5009
2026-07-21T15:53:48.823,10.252,-0.9189,-0.5792
2026-07-21T15:53:48.823,10.252,-0.9777,-0.4813
2026-07-21T15:53:48.839,10.252,-0.821,-0.5596
2026-07-21T15:53:48.855,10.2833,-0.9189,-0.5792
2026-07-21T15:53:48.855,10.2833,-0.8602,-0.54
2026-07-21T15:53:48.870,10.2833,-0.8798,-0.54
2026-07-21T15:53:48.870,10.3152,-0.8993,-0.5596
2026-07-21T15:53:48.902,10.3152,-0.8798,-0.5596
2026-07-21T15:53:48.902,10.3152,-0.9777,-0.5792
2026-07-21T15:53:48.902,10.3152,-0.9972,-0.5792
2026-07-21T15:53:48.933,10.3464,-1.0168,-0.5792
2026-07-21T15:53:48.934,10.3464,-1.0168,-0.5792
2026-07-21T15:53:48.934,10.3622,-1.0364,-0.54
2026-07-21T15:53:48.965,10.3942,-1.0168,-0.5792
2026-07-21T15:53:48.965,10.3942,-0.9972,-0.5792
2026-07-21T15:53:48.965,10.3942,-0.9777,-0.5009
2026-07-21T15:53:48.981,10.3942,-0.9385,-0.6184
2026-07-21T15:53:48.997,10.4256,-0.9385,-0.54
2026-07-21T15:53:48.997,10.4325,-0.8993,-0.5205
2026-07-21T15:53:49.013,10.4325,-0.9189,-0.5205
2026-07-21T15:53:49.013,10.4416,-0.9189,-0.4813
2026-07-21T15:53:49.044,10.4745,-0.8993,-0.54
2026-07-21T15:53:49.044,10.4745,-0.9189,-0.4617
2026-07-21T15:53:49.051,10.4745,-0.9777,-0.5205
2026-07-21T15:53:49.060,10.486,-0.8993,-0.5988
2026-07-21T15:53:49.076,10.5069,-0.9189,-0.5205
2026-07-21T15:53:49.086,10.5069,-0.9385,-0.5596
2026-07-21T15:53:49.093,10.5069,-0.9581,-0.5205
2026-07-21T15:53:49.105,10.5221,-0.9385,-0.5009
2026-07-21T15:53:49.125,10.5388,-0.9972,-0.5009
2026-07-21T15:53:49.125,10.5388,-0.9972,-0.5596
2026-07-21T15:53:49.125,10.5547,-0.9972,-0.54
2026-07-21T15:53:49.141,10.5547,-0.9385,-0.5596
2026-07-21T15:53:49.157,10.5819,-0.9972,-0.5988
2026-07-21T15:53:49.157,10.5832,-0.9777,-0.4813
2026-07-21T15:53:49.173,10.5852,-0.9581,-0.5009
2026-07-21T15:53:49.189,10.6014,-1.0364,-0.54
2026-07-21T15:53:49.189,10.6014,-1.0364,-0.5596
2026-07-21T15:53:49.204,10.6174,-0.9777,-0.5792
2026-07-21T15:53:49.220,10.6331,-0.9189,-0.5009
2026-07-21T15:53:49.220,10.6331,-0.9189,-0.54
2026-07-21T15:53:49.220,10.6489,-0.9777,-0.4226
2026-07-21T15:53:49.252,10.6687,-0.9189,-0.54
2026-07-21T15:53:49.252,10.6687,-0.9581,-0.5205
2026-07-21T15:53:49.252,10.6813,-0.9385,-0.5205
2026-07-21T15:53:49.287,10.7041,-0.8993,-0.5205
2026-07-21T15:53:49.287,10.7041,-0.8993,-0.54
2026-07-21T15:53:49.287,10.7041,-0.9385,-0.54
2026-07-21T15:53:49.315,10.7331,-0.9972,-0.5009
2026-07-21T15:53:49.315,10.7331,-0.9777,-0.4813
2026-07-21T15:53:49.323,10.7331,-0.9581,-0.5988
2026-07-21T15:53:49.347,10.7599,-0.9385,-0.54
2026-07-21T15:53:49.347,10.7599,-0.9581,-0.5205
2026-07-21T15:53:49.352,10.769,-0.8602,-0.54
2026-07-21T15:53:49.363,10.7757,-0.9581,-0.6184
2026-07-21T15:53:49.378,10.7919,-0.8993,-0.5009
2026-07-21T15:53:49.378,10.7919,-0.9189,-0.54
2026-07-21T15:53:49.394,10.8082,-0.8798,-0.5205
2026-07-21T15:53:49.394,10.8082,-0.821,-0.4617
2026-07-21T15:53:49.410,10.8082,-0.8014,-0.4617
2026-07-21T15:53:49.427,10.8393,-0.8602,-0.5596
2026-07-21T15:53:49.427,10.8393,-0.8602,-0.5596
2026-07-21T15:53:49.443,10.855,-0.8798,-0.5988
2026-07-21T15:53:49.458,10.8692,-0.8406,-0.4813
2026-07-21T15:53:49.458,10.871,-0.8014,-0.5205
2026-07-21T15:53:49.474,10.8873,-0.8014,-0.5988
2026-07-21T15:53:49.474,10.8873,-0.7231,-0.5792
2026-07-21T15:53:49.506,10.9191,-0.7819,-0.5792
2026-07-21T15:53:49.506,10.9191,-0.6252,-0.5009
2026-07-21T15:53:49.506,10.9191,-0.6252,-0.4813
2026-07-21T15:53:49.522,10.9349,-0.6448,-0.5205
2026-07-21T15:53:49.538,10.9349,-0.5665,-0.5205
2026-07-21T15:53:49.538,10.9516,-0.5861,-0.54
2026-07-21T15:53:49.553,10.9697,-0.5469,-0.5205
2026-07-21T15:53:49.553,10.9697,-0.4686,-0.4813
2026-07-21T15:53:49.570,10.9987,-0.4686,-0.5009
2026-07-21T15:53:49.588,10.9987,-0.4294,-0.5009
2026-07-21T15:53:49.588,10.9987,-0.3707,-0.4617
2026-07-21T15:53:49.617,11.0303,-0.3315,-0.4813
2026-07-21T15:53:49.617,11.0335,-0.2336,-0.4421
2026-07-21T15:53:49.617,11.0335,-0.214,-0.4421
2026-07-21T15:53:49.633,11.0619,-0.0965,-0.4421
2026-07-21T15:53:49.649,11.0619,-0.0378,-0.3834
2026-07-21T15:53:49.652,11.0619,-0.077,-0.3834
2026-07-21T15:53:49.664,11.0944,-0.0182,-0.403
2026-07-21T15:53:49.664,11.0944,0.021,-0.3834
2026-07-21T15:53:49.680,11.0944,0.1189,-0.3442
2026-07-21T15:53:49.697,11.1267,0.0601,-0.2659
2026-07-21T15:53:49.704,11.1267,0.1384,-0.3442
2026-07-21T15:53:49.713,11.1335,0.3147,-0.2855
2026-07-21T15:53:49.713,11.1416,0.3147,-0.2855
2026-07-21T15:53:49.729,11.1578,0.2755,-0.1484
2026-07-21T15:53:49.745,11.1578,0.2755,-0.2072
2026-07-21T15:53:49.752,11.1578,0.3538,-0.1876
2026-07-21T15:53:49.760,11.1735,0.3538,-0.168
2026-07-21T15:53:49.760,11.1895,0.3538,-0.1484
2026-07-21T15:53:49.776,11.2053,0.3147,-0.2267
2026-07-21T15:53:49.792,11.2053,0.2168,-0.1876
2026-07-21T15:53:49.792,11.2215,0.2755,-0.2267
2026-07-21T15:53:49.824,11.2375,0.2168,-0.3051
2026-07-21T15:53:49.824,11.2375,0.2559,-0.2463
2026-07-21T15:53:49.824,11.2375,0.2168,-0.2463
2026-07-21T15:53:49.840,11.2375,0.2363,-0.2855
2026-07-21T15:53:49.856,11.286,0.1776,-0.3246
2026-07-21T15:53:49.856,11.286,0.2168,-0.2659
2026-07-21T15:53:49.872,11.3177,0.2363,-0.2855
2026-07-21T15:53:49.872,11.3177,0.2363,-0.2072
2026-07-21T15:53:49.889,11.3177,0.1776,-0.2463
2026-07-21T15:53:49.905,11.3177,0.2363,-0.2463
2026-07-21T15:53:49.920,11.35,0.2559,-0.2463
2026-07-21T15:53:49.920,11.35,0.2951,-0.2659
2026-07-21T15:53:49.920,11.35,0.2363,-0.2267
2026-07-21T15:53:49.936,11.35,0.2363,-0.2267
2026-07-21T15:53:49.968,11.3809,0.2168,-0.2463
2026-07-21T15:53:49.968,11.3809,0.1972,-0.2659
2026-07-21T15:53:49.968,11.3977,0.1972,-0.2855
2026-07-21T15:53:49.990,11.4129,0.1972,-0.1876
2026-07-21T15:53:49.999,11.4129,0.2363,-0.2463
2026-07-21T15:53:49.999,11.4288,0.158,-0.2855
2026-07-21T15:53:50.016,11.4288,0.2363,-0.2072
2026-07-21T15:53:50.016,11.4338,0.158,-0.2267
2026-07-21T15:53:50.031,11.4608,0.2559,-0.1876
2026-07-21T15:53:50.031,11.4608,0.2559,-0.2072
2026-07-21T15:53:50.052,11.4608,0.1972,-0.2463
2026-07-21T15:53:50.063,11.4776,0.2559,-0.2267
2026-07-21T15:53:50.063,11.4776,0.2168,-0.2072
2026-07-21T15:53:50.079,11.4936,0.2755,-0.2267
2026-07-21T15:53:50.096,11.5193,0.2363,-0.168
2026-07-21T15:53:50.096,11.5193,0.2363,-0.1484
2026-07-21T15:53:50.112,11.5254,0.1972,-0.1093
2026-07-21T15:53:50.127,11.5401,0.2755,-0.1484
2026-07-21T15:53:50.137,11.5401,0.2168,-0.1876
2026-07-21T15:53:50.144,11.5401,0.2363,-0.168
2026-07-21T15:53:50.159,11.5567,0.2559,-0.2072
2026-07-21T15:53:50.159,11.5567,0.2168,-0.1484
2026-07-21T15:53:50.175,11.5907,0.2559,-0.1876
2026-07-21T15:53:50.175,11.5907,0.2363,-0.1093
2026-07-21T15:53:50.209,11.6202,0.2559,-0.2072
2026-07-21T15:53:50.209,11.6202,0.2559,-0.2072
2026-07-21T15:53:50.209,11.6202,0.2363,-0.168
2026-07-21T15:53:50.222,11.6373,0.2755,-0.1484
2026-07-21T15:53:50.222,11.6373,0.1972,-0.0897
2026-07-21T15:53:50.239,11.6513,0.1776,-0.1093
