wall_time,elapsed_s,F1_N,F2_N
2026-07-23T16:03:19.703,260.6935,-1.7981,-0.8796
2026-07-23T16:03:19.712,260.6935,-1.7394,-0.86
2026-07-23T16:03:19.728,260.6935,-1.8568,-0.86
2026-07-23T16:03:19.735,260.7254,-1.7002,-0.8796
2026-07-23T16:03:19.744,260.7254,-1.7785,-0.8404
2026-07-23T16:03:19.744,260.7254,-1.7981,-0.9187
2026-07-23T16:03:19.775,260.7555,-1.7589,-0.86
2026-07-23T16:03:19.776,260.7555,-1.7589,-0.8991
2026-07-23T16:03:19.790,260.7805,-1.7785,-0.8796
2026-07-23T16:03:19.790,260.7826,-1.7785,-0.8796
2026-07-23T16:03:19.806,260.7826,-1.7981,-0.8404
2026-07-23T16:03:19.828,260.8064,-1.7785,-0.8208
2026-07-23T16:03:19.828,260.8132,-1.8373,-0.86
2026-07-23T16:03:19.838,260.8132,-1.7785,-0.8991
2026-07-23T16:03:19.841,260.8343,-1.7981,-0.8796
2026-07-23T16:03:19.857,260.8398,-1.7198,-0.86
2026-07-23T16:03:19.864,260.8439,-1.7981,-0.9187
2026-07-23T16:03:19.878,260.8669,-1.7394,-0.8404
2026-07-23T16:03:19.885,260.8669,-1.8177,-0.9579
2026-07-23T16:03:19.895,260.8669,-1.7589,-0.8208
2026-07-23T16:03:19.911,260.8928,-1.8373,-0.8208
2026-07-23T16:03:19.911,260.8928,-1.7002,-0.8796
2026-07-23T16:03:19.941,260.9135,-1.8373,-0.9187
2026-07-23T16:03:19.941,260.9135,-1.661,-0.8796
2026-07-23T16:03:19.944,260.9296,-1.7981,-0.86
2026-07-23T16:03:19.964,260.9442,-1.7002,-0.8991
2026-07-23T16:03:19.964,260.9452,-1.8177,-0.8991
2026-07-23T16:03:19.980,260.9609,-1.7002,-0.8404
2026-07-23T16:03:19.980,260.9609,-1.7589,-0.8404
2026-07-23T16:03:19.996,260.9731,-1.6806,-0.8991
2026-07-23T16:03:20.005,260.9927,-1.7002,-0.8796
2026-07-23T16:03:20.012,260.9927,-1.6806,-0.8796
2026-07-23T16:03:20.024,261.0241,-1.8177,-0.86
2026-07-23T16:03:20.043,261.0276,-1.7198,-0.86
2026-07-23T16:03:20.043,261.0276,-1.7589,-0.8208
2026-07-23T16:03:20.059,261.0398,-1.7198,-0.8404
2026-07-23T16:03:20.065,261.0556,-1.8177,-0.8208
2026-07-23T16:03:20.076,261.0556,-1.7589,-0.9383
2026-07-23T16:03:20.091,261.0733,-1.7198,-0.8991
2026-07-23T16:03:20.091,261.0733,-1.7198,-0.8796
2026-07-23T16:03:20.106,261.0869,-1.8373,-0.8796
2026-07-23T16:03:20.120,261.1101,-1.7198,-0.8404
2026-07-23T16:03:20.124,261.1107,-1.7785,-0.8991
2026-07-23T16:03:20.138,261.1144,-1.6806,-0.8208
2026-07-23T16:03:20.158,261.1398,-1.8764,-0.8404
2026-07-23T16:03:20.158,261.1398,-1.6806,-0.8404
2026-07-23T16:03:20.165,261.1426,-1.8373,-0.8404
2026-07-23T16:03:20.186,261.1673,-1.7198,-0.8208
2026-07-23T16:03:20.186,261.1673,-1.8764,-0.8208
2026-07-23T16:03:20.201,261.1943,-1.661,-0.8796
2026-07-23T16:03:20.204,261.1943,-1.8568,-0.7621
2026-07-23T16:03:20.218,261.1973,-1.7394,-0.86
2026-07-23T16:03:20.228,261.2144,-1.7981,-0.86
2026-07-23T16:03:20.242,261.2144,-1.7394,-0.86
2026-07-23T16:03:20.248,261.2144,-1.7394,-0.8796
2026-07-23T16:03:20.257,261.2443,-1.7394,-0.8796
2026-07-23T16:03:20.265,261.2443,-1.8373,-0.9383
2026-07-23T16:03:20.265,261.2443,-1.7394,-0.8796
2026-07-23T16:03:20.295,261.2782,-1.7589,-0.8404
2026-07-23T16:03:20.295,261.2782,-1.661,-0.8991
2026-07-23T16:03:20.308,261.3064,-1.7981,-0.8796
2026-07-23T16:03:20.326,261.3064,-1.7394,-0.8012
2026-07-23T16:03:20.326,261.3064,-1.7981,-0.9383
2026-07-23T16:03:20.337,261.3064,-1.7002,-0.8012
2026-07-23T16:03:20.343,261.3224,-1.7785,-0.9775
2026-07-23T16:03:20.357,261.3397,-1.6806,-0.8404
2026-07-23T16:03:20.365,261.3397,-1.8177,-0.8012
2026-07-23T16:03:20.373,261.3615,-1.661,-0.8796
2026-07-23T16:03:20.373,261.3698,-1.8764,-0.8404
2026-07-23T16:03:20.391,261.3978,-1.6415,-0.9383
2026-07-23T16:03:20.405,261.3978,-1.8177,-0.8208
2026-07-23T16:03:20.412,261.4019,-1.7002,-0.8796
2026-07-23T16:03:20.424,261.4179,-1.8373,-0.8208
2026-07-23T16:03:20.437,261.4179,-1.7002,-0.8404
2026-07-23T16:03:20.448,261.4299,-1.7589,-0.86
2026-07-23T16:03:20.453,261.4336,-1.6806,-0.8404
2026-07-23T16:03:20.469,261.4493,-1.8177,-0.8208
2026-07-23T16:03:20.469,261.4493,-1.7198,-0.8796
2026-07-23T16:03:20.493,261.4816,-1.7981,-0.8404
2026-07-23T16:03:20.500,261.4816,-1.7589,-0.8404
2026-07-23T16:03:20.500,261.4816,-1.7394,-0.86
2026-07-23T16:03:20.516,261.5083,-1.7198,-0.8208
2026-07-23T16:03:20.524,261.5083,-1.7981,-0.8991
2026-07-23T16:03:20.538,261.528,-1.7589,-0.8208
2026-07-23T16:03:20.547,261.528,-1.7198,-0.8991
2026-07-23T16:03:20.559,261.528,-1.7394,-0.8796
2026-07-23T16:03:20.566,261.5596,-1.8373,-0.86
2026-07-23T16:03:20.579,261.5596,-1.7002,-0.8404
2026-07-23T16:03:20.579,261.5596,-1.8177,-0.8991
2026-07-23T16:03:20.597,261.5754,-1.661,-0.86
2026-07-23T16:03:20.597,261.5754,-1.8373,-0.8208
2026-07-23T16:03:20.610,261.5913,-1.6219,-0.8796
2026-07-23T16:03:20.626,261.6115,-1.8568,-0.8796
2026-07-23T16:03:20.626,261.6156,-1.661,-0.86
2026-07-23T16:03:20.652,261.6398,-1.8764,-0.8404
2026-07-23T16:03:20.662,261.6398,-1.661,-0.7425
2026-07-23T16:03:20.668,261.6398,-1.8177,-0.8404
2026-07-23T16:03:20.676,261.6547,-1.7002,-0.8796
2026-07-23T16:03:20.676,261.6547,-1.7981,-0.8404
2026-07-23T16:03:20.701,261.6894,-1.7589,-0.86
2026-07-23T16:03:20.706,261.6914,-1.7785,-0.8991
2026-07-23T16:03:20.706,261.6914,-1.7198,-0.8012
2026-07-23T16:03:20.737,261.7158,-1.8177,-0.8012
2026-07-23T16:03:20.737,261.7178,-1.7394,-0.8012
2026-07-23T16:03:20.753,261.7398,-1.7785,-0.8991
2026-07-23T16:03:20.757,261.7398,-1.7394,-0.8404
2026-07-23T16:03:20.769,261.7398,-1.7589,-0.8796
2026-07-23T16:03:20.778,261.7668,-1.7002,-0.8208
2026-07-23T16:03:20.787,261.7688,-1.8568,-0.86
2026-07-23T16:03:20.791,261.7688,-1.661,-0.8208
2026-07-23T16:03:20.816,261.7936,-1.8764,-0.86
2026-07-23T16:03:20.816,261.7936,-1.661,-0.8796
2026-07-23T16:03:20.832,261.82,-1.896,-0.8012
2026-07-23T16:03:20.842,261.82,-1.661,-0.86
2026-07-23T16:03:20.848,261.8251,-1.8568,-0.8208
2026-07-23T16:03:20.857,261.8439,-1.6415,-0.8991
2026-07-23T16:03:20.867,261.8439,-1.8764,-0.7229
2026-07-23T16:03:20.876,261.8732,-1.7198,-0.8796
2026-07-23T16:03:20.879,261.8732,-1.8177,-0.8404
2026-07-23T16:03:20.895,261.8759,-1.7394,-0.86
2026-07-23T16:03:20.912,261.8987,-1.7981,-0.86
2026-07-23T16:03:20.912,261.9007,-1.8373,-0.8991
2026-07-23T16:03:20.927,261.9007,-1.8373,-0.8208
2026-07-23T16:03:20.944,261.9275,-1.7589,-0.9187
2026-07-23T16:03:20.944,261.9295,-1.7785,-0.8991
2026-07-23T16:03:20.954,261.9451,-1.8373,-0.8404
2026-07-23T16:03:20.974,261.9577,-1.896,-0.9383
2026-07-23T16:03:20.978,261.9577,-1.8568,-0.8991
2026-07-23T16:03:20.996,261.9729,-1.9743,-0.8991
2026-07-23T16:03:20.996,261.9729,-1.8568,-0.8404
2026-07-23T16:03:21.008,261.987,-1.9547,-0.9579
2026-07-23T16:03:21.022,262.0065,-1.8177,-0.9187
2026-07-23T16:03:21.024,262.0065,-2.0527,-0.9383
2026-07-23T16:03:21.038,262.0065,-1.8373,-0.9775
2026-07-23T16:03:21.057,262.0398,-2.0331,-0.9579
2026-07-23T16:03:21.057,262.0398,-1.8764,-0.9579
2026-07-23T16:03:21.057,262.0464,-2.0918,-0.9775
2026-07-23T16:03:21.085,262.0704,-1.896,-0.9187
2026-07-23T16:03:21.086,262.0704,-2.131,-0.9775
2026-07-23T16:03:21.097,262.0976,-1.9547,-1.0362
2026-07-23T16:03:21.102,262.0976,-2.0331,-0.9971
2026-07-23T16:03:21.121,262.0976,-1.9547,-1.0166
2026-07-23T16:03:21.126,262.1065,-2.0331,-0.9971
2026-07-23T16:03:21.136,262.1301,-1.9939,-1.0558
2026-07-23T16:03:21.148,262.1301,-2.0527,-1.0754
2026-07-23T16:03:21.157,262.1352,-2.0331,-1.0166
2026-07-23T16:03:21.168,262.1613,-2.0527,-1.0558
2026-07-23T16:03:21.168,262.1613,-2.0331,-1.0362
2026-07-23T16:03:21.186,262.1769,-2.1506,-1.0754
2026-07-23T16:03:21.196,262.1919,-2.0918,-1.0754
2026-07-23T16:03:21.204,262.193,-2.0918,-1.0166
2026-07-23T16:03:21.212,262.1955,-2.0722,-1.0558
2026-07-23T16:03:21.228,262.218,-2.1114,-1.095
2026-07-23T16:03:21.228,262.218,-2.0135,-1.095
2026-07-23T16:03:21.246,262.2255,-2.1114,-1.1537
2026-07-23T16:03:21.269,262.2414,-2.0331,-1.0362
2026-07-23T16:03:21.269,262.2414,-2.2485,-1.1145
2026-07-23T16:03:21.276,262.2557,-2.0527,-1.1341
2026-07-23T16:03:21.288,262.2788,-2.268,-1.0754
2026-07-23T16:03:21.292,262.2788,-2.1114,-1.095
2026-07-23T16:03:21.306,262.2788,-2.2485,-1.0754
2026-07-23T16:03:21.317,262.3109,-2.1114,-1.1145
2026-07-23T16:03:21.324,262.3146,-2.3072,-1.095
2026-07-23T16:03:21.330,262.3204,-2.131,-1.2124
2026-07-23T16:03:21.347,262.3448,-2.1897,-1.1145
2026-07-23T16:03:21.357,262.3448,-2.1701,-1.0754
2026-07-23T16:03:21.371,262.3501,-2.2093,-1.0754
2026-07-23T16:03:21.371,262.3732,-2.1506,-1.1341
2026-07-23T16:03:21.391,262.3732,-2.2485,-1.095
2026-07-23T16:03:21.396,262.3732,-2.2093,-1.095
2026-07-23T16:03:21.401,262.407,-2.2289,-1.1733
2026-07-23T16:03:21.421,262.407,-2.2876,-1.1341
2026-07-23T16:03:21.424,262.407,-2.268,-1.1733
2026-07-23T16:03:21.432,262.4289,-2.2093,-1.0754
2026-07-23T16:03:21.448,262.4401,-2.2876,-1.1537
2026-07-23T16:03:21.458,262.4446,-2.2289,-1.1341
2026-07-23T16:03:21.472,262.4602,-2.3268,-1.1537
2026-07-23T16:03:21.480,262.4732,-2.1897,-1.1929
2026-07-23T16:03:21.480,262.4759,-2.3659,-1.095
2026-07-23T16:03:21.498,262.4759,-2.1701,-1.1733
2026-07-23T16:03:21.511,262.5064,-2.2876,-1.1733
2026-07-23T16:03:21.511,262.5074,-2.131,-1.1733
2026-07-23T16:03:21.527,262.5104,-2.3072,-1.1929
2026-07-23T16:03:21.539,262.5291,-2.1897,-1.1733
2026-07-23T16:03:21.544,262.5396,-2.2485,-1.1341
2026-07-23T16:03:21.558,262.5396,-2.1701,-1.232
2026-07-23T16:03:21.561,262.5396,-2.2485,-1.1929
2026-07-23T16:03:21.580,262.5708,-2.2485,-1.2124
2026-07-23T16:03:21.580,262.5708,-2.2289,-1.1929
2026-07-23T16:03:21.606,262.5929,-2.1897,-1.1929
2026-07-23T16:03:21.612,262.6026,-2.1897,-1.1929
2026-07-23T16:03:21.612,262.6026,-2.1897,-1.2516
2026-07-23T16:03:21.628,262.6065,-2.2485,-1.2124
2026-07-23T16:03:21.644,262.6285,-2.1506,-1.095
2026-07-23T16:03:21.644,262.6285,-2.2289,-1.232
2026-07-23T16:03:21.657,262.6339,-2.131,-1.2124
2026-07-23T16:03:21.671,262.6542,-2.2289,-1.1733
2026-07-23T16:03:21.685,262.6542,-2.1114,-1.095
2026-07-23T16:03:21.685,262.6812,-2.2289,-1.1537
2026-07-23T16:03:21.691,262.6812,-2.0918,-1.1733
2026-07-23T16:03:21.705,262.6812,-2.1897,-1.1929
2026-07-23T16:03:21.716,262.7148,-2.0918,-1.232
2026-07-23T16:03:21.732,262.7188,-2.1506,-1.1341
2026-07-23T16:03:21.732,262.7203,-1.9939,-1.2516
2026-07-23T16:03:21.744,262.744,-2.1701,-1.1537
2026-07-23T16:03:21.764,262.752,-2.0527,-1.232
2026-07-23T16:03:21.770,262.752,-2.0331,-1.2124
2026-07-23T16:03:21.779,262.7754,-2.0722,-1.2124
2026-07-23T16:03:21.788,262.7791,-2.1114,-1.1929
2026-07-23T16:03:21.795,262.7791,-2.1506,-1.232
2026-07-23T16:03:21.808,262.7871,-2.1114,-1.2516
2026-07-23T16:03:21.826,262.8065,-2.0918,-1.3103
2026-07-23T16:03:21.830,262.8065,-2.1701,-1.3299
2026-07-23T16:03:21.838,262.8065,-2.1897,-1.2908
2026-07-23T16:03:21.857,262.8417,-2.1114,-1.2908
2026-07-23T16:03:21.857,262.8417,-2.131,-1.232
2026-07-23T16:03:21.857,262.8496,-2.131,-1.2712
2026-07-23T16:03:21.877,262.8733,-2.0135,-1.1929
2026-07-23T16:03:21.892,262.8733,-2.0918,-1.1929
2026-07-23T16:03:21.900,262.8733,-1.9547,-1.0754
2026-07-23T16:03:21.907,262.9029,-2.0527,-1.1145
2026-07-23T16:03:21.920,262.9044,-1.9939,-1.095
2026-07-23T16:03:21.924,262.9065,-1.9743,-1.095
2026-07-23T16:03:21.936,262.9335,-1.9352,-1.1733
2026-07-23T16:03:21.944,262.9335,-2.0527,-0.9775
2026-07-23T16:03:21.957,262.938,-2.0722,-1.1145
2026-07-23T16:03:21.969,262.9668,-2.0331,-1.0558
2026-07-23T16:03:21.972,262.9668,-1.9743,-1.1145
2026-07-23T16:03:21.989,262.9732,-1.9939,-1.0754
2026-07-23T16:03:21.999,262.996,-2.0135,-1.1341
2026-07-23T16:03:21.999,262.996,-1.9352,-1.095
2026-07-23T16:03:22.018,262.996,-1.9743,-1.0754
2026-07-23T16:03:22.033,263.0239,-1.9939,-1.095
2026-07-23T16:03:22.044,263.0283,-2.0135,-1.095
2026-07-23T16:03:22.047,263.0294,-1.9743,-1.1341
2026-07-23T16:03:22.062,263.0432,-2.0722,-1.1341
2026-07-23T16:03:22.072,263.0432,-1.9939,-1.1341
2026-07-23T16:03:22.080,263.0582,-2.0135,-1.0754
2026-07-23T16:03:22.091,263.0817,-2.0135,-1.0754
2026-07-23T16:03:22.094,263.0817,-1.9352,-1.0754
2026-07-23T16:03:22.109,263.0817,-2.0722,-1.0362
2026-07-23T16:03:22.110,263.1084,-1.9547,-1.0754
2026-07-23T16:03:22.126,263.1084,-2.0135,-1.1341
2026-07-23T16:03:22.132,263.1366,-1.7785,-1.1145
2026-07-23T16:03:22.146,263.1376,-2.0918,-1.0558
2026-07-23T16:03:22.159,263.1376,-2.0527,-1.1145
2026-07-23T16:03:22.164,263.1552,-2.1114,-1.0754
2026-07-23T16:03:22.174,263.1552,-2.0527,-1.095
2026-07-23T16:03:22.188,263.1699,-2.0918,-1.0558
2026-07-23T16:03:22.206,263.1901,-2.1114,-1.1341
2026-07-23T16:03:22.206,263.1932,-2.0722,-1.0754
2026-07-23T16:03:22.206,263.1932,-2.2093,-1.1145
2026-07-23T16:03:22.236,263.2159,-2.1114,-1.0754
2026-07-23T16:03:22.236,263.2159,-2.2093,-1.1145
2026-07-23T16:03:22.251,263.2397,-2.131,-1.0558
2026-07-23T16:03:22.257,263.2475,-2.1701,-1.0754
2026-07-23T16:03:22.267,263.2475,-2.0918,-1.0754
2026-07-23T16:03:22.290,263.277,-2.2289,-1.0754
2026-07-23T16:03:22.290,263.277,-2.131,-1.1537
2026-07-23T16:03:22.298,263.2798,-2.2093,-1.1145
2026-07-23T16:03:22.314,263.3068,-2.2093,-1.1537
2026-07-23T16:03:22.324,263.3068,-2.1506,-1.0362
2026-07-23T16:03:22.328,263.3068,-2.2289,-1.1733
2026-07-23T16:03:22.335,263.3334,-2.2093,-1.1341
2026-07-23T16:03:22.347,263.3401,-2.268,-1.1341
2026-07-23T16:03:22.358,263.3428,-2.1701,-1.1537
2026-07-23T16:03:22.384,263.3681,-2.3268,-1.1733
2026-07-23T16:03:22.384,263.3732,-2.268,-1.1537
2026-07-23T16:03:22.391,263.3742,-2.268,-1.1733
2026-07-23T16:03:22.394,263.3979,-2.2485,-1.1537
2026-07-23T16:03:22.414,263.3979,-2.2289,-1.1341
2026-07-23T16:03:22.425,263.4056,-2.2485,-1.2124
2026-07-23T16:03:22.425,263.4228,-2.1506,-1.2516
2026-07-23T16:03:22.444,263.4228,-2.1897,-1.3103
2026-07-23T16:03:22.444,263.4228,-2.131,-1.3103
2026-07-23T16:03:22.458,263.4528,-2.2485,-1.3887
2026-07-23T16:03:22.458,263.4634,-2.2876,-1.3691
2026-07-23T16:03:22.474,263.4676,-2.4638,-1.467
2026-07-23T16:03:22.489,263.4707,-2.4051,-1.5257
2026-07-23T16:03:22.504,263.5004,-2.5618,-1.5649
2026-07-23T16:03:22.504,263.5004,-2.5226,-1.5453
2026-07-23T16:03:22.521,263.5067,-2.503,-1.5257
2026-07-23T16:03:22.544,263.54,-2.5422,-1.5845
2026-07-23T16:03:22.544,263.54,-2.6009,-1.5845
2026-07-23T16:03:22.551,263.54,-2.5813,-1.6041
2026-07-23T16:03:22.558,263.548,-2.4834,-1.6628
2026-07-23T16:03:22.574,263.5795,-2.5813,-1.6236
2026-07-23T16:03:22.583,263.5848,-2.503,-1.6432
2026-07-23T16:03:22.591,263.5868,-2.503,-1.6041
2026-07-23T16:03:22.599,263.5952,-2.4638,-1.6824
2026-07-23T16:03:22.624,263.6267,-2.4443,-1.6628
2026-07-23T16:03:22.624,263.6267,-2.3659,-1.6824
2026-07-23T16:03:22.624,263.6267,-2.2876,-1.6628
2026-07-23T16:03:22.638,263.637,-2.3072,-1.6824
2026-07-23T16:03:22.648,263.6404,-2.268,-1.6628
2026-07-23T16:03:22.664,263.6581,-2.2876,-1.6824
2026-07-23T16:03:22.664,263.6581,-2.2093,-1.6236
2026-07-23T16:03:22.682,263.6768,-2.3268,-1.6041
2026-07-23T16:03:22.691,263.6795,-2.2289,-1.6236
2026-07-23T16:03:22.709,263.7145,-2.268,-1.5453
2026-07-23T16:03:22.709,263.7194,-2.1701,-1.5062
2026-07-23T16:03:22.709,263.7211,-2.2876,-1.5257
2026-07-23T16:03:22.730,263.7241,-2.1897,-1.4474
2026-07-23T16:03:22.738,263.7241,-2.2289,-1.5062
2026-07-23T16:03:22.757,263.7528,-2.1701,-1.5062
2026-07-23T16:03:22.757,263.7528,-2.2093,-1.4278
2026-07-23T16:03:22.770,263.7674,-2.1897,-1.4474
2026-07-23T16:03:22.775,263.7732,-2.2093,-1.3887
2026-07-23T16:03:22.804,263.8065,-2.2289,-1.3887
2026-07-23T16:03:22.804,263.8065,-2.2289,-1.4474
2026-07-23T16:03:22.804,263.8099,-2.2289,-1.3887
2026-07-23T16:03:22.820,263.8159,-2.2485,-1.3887
2026-07-23T16:03:22.824,263.8459,-2.1506,-1.3691
2026-07-23T16:03:22.851,263.8513,-2.2876,-1.3299
2026-07-23T16:03:22.851,263.8563,-2.1506,-1.3299
2026-07-23T16:03:22.861,263.8613,-2.2876,-1.2712
2026-07-23T16:03:22.869,263.8671,-2.1897,-1.2516
2026-07-23T16:03:22.882,263.9038,-2.268,-1.2124
2026-07-23T16:03:22.891,263.9069,-2.1897,-1.2516
2026-07-23T16:03:22.898,263.9105,-2.3268,-1.2124
2026-07-23T16:03:22.914,263.917,-2.131,-1.2712
2026-07-23T16:03:22.918,263.9209,-2.2876,-1.1929
2026-07-23T16:03:22.933,263.9579,-2.2485,-1.2124
2026-07-23T16:03:22.946,263.9589,-2.3072,-1.095
2026-07-23T16:03:22.955,263.9642,-2.268,-1.1733
2026-07-23T16:03:22.958,263.9642,-2.268,-1.1537
2026-07-23T16:03:22.968,263.9642,-2.268,-1.1537
2026-07-23T16:03:22.982,264.0048,-2.3268,-1.0166
2026-07-23T16:03:22.998,264.009,-2.2876,-1.0558
2026-07-23T16:03:22.998,264.009,-2.2876,-0.9971
2026-07-23T16:03:23.010,264.0142,-2.268,-0.9579
2026-07-23T16:03:23.015,264.0176,-2.2485,-0.9579
2026-07-23T16:03:23.027,264.025,-2.2093,-0.9187
2026-07-23T16:03:23.044,264.0604,-2.1701,-0.8796
2026-07-23T16:03:23.053,264.0604,-2.1114,-0.7425
2026-07-23T16:03:23.060,264.0703,-2.2289,-0.7621
2026-07-23T16:03:23.068,264.0769,-1.9547,-0.625
2026-07-23T16:03:23.076,264.0769,-2.0918,-0.625
2026-07-23T16:03:23.099,264.1106,-1.8373,-0.5075
2026-07-23T16:03:23.103,264.1141,-1.9743,-0.4488
2026-07-23T16:03:23.111,264.1159,-1.7785,-0.3509
2026-07-23T16:03:23.121,264.1254,-1.8764,-0.39
2026-07-23T16:03:23.128,264.1254,-1.7002,-0.3313
2026-07-23T16:03:23.145,264.1558,-1.8764,-0.2334
2026-07-23T16:03:23.157,264.1558,-1.7198,-0.3117
2026-07-23T16:03:23.165,264.1628,-1.8177,-0.2138
2026-07-23T16:03:23.167,264.1628,-1.7394,-0.253
2026-07-23T16:03:23.176,264.1733,-1.7394,-0.1355
2026-07-23T16:03:23.191,264.2006,-1.7589,-0.1551
2026-07-23T16:03:23.198,264.2066,-1.6806,-0.0768
2026-07-23T16:03:23.207,264.2121,-1.6806,-0.1355
2026-07-23T16:03:23.226,264.2174,-1.7002,0.0016
2026-07-23T16:03:23.246,264.2461,-1.5631,0.0016
2026-07-23T16:03:23.246,264.2461,-1.5631,0.0799
2026-07-23T16:03:23.251,264.2566,-1.4065,0.1778
2026-07-23T16:03:23.263,264.2566,-1.4456,0.1386
2026-07-23T16:03:23.268,264.2664,-1.289,0.3149
2026-07-23T16:03:23.282,264.3002,-1.3869,0.2953
2026-07-23T16:03:23.293,264.3039,-1.1911,0.3149
2026-07-23T16:03:23.297,264.3067,-1.3869,0.4519
2026-07-23T16:03:23.317,264.3187,-1.1519,0.5107
2026-07-23T16:03:23.317,264.3203,-1.2694,0.4911
2026-07-23T16:03:23.332,264.3561,-1.0345,0.589
2026-07-23T16:03:23.345,264.3605,-1.1324,0.6282
2026-07-23T16:03:23.355,264.3666,-0.7799,0.6477
2026-07-23T16:03:23.366,264.3731,-0.9561,0.7652
2026-07-23T16:03:23.370,264.3731,-0.6624,0.7848
2026-07-23T16:03:23.391,264.4138,-0.6428,1.0589
2026-07-23T16:03:23.391,264.4138,-0.4862,1.1373
2026-07-23T16:03:23.402,264.4138,-0.447,1.2743
2026-07-23T16:03:23.417,264.4296,-0.3295,1.3918
2026-07-23T16:03:23.424,264.4296,-0.2121,1.5484
2026-07-23T16:03:23.424,264.4296,0.0425,1.7247
2026-07-23T16:03:23.445,264.462,0.3754,2.0184
2026-07-23T16:03:23.455,264.4731,0.5908,2.2729
2026-07-23T16:03:23.459,264.4731,0.8061,2.5471
2026-07-23T16:03:23.477,264.4859,1.0803,2.8016
2026-07-23T16:03:23.480,264.4859,1.2565,3.017
2026-07-23T16:03:23.491,264.4994,1.6873,3.389
2026-07-23T16:03:23.499,264.527,1.9418,3.624
2026-07-23T16:03:23.513,264.5348,2.5684,3.9373
2026-07-23T16:03:23.513,264.5378,2.8034,4.0939
2026-07-23T16:03:23.537,264.5398,3.3516,4.4464
2026-07-23T16:03:23.546,264.5398,3.3908,4.4856
2026-07-23T16:03:23.550,264.5398,3.7824,4.7009
2026-07-23T16:03:23.559,264.5797,3.9195,4.7989
2026-07-23T16:03:23.575,264.5838,4.4873,5.0338
2026-07-23T16:03:23.589,264.5871,4.7419,5.2688
2026-07-23T16:03:23.589,264.5921,5.3685,5.4842
2026-07-23T16:03:23.591,264.5946,5.5447,5.7387
2026-07-23T16:03:23.606,264.6273,5.7797,5.7975
2026-07-23T16:03:23.624,264.6273,5.7601,5.9345
2026-07-23T16:03:23.630,264.6273,5.7992,5.8954
2026-07-23T16:03:23.643,264.6401,5.8776,6.0129
2026-07-23T16:03:23.651,264.6401,6.1713,6.2674
2026-07-23T16:03:23.657,264.6657,6.3083,6.5611
2026-07-23T16:03:23.669,264.6734,6.5237,6.7961
2026-07-23T16:03:23.678,264.6734,6.5825,6.9527
2026-07-23T16:03:23.691,264.6734,6.6216,7.0702
2026-07-23T16:03:23.707,264.7067,6.5629,7.0506
2026-07-23T16:03:23.707,264.7067,6.7979,7.2269
2026-07-23T16:03:23.724,264.7139,6.6216,7.266
2026-07-23T16:03:23.732,264.7165,6.8174,7.5597
2026-07-23T16:03:23.736,264.7461,6.7587,7.7164
2026-07-23T16:03:23.749,264.7505,7.1503,7.9318
2026-07-23T16:03:23.757,264.7536,7.1307,8.108
2026-07-23T16:03:23.771,264.7606,7.5028,8.2059
2026-07-23T16:03:23.780,264.7815,7.3265,8.3234
2026-07-23T16:03:23.791,264.7931,7.5419,8.3821
2026-07-23T16:03:23.804,264.7951,7.3853,8.5192
2026-07-23T16:03:23.811,264.7951,7.5223,8.5584
2026-07-23T16:03:23.811,264.8284,7.4049,8.6954
2026-07-23T16:03:23.832,264.8284,7.7573,8.8521
2026-07-23T16:03:23.846,264.837,7.7181,8.9891
2026-07-23T16:03:23.846,264.8397,7.9531,9.1262
2026-07-23T16:03:23.859,264.8649,8.0119,9.2828
2026-07-23T16:03:23.875,264.8739,8.0706,9.2828
2026-07-23T16:03:23.879,264.8739,8.0119,9.322
2026-07-23T16:03:23.888,264.8739,8.1685,9.4199
2026-07-23T16:03:23.891,264.9064,8.0902,9.5374
2026-07-23T16:03:23.906,264.9064,8.2468,9.6353
2026-07-23T16:03:23.925,264.9064,8.2664,9.7528
2026-07-23T16:03:23.925,264.9176,8.4231,9.8899
2026-07-23T16:03:23.941,264.9399,8.3643,9.9878
2026-07-23T16:03:23.954,264.9482,8.5405,10.0269
2026-07-23T16:03:23.957,264.9499,8.5014,10.164
2026-07-23T16:03:23.970,264.9499,8.658,10.2227
2026-07-23T16:03:23.980,264.9852,8.4622,10.2031
2026-07-23T16:03:23.991,264.99,8.658,10.3794
2026-07-23T16:03:24.001,264.9928,8.5405,10.3402
2026-07-23T16:03:24.011,265.0132,8.8147,10.4773
2026-07-23T16:03:24.024,265.0291,8.7559,10.6339
2026-07-23T16:03:24.024,265.0318,9.0888,10.7318
2026-07-23T16:03:24.044,265.0318,9.0105,10.8885
2026-07-23T16:03:24.048,265.04,9.2454,10.908
2026-07-23T16:03:24.057,265.068,9.1867,11.0451
2026-07-23T16:03:24.064,265.0709,9.3825,11.0647
2026-07-23T16:03:24.083,265.0735,9.4021,11.1234
2026-07-23T16:03:24.083,265.0764,9.5,11.2018
2026-07-23T16:03:24.096,265.1102,9.6175,11.2605
2026-07-23T16:03:24.113,265.1153,9.7154,11.4367
2026-07-23T16:03:24.119,265.1153,9.5979,11.5934
2026-07-23T16:03:24.135,265.1275,9.735,11.7109
2026-07-23T16:03:24.146,265.1402,9.8329,11.7696
2026-07-23T16:03:24.146,265.1402,9.7937,11.75
2026-07-23T16:03:24.161,265.1402,9.7741,11.8283
2026-07-23T16:03:24.175,265.1567,9.8916,11.8479
2026-07-23T16:03:24.178,265.1567,9.8133,11.7304
2026-07-23T16:03:24.191,265.188,10.0483,11.8675
2026-07-23T16:03:24.191,265.1918,9.9308,11.9067
2026-07-23T16:03:24.207,265.1984,10.2832,12.0437
2026-07-23T16:03:24.223,265.2204,10.0483,12.1025
2026-07-23T16:03:24.224,265.2204,10.1462,12.1221
2026-07-23T16:03:24.239,265.23,9.9699,12.1808
2026-07-23T16:03:24.249,265.2353,10.0483,12.0046
2026-07-23T16:03:24.258,265.2517,9.9308,12.0046
2026-07-23T16:03:24.271,265.2672,10.2245,12.0242
2026-07-23T16:03:24.286,265.2732,10.1462,12.2004
2026-07-23T16:03:24.289,265.2997,10.2636,12.1612
2026-07-23T16:03:24.291,265.3026,10.3224,12.2983
2026-07-23T16:03:24.302,265.3068,10.4399,12.2787
2026-07-23T16:03:24.324,265.3107,10.4399,12.357
2026-07-23T16:03:24.334,265.34,10.5182,12.357
2026-07-23T16:03:24.346,265.3464,10.5574,12.3374
2026-07-23T16:03:24.350,265.3464,10.6357,12.4549
2026-07-23T16:03:24.362,265.3524,10.6161,12.4353
2026-07-23T16:03:24.366,265.3804,10.8119,12.5528
2026-07-23T16:03:24.387,265.3804,10.8511,12.5137
2026-07-23T16:03:24.391,265.3804,10.8902,12.5333
2026-07-23T16:03:24.397,265.3804,10.7336,12.5333
2026-07-23T16:03:24.407,265.3973,11.0469,12.5724
2026-07-23T16:03:24.427,265.4092,10.8707,12.6116
2026-07-23T16:03:24.427,265.4246,11.1644,12.6899
2026-07-23T16:03:24.431,265.4304,11.1252,12.8465
2026-07-23T16:03:24.449,265.4556,11.4189,13.0424
2026-07-23T16:03:24.460,265.4556,11.2427,13.0815
2026-07-23T16:03:24.460,265.4653,11.4581,13.1011
2026-07-23T16:03:24.481,265.4653,11.321,13.0815
2026-07-23T16:03:24.493,265.4902,11.4385,13.0424
2026-07-23T16:03:24.506,265.4983,11.3993,13.0228
2026-07-23T16:03:24.506,265.4983,11.3406,12.9444
2026-07-23T16:03:24.516,265.5069,11.2623,13.0424
2026-07-23T16:03:24.539,265.5345,11.2623,12.9249
2026-07-23T16:03:24.541,265.5376,11.2035,12.9249
2026-07-23T16:03:24.549,265.5401,11.2035,12.9249
2026-07-23T16:03:24.558,265.5401,11.3602,12.8857
2026-07-23T16:03:24.570,265.5661,11.2623,12.8661
2026-07-23T16:03:24.585,265.5661,11.3014,12.827
2026-07-23T16:03:24.591,265.5739,11.2427,12.827
2026-07-23T16:03:24.601,265.6067,11.1644,12.7291
2026-07-23T16:03:24.617,265.6067,11.2427,12.7095
2026-07-23T16:03:24.617,265.6135,11.0077,12.7291
2026-07-23T16:03:24.633,265.6195,11.1252,12.8074
2026-07-23T16:03:24.633,265.6451,10.949,12.8465
2026-07-23T16:03:24.648,265.6451,11.1644,12.964
2026-07-23T16:03:24.657,265.6451,10.9881,12.9444
2026-07-23T16:03:24.673,265.6593,11.1839,12.9249
2026-07-23T16:03:24.680,265.6873,10.9098,12.9444
2026-07-23T16:03:24.691,265.6873,11.1056,12.827
2026-07-23T16:03:24.696,265.6924,10.949,12.9053
2026-07-23T16:03:24.712,265.696,11.0077,12.8661
2026-07-23T16:03:24.720,265.7261,10.949,12.8661
2026-07-23T16:03:24.728,265.7298,10.9881,12.8661
2026-07-23T16:03:24.738,265.7313,11.0469,12.8661
2026-07-23T16:03:24.747,265.7381,11.0077,12.9249
2026-07-23T16:03:24.759,265.7692,11.0273,12.9249
2026-07-23T16:03:24.759,265.7734,11.0273,12.9444
2026-07-23T16:03:24.782,265.7734,10.9686,12.8074
2026-07-23T16:03:24.789,265.7734,10.9686,12.8465
2026-07-23T16:03:24.792,265.8067,10.949,12.7878
2026-07-23T16:03:24.806,265.8067,10.9881,12.8465
2026-07-23T16:03:24.818,265.8067,10.9686,12.8074
2026-07-23T16:03:24.833,265.8165,11.0273,12.8661
2026-07-23T16:03:24.847,265.84,10.9294,12.8661
2026-07-23T16:03:24.847,265.84,11.0665,12.9249
2026-07-23T16:03:24.858,265.85,10.9098,12.8661
2026-07-23T16:03:24.875,265.8778,11.0273,12.9444
2026-07-23T16:03:24.886,265.8814,10.9881,12.9053
2026-07-23T16:03:24.891,265.8814,11.1252,12.964
2026-07-23T16:03:24.901,265.8814,11.1056,13.0032
2026-07-23T16:03:24.901,265.9129,11.3014,13.1403
2026-07-23T16:03:24.924,265.9129,11.2818,13.2382
2026-07-23T16:03:24.929,265.9129,11.4189,13.3165
2026-07-23T16:03:24.932,265.9243,11.4777,13.4927
2026-07-23T16:03:24.950,265.9495,11.556,13.5123
2026-07-23T16:03:24.958,265.9495,11.556,13.571
2026-07-23T16:03:24.975,265.9607,11.7126,13.7081
2026-07-23T16:03:24.983,265.976,11.8497,13.806
2026-07-23T16:03:24.995,265.9931,11.9868,13.9626
2026-07-23T16:03:25.000,265.9965,12.1238,14.0997
2026-07-23T16:03:25.012,266.0009,12.2413,14.1389
2026-07-23T16:03:25.024,266.0235,12.3196,14.2368
2026-07-23T16:03:25.027,266.0235,12.3784,14.3543
2026-07-23T16:03:25.043,266.0327,12.4175,14.4326
2026-07-23T16:03:25.052,266.0358,12.7112,14.6871
2026-07-23T16:03:25.060,266.0549,12.7112,14.7655
2026-07-23T16:03:25.060,266.0549,12.907,14.9221
2026-07-23T16:03:25.087,266.0709,12.8287,14.9613
2026-07-23T16:03:25.087,266.0716,12.9854,15.0788
2026-07-23T16:03:25.106,266.1024,12.9266,15.1179
2026-07-23T16:03:25.106,266.1024,13.0441,15.1767
2026-07-23T16:03:25.106,266.1067,12.9462,15.1375
2026-07-23T16:03:25.125,266.1342,13.142,15.1767
2026-07-23T16:03:25.137,266.1342,13.1224,15.2354
2026-07-23T16:03:25.147,266.1403,13.3378,15.2941
2026-07-23T16:03:25.157,266.1403,13.3378,15.5291
2026-07-23T16:03:25.172,266.1691,13.377,15.4116
2026-07-23T16:03:25.177,266.1733,13.4357,15.6074
2026-07-23T16:03:25.191,266.1816,13.4749,15.5879
2026-07-23T16:03:25.199,266.1816,13.5924,15.7641
2026-07-23T16:03:25.217,266.2133,13.7882,15.9207
2026-07-23T16:03:25.220,266.2133,14.0819,16.1165
2026-07-23T16:03:25.232,266.2225,14.1015,16.2144
2026-07-23T16:03:25.232,266.246,14.1211,16.3319
2026-07-23T16:03:25.258,266.246,14.0427,16.234
2026-07-23T16:03:25.264,266.246,13.984,16.1949
2026-07-23T16:03:25.273,266.246,13.9448,16.2928
2026-07-23T16:03:25.284,266.2876,13.8861,16.1949
2026-07-23T16:03:25.296,266.2919,13.9448,16.1949
2026-07-23T16:03:25.297,266.2919,13.6511,16.097
2026-07-23T16:03:25.297,266.2987,13.6903,16.0578
2026-07-23T16:03:25.334,266.3269,13.5728,16.0382
2026-07-23T16:03:25.334,266.3269,13.5924,16.0186
2026-07-23T16:03:25.343,266.3335,13.5532,16.1361
2026-07-23T16:03:25.352,266.3356,13.5336,16.0382
2026-07-23T16:03:25.359,266.3705,13.4553,16.1361
2026-07-23T16:03:25.359,266.3705,13.3966,16.0774
2026-07-23T16:03:25.378,266.3754,13.4161,16.0578
2026-07-23T16:03:25.391,266.4018,13.377,16.1361
2026-07-23T16:03:25.401,266.4091,13.3966,16.1557
2026-07-23T16:03:25.406,266.4108,13.3378,16.1557
2026-07-23T16:03:25.421,266.4136,13.3966,16.1557
2026-07-23T16:03:25.431,266.4177,13.2987,16.2144
2026-07-23T16:03:25.453,266.4401,13.2987,16.1753
2026-07-23T16:03:25.453,266.4401,13.2203,16.2144
2026-07-23T16:03:25.462,266.45,13.2791,16.1949
2026-07-23T16:03:25.468,266.45,13.3182,16.2536
2026-07-23T16:03:25.491,266.4805,13.2399,16.2144
2026-07-23T16:03:25.491,266.4805,13.3574,16.234
2026-07-23T16:03:25.501,266.4915,13.3378,16.2536
2026-07-23T16:03:25.501,266.5132,13.3182,16.3907
2026-07-23T16:03:25.524,266.5132,13.3966,16.3515
2026-07-23T16:03:25.531,266.5284,13.3378,16.3711
2026-07-23T16:03:25.542,266.5333,13.3574,16.4886
2026-07-23T16:03:25.547,266.56,13.3966,16.4494
2026-07-23T16:03:25.564,266.562,13.3966,16.469
2026-07-23T16:03:25.564,266.562,13.377,16.4102
2026-07-23T16:03:25.585,266.562,13.3966,16.3711
2026-07-23T16:03:25.595,266.5915,13.1029,16.3319
2026-07-23T16:03:25.595,266.5965,13.3574,16.3123
2026-07-23T16:03:25.613,266.602,13.2595,16.2928
2026-07-23T16:03:25.613,266.6067,13.2399,16.1557
2026-07-23T16:03:25.627,266.6315,13.142,16.097
2026-07-23T16:03:25.642,266.6346,13.2008,16.0382
2026-07-23T16:03:25.653,266.64,13.0637,16.0186
2026-07-23T16:03:25.660,266.6584,13.0441,15.8816
2026-07-23T16:03:25.674,266.6584,12.907,15.9599
2026-07-23T16:03:25.682,266.6703,12.9658,15.9599
2026-07-23T16:03:25.691,266.6756,12.8875,15.9795
2026-07-23T16:03:25.709,266.7042,12.8287,15.9403
2026-07-23T16:03:25.709,266.7042,12.8091,16.0186
2026-07-23T16:03:25.721,266.7068,12.77,16.0774
2026-07-23T16:03:25.737,266.7371,12.77,16.0774
2026-07-23T16:03:25.747,266.7371,12.7308,16.1361
2026-07-23T16:03:25.755,266.7371,12.7504,16.097
2026-07-23T16:03:25.761,266.7449,12.8287,16.1361
2026-07-23T16:03:25.784,266.7772,12.5546,16.1557
2026-07-23T16:03:25.784,266.7772,12.4959,16.1557
2026-07-23T16:03:25.788,266.7837,12.4175,16.0382
2026-07-23T16:03:25.800,266.8123,12.4567,16.0774
2026-07-23T16:03:25.817,266.8123,12.4175,16.097
2026-07-23T16:03:25.828,266.8167,12.4959,16.097
2026-07-23T16:03:25.831,266.8167,12.3979,16.1361
2026-07-23T16:03:25.847,266.8437,12.4959,16.1361
2026-07-23T16:03:25.858,266.8437,12.4371,16.1949
2026-07-23T16:03:25.863,266.8437,12.535,16.1361
2026-07-23T16:03:25.868,266.8437,12.3196,16.1165
2026-07-23T16:03:25.880,266.8754,12.4567,16.1753
2026-07-23T16:03:25.894,266.8754,12.3784,16.234
2026-07-23T16:03:25.894,266.8914,12.4567,16.0578
2026-07-23T16:03:25.918,266.9229,12.3784,16.1557
2026-07-23T16:03:25.918,266.9249,12.3588,16.0382
2026-07-23T16:03:25.926,266.9249,12.3392,16.0578
2026-07-23T16:03:25.942,266.9249,12.3196,16.1165
2026-07-23T16:03:25.958,266.9628,12.4763,16.1753
2026-07-23T16:03:25.959,266.9648,12.3979,16.2536
2026-07-23T16:03:25.959,266.9648,12.4371,16.2536
2026-07-23T16:03:25.976,266.97,12.4959,16.234
2026-07-23T16:03:26.005,266.9966,12.3196,16.2144
2026-07-23T16:03:26.005,266.9966,12.4567,16.1753
2026-07-23T16:03:26.005,267.0018,12.3196,16.0578
2026-07-23T16:03:26.024,267.0126,12.4371,16.1165
2026-07-23T16:03:26.024,267.0364,12.2805,16.1557
2026-07-23T16:03:26.043,267.0399,12.4959,16.1949
2026-07-23T16:03:26.053,267.045,12.3588,16.2732
2026-07-23T16:03:26.063,267.045,12.5154,16.2536
2026-07-23T16:03:26.069,267.0755,12.3196,16.1949
2026-07-23T16:03:26.086,267.0755,12.4371,16.1557
2026-07-23T16:03:26.091,267.0824,12.2609,16.0774
2026-07-23T16:03:26.100,267.0824,12.3392,16.0382
2026-07-23T16:03:26.116,267.1173,12.3,16.0186
2026-07-23T16:03:26.116,267.1173,12.3392,16.0382
2026-07-23T16:03:26.133,267.1173,12.3588,16.1165
2026-07-23T16:03:26.147,267.1439,12.3784,16.0186
2026-07-23T16:03:26.158,267.1439,12.2413,15.999
2026-07-23T16:03:26.163,267.1439,12.2217,15.9207
2026-07-23T16:03:26.168,267.1439,12.1042,15.7837
2026-07-23T16:03:26.179,267.1757,12.163,15.7837
2026-07-23T16:03:26.195,267.1891,12.0455,15.8228
2026-07-23T16:03:26.195,267.1913,12.1238,15.9403
2026-07-23T16:03:26.211,267.2006,11.9672,15.9403
2026-07-23T16:03:26.211,267.2237,12.0651,15.9011
2026-07-23T16:03:26.226,267.2296,11.8693,15.7837
2026-07-23T16:03:26.240,267.2296,11.928,15.7445
2026-07-23T16:03:26.251,267.2423,11.7714,15.6466
2026-07-23T16:03:26.259,267.2662,11.7714,15.5487
2026-07-23T16:03:26.273,267.2707,11.5168,15.6074
2026-07-23T16:03:26.280,267.2735,11.6539,15.5095
2026-07-23T16:03:26.293,267.2735,11.4581,15.7053
2026-07-23T16:03:26.305,267.307,11.7126,15.862
2026-07-23T16:03:26.305,267.307,11.9084,16.0186
2026-07-23T16:03:26.324,267.3146,12.0063,16.2536
2026-07-23T16:03:26.324,267.3172,12.1042,16.4102
2026-07-23T16:03:26.337,267.3403,12.1826,16.3711
2026-07-23T16:03:26.347,267.3488,12.0455,16.3515
2026-07-23T16:03:26.358,267.358,12.0063,16.1949
2026-07-23T16:03:26.368,267.3615,12.0259,16.1753
2026-07-23T16:03:26.384,267.3803,11.9868,16.1753
2026-07-23T16:03:26.391,267.3941,12.0063,16.1361
2026-07-23T16:03:26.409,267.3981,12.0063,16.1949
2026-07-23T16:03:26.415,267.4025,11.7909,16.0578
2026-07-23T16:03:26.424,267.4282,12.1434,16.097
2026-07-23T16:03:26.431,267.4346,12.0063,16.1949
2026-07-23T16:03:26.445,267.4373,12.3392,16.2536
2026-07-23T16:03:26.453,267.4419,12.1826,16.2536
2026-07-23T16:03:26.463,267.4606,12.3979,16.2144
2026-07-23T16:03:26.479,267.4754,12.1434,16.1557
2026-07-23T16:03:26.479,267.4782,12.2021,16.0186
2026-07-23T16:03:26.493,267.4802,11.8497,15.8032
2026-07-23T16:03:26.502,267.5088,11.8301,15.627
2026-07-23T16:03:26.511,267.5088,11.6147,15.6074
2026-07-23T16:03:26.511,267.5088,11.6735,15.5095
2026-07-23T16:03:26.531,267.5088,11.4972,15.5487
2026-07-23T16:03:26.543,267.5401,11.4581,15.392
2026-07-23T16:03:26.548,267.5401,11.2035,15.2158
2026-07-23T16:03:26.560,267.5564,10.9686,14.9808
2026-07-23T16:03:26.560,267.5564,10.6161,14.648
2026-07-23T16:03:26.573,267.5862,10.2636,14.1976
2026-07-23T16:03:26.591,267.5895,9.6958,13.5123
2026-07-23T16:03:26.591,267.5895,9.0692,12.827
2026-07-23T16:03:26.607,267.597,8.3252,12.1025
2026-07-23T16:03:26.621,267.6269,8.051,11.6717
2026-07-23T16:03:26.627,267.6269,7.5615,11.2997
2026-07-23T16:03:26.648,267.6399,7.444,10.9864
2026-07-23T16:03:26.653,267.6649,7.0524,10.7906
2026-07-23T16:03:26.658,267.6649,7.1307,10.6339
2026-07-23T16:03:26.669,267.6736,6.8566,10.5948
2026-07-23T16:03:26.678,267.6736,6.9545,10.4773
2026-07-23T16:03:26.691,267.683,6.5237,10.3794
2026-07-23T16:03:26.700,267.713,6.5433,10.0073
2026-07-23T16:03:26.710,267.7172,6.1713,9.7919
2026-07-23T16:03:26.724,267.7196,5.995,9.4003
2026-07-23T16:03:26.734,267.7262,5.5447,8.9891
2026-07-23T16:03:26.734,267.752,5.1726,8.48
2026-07-23T16:03:26.758,267.752,4.6048,7.9709
2026-07-23T16:03:26.758,267.7602,4.0565,7.3052
2026-07-23T16:03:26.770,267.7653,3.2733,6.5611
2026-07-23T16:03:26.779,267.7706,2.6859,5.7583
2026-07-23T16:03:26.795,267.8037,1.9418,4.9947
2026-07-23T16:03:26.803,267.8087,1.3936,4.4464
2026-07-23T16:03:26.816,267.8087,0.904,3.7807
2026-07-23T16:03:26.821,267.8087,0.767,3.4282
2026-07-23T16:03:26.835,267.8401,0.4733,3.1541
2026-07-23T16:03:26.843,267.8401,0.3949,2.8799
2026-07-23T16:03:26.854,267.8545,-0.0163,2.4687
2026-07-23T16:03:26.859,267.8545,-0.0358,2.1359
2026-07-23T16:03:26.870,267.8556,-0.3491,1.7443
2026-07-23T16:03:26.891,267.8872,-0.4274,1.4505
2026-07-23T16:03:26.891,267.8872,-0.8778,1.1568
2026-07-23T16:03:26.904,267.8977,-0.7407,0.961
2026-07-23T16:03:26.906,267.8997,-1.0149,0.8631
2026-07-23T16:03:26.924,267.9182,-1.054,0.7456
2026-07-23T16:03:26.924,267.9334,-1.1519,0.6477
2026-07-23T16:03:26.938,267.9367,-1.1715,0.4911
2026-07-23T16:03:26.953,267.9402,-1.2694,0.4715
2026-07-23T16:03:26.960,267.9688,-1.2694,0.3932
2026-07-23T16:03:26.969,267.9688,-1.4848,0.3149
2026-07-23T16:03:26.969,267.9735,-1.4261,0.217
2026-07-23T16:03:26.992,267.9789,-1.5631,0.1386
2026-07-23T16:03:27.002,267.9978,-1.5631,0.1582
2026-07-23T16:03:27.002,268.0066,-1.7394,0.0407
2026-07-23T16:03:27.024,268.0134,-1.7394,-0.1355
2026-07-23T16:03:27.031,268.0134,-1.9156,-0.1747
2026-07-23T16:03:27.031,268.0507,-1.7981,-0.1747
2026-07-23T16:03:27.049,268.0507,-1.9743,-0.2726
2026-07-23T16:03:27.064,268.0545,-1.8568,-0.3117
2026-07-23T16:03:27.064,268.0545,-2.1114,-0.3313
2026-07-23T16:03:27.078,268.0767,-1.9156,-0.4096
2026-07-23T16:03:27.095,268.0909,-2.1701,-0.4292
2026-07-23T16:03:27.105,268.0954,-2.0135,-0.5075
2026-07-23T16:03:27.111,268.0979,-2.2093,-0.5075
2026-07-23T16:03:27.111,268.1223,-2.0722,-0.5467
2026-07-23T16:03:27.128,268.1274,-2.2289,-0.5271
2026-07-23T16:03:27.141,268.1274,-2.131,-0.6642
2026-07-23T16:03:27.149,268.16,-2.1897,-0.6446
2026-07-23T16:03:27.169,268.16,-2.2093,-0.7033
2026-07-23T16:03:27.173,268.16,-2.268,-0.7425
2026-07-23T16:03:27.189,268.1734,-2.2289,-0.8208
2026-07-23T16:03:27.190,268.1734,-2.2876,-0.8404
2026-07-23T16:03:27.205,268.198,-2.3072,-0.8404
2026-07-23T16:03:27.211,268.2018,-2.3855,-0.8991
2026-07-23T16:03:27.224,268.207,-2.3659,-0.86
2026-07-23T16:03:27.237,268.234,-2.5226,-0.9383
2026-07-23T16:03:27.237,268.234,-2.3072,-0.9187
2026-07-23T16:03:27.249,268.234,-2.503,-0.9579
2026-07-23T16:03:27.258,268.2629,-2.3464,-0.9383
2026-07-23T16:03:27.269,268.2668,-2.4443,-0.9775
2026-07-23T16:03:27.269,268.2668,-2.268,-0.9187
2026-07-23T16:03:27.291,268.2735,-2.4443,-0.9383
2026-07-23T16:03:27.301,268.2976,-2.268,-1.0166
2026-07-23T16:03:27.318,268.3016,-2.4834,-0.9579
2026-07-23T16:03:27.324,268.3071,-2.3268,-0.9383
2026-07-23T16:03:27.332,268.3302,-2.4051,-0.9383
2026-07-23T16:03:27.336,268.3302,-2.3268,-1.0558
2026-07-23T16:03:27.352,268.3302,-2.2876,-0.9187
2026-07-23T16:03:27.365,268.363,-2.268,-0.9383
2026-07-23T16:03:27.378,268.3687,-2.268,-0.9187
2026-07-23T16:03:27.381,268.3735,-2.3268,-0.9579
2026-07-23T16:03:27.391,268.3735,-2.3072,-0.9383
2026-07-23T16:03:27.400,268.3982,-2.268,-0.8012
2026-07-23T16:03:27.412,268.3982,-2.268,-0.9775
2026-07-23T16:03:27.424,268.3982,-2.2485,-0.9187
2026-07-23T16:03:27.429,268.4259,-2.2485,-0.8796
2026-07-23T16:03:27.445,268.4259,-2.131,-0.86
2026-07-23T16:03:27.449,268.4259,-2.3072,-0.9383
2026-07-23T16:03:27.461,268.4409,-2.131,-0.8404
2026-07-23T16:03:27.477,268.4674,-2.268,-0.9579
2026-07-23T16:03:27.477,268.4674,-2.131,-0.8796
2026-07-23T16:03:27.492,268.4736,-2.2289,-0.8991
2026-07-23T16:03:27.492,268.4982,-2.1114,-0.9383
2026-07-23T16:03:27.507,268.5001,-2.2485,-0.8404
2026-07-23T16:03:27.524,268.5068,-2.0331,-0.86
2026-07-23T16:03:27.544,268.5195,-2.2289,-0.86
2026-07-23T16:03:27.544,268.5195,-2.1114,-0.8404
2026-07-23T16:03:27.551,268.5353,-2.1506,-0.8012
2026-07-23T16:03:27.561,268.5513,-2.0918,-0.86
2026-07-23T16:03:27.570,268.5513,-2.0331,-0.8404
2026-07-23T16:03:27.570,268.5678,-2.0527,-0.8208
2026-07-23T16:03:27.591,268.5865,-2.0527,-0.8012
2026-07-23T16:03:27.602,268.5865,-2.0527,-0.7033
2026-07-23T16:03:27.602,268.5984,-2.0527,-0.8012
2026-07-23T16:03:27.628,268.625,-2.0135,-0.7033
2026-07-23T16:03:27.637,268.6299,-2.1506,-0.8796
2026-07-23T16:03:27.637,268.6299,-1.9352,-0.7817
2026-07-23T16:03:27.654,268.6299,-2.1114,-0.7817
2026-07-23T16:03:27.658,268.6604,-1.8764,-0.7621
2026-07-23T16:03:27.670,268.662,-2.0331,-0.7033
2026-07-23T16:03:27.681,268.662,-1.8568,-0.6838
2026-07-23T16:03:27.697,268.6934,-2.0527,-0.6446
2026-07-23T16:03:27.697,268.6987,-1.8568,-0.6642
2026-07-23T16:03:27.713,268.7023,-1.9547,-0.6446
2026-07-23T16:03:27.713,268.7069,-1.8568,-0.5859
2026-07-23T16:03:27.729,268.7285,-2.0722,-0.625
2026-07-23T16:03:27.744,268.7285,-1.9156,-0.625
2026-07-23T16:03:27.753,268.738,-1.9156,-0.625
2026-07-23T16:03:27.760,268.7561,-1.9743,-0.6054
2026-07-23T16:03:27.775,268.7658,-2.0527,-0.5663
2026-07-23T16:03:27.779,268.7658,-2.0527,-0.488
2026-07-23T16:03:27.791,268.7704,-2.1701,-0.5271
2026-07-23T16:03:27.807,268.7987,-2.131,-0.5075
2026-07-23T16:03:27.807,268.8037,-2.2485,-0.5859
2026-07-23T16:03:27.823,268.8069,-2.1701,-0.625
2026-07-23T16:03:27.824,268.8274,-2.1506,-0.5271
2026-07-23T16:03:27.839,268.8374,-1.9939,-0.4096
2026-07-23T16:03:27.849,268.84,-1.9939,-0.4684
2026-07-23T16:03:27.858,268.8595,-1.8177,-0.4292
2026-07-23T16:03:27.878,268.8692,-1.9352,-0.5271
2026-07-23T16:03:27.886,268.8692,-1.8373,-0.4488
2026-07-23T16:03:27.893,268.8737,-1.9156,-0.5271
2026-07-23T16:03:27.905,268.8991,-1.8373,-0.5467
2026-07-23T16:03:27.910,268.8991,-1.896,-0.4684
2026-07-23T16:03:27.924,268.9036,-1.8373,-0.5663
2026-07-23T16:03:27.934,268.9306,-1.7785,-0.5271
2026-07-23T16:03:27.935,268.9306,-1.7785,-0.5859
2026-07-23T16:03:27.950,268.9306,-1.8177,-0.5271
2026-07-23T16:03:27.965,268.9622,-1.7981,-0.6054
2026-07-23T16:03:27.966,268.9622,-1.7394,-0.488
2026-07-23T16:03:27.981,268.9622,-1.7981,-0.625
2026-07-23T16:03:27.991,268.9942,-1.7394,-0.5075
2026-07-23T16:03:28.003,268.9942,-1.8373,-0.5859
2026-07-23T16:03:28.013,268.9993,-1.7981,-0.5663
2026-07-23T16:03:28.013,268.9993,-1.7785,-0.5467
2026-07-23T16:03:28.031,269.026,-1.7981,-0.5075
2026-07-23T16:03:28.031,269.026,-1.7981,-0.5663
2026-07-23T16:03:28.050,269.0401,-1.8764,-0.6054
2026-07-23T16:03:28.062,269.0575,-1.7394,-0.5467
2026-07-23T16:03:28.062,269.0575,-1.8568,-0.625
2026-07-23T16:03:28.077,269.0676,-1.7785,-0.3509
2026-07-23T16:03:28.091,269.0676,-1.8568,-0.5859
2026-07-23T16:03:28.108,269.0898,-1.7589,-0.5859
2026-07-23T16:03:28.108,269.0979,-1.8764,-0.5271
2026-07-23T16:03:28.124,269.1203,-1.7981,-0.6054
2026-07-23T16:03:28.128,269.1203,-1.8764,-0.5467
2026-07-23T16:03:28.141,269.1203,-1.7785,-0.6054
2026-07-23T16:03:28.150,269.1432,-1.8177,-0.5663
2026-07-23T16:03:28.171,269.1516,-1.8373,-0.625
2026-07-23T16:03:28.171,269.1516,-1.8177,-0.5859
2026-07-23T16:03:28.187,269.1735,-1.896,-0.6054
2026-07-23T16:03:28.194,269.1837,-1.7785,-0.5663
2026-07-23T16:03:28.202,269.1837,-1.8373,-0.5859
2026-07-23T16:03:28.212,269.2069,-1.8177,-0.6446
2026-07-23T16:03:28.224,269.2154,-1.8764,-0.625
2026-07-23T16:03:28.234,269.2154,-1.8764,-0.6446
2026-07-23T16:03:28.234,269.2436,-1.8568,-0.6446
2026-07-23T16:03:28.250,269.2467,-1.9352,-0.6838
2026-07-23T16:03:28.258,269.2467,-1.7589,-0.6054
2026-07-23T16:03:28.271,269.2467,-1.9352,-0.6054
2026-07-23T16:03:28.282,269.2781,-1.8764,-0.625
2026-07-23T16:03:28.282,269.2793,-1.9547,-0.5663
2026-07-23T16:03:28.297,269.2793,-1.8373,-0.5859
2026-07-23T16:03:28.313,269.3069,-1.9547,-0.6446
2026-07-23T16:03:28.326,269.3103,-1.8568,-0.6838
2026-07-23T16:03:28.330,269.3137,-2.0135,-0.6642
2026-07-23T16:03:28.345,269.342,-1.9547,-0.6642
2026-07-23T16:03:28.351,269.344,-2.0135,-0.7229
2026-07-23T16:03:28.364,269.3486,-1.9939,-0.7621
2026-07-23T16:03:28.379,269.3789,-1.9939,-0.7621
2026-07-23T16:03:28.379,269.3852,-2.0722,-0.7817
2026-07-23T16:03:28.395,269.3852,-2.0135,-0.7229
2026-07-23T16:03:28.402,269.3893,-2.0527,-0.7817
2026-07-23T16:03:28.409,269.4108,-1.9352,-0.7425
2026-07-23T16:03:28.424,269.4108,-2.0331,-0.7033
2026-07-23T16:03:28.436,269.4108,-1.9547,-0.7817
2026-07-23T16:03:28.440,269.4444,-2.0527,-0.7817
2026-07-23T16:03:28.462,269.4444,-1.9939,-0.8796
2026-07-23T16:03:28.462,269.4444,-1.9547,-0.8208
2026-07-23T16:03:28.471,269.453,-2.0331,-0.8012
2026-07-23T16:03:28.488,269.4736,-1.9743,-0.7425
2026-07-23T16:03:28.491,269.4736,-2.0135,-0.7817
2026-07-23T16:03:28.504,269.4834,-1.9352,-0.7621
2026-07-23T16:03:28.504,269.5069,-2.0331,-0.7425
2026-07-23T16:03:28.524,269.5132,-1.896,-0.7425
2026-07-23T16:03:28.534,269.5155,-1.9743,-0.7621
2026-07-23T16:03:28.546,269.5422,-2.0135,-0.7033
2026-07-23T16:03:28.558,269.5448,-1.9352,-0.6642
2026-07-23T16:03:28.558,269.5465,-1.9939,-0.6838
2026-07-23T16:03:28.566,269.5768,-1.9352,-0.5467
2026-07-23T16:03:28.591,269.5784,-2.0918,-0.6642
2026-07-23T16:03:28.596,269.5784,-1.896,-0.625
2026-07-23T16:03:28.597,269.5784,-2.0135,-0.6054
2026-07-23T16:03:28.597,269.6101,-1.9743,-0.6446
