64.25171 77.041626 81.87561 78.652954 102.11792 128.302 125.48218 90.737915 70.29419 81.47278 91.04004 73.71826 12.084961 10.372925 -14.804077 -41.592407 -51.763916 -113.90076 -155.09033 -129.71191 -132.63245 -146.73157 -149.24927 -94.06128 -43.90869 -37.765503 -73.31543 -64.25171 -52.267456 -44.91577 -32.83081 -60.12268 -26.889038 18.429565 49.54834 60.021973 57.806396 76.94092 139.27917 132.83386 126.28784 134.44519 135.04944 97.48535 78.35083 75.73242 57.60498 37.060547 45.620728 43.50586 33.233643 10.070801 -47.93701 -78.35083 -102.11792 -112.18872 -86.709595 -91.54358 -111.28235 -78.75366 -78.75366 -78.75366 -78.75366 -78.75366 -78.75366 -78.75366 -78.75366 -78.75366 -78.75366 -78.75366 -78.75366 -78.75366 -78.75366 -78.75366 -78.75366 -78.75366 -78.75366 -78.75366 -78.75366 -78.75366 119.23828 107.958984 109.06677 104.73633 123.77014 139.48059 117.82837 82.07703 73.41614 55.389404 32.730103 -2.7191162 -65.3595 -62.338257 -63.64746 -72.71118 -78.75366 -105.23987 -135.45227 -118.73474 -104.63562 -77.142334 -51.260376 -49.54834 -78.75366 -126.9928 -173.21777 -104.23279 -33.43506 -6.1431885 -9.466553 -0.50354004 20.343018 14.199829 13.595581 28.80249 35.549927 59.518433 110.476685 97.18323 82.07703 93.0542 107.55615 97.787476 100.10376 109.67102 112.59155 91.04004 86.709595 57.70569 35.44922 15.509033 -29.80957 -25.177002 -32.42798 -40.283203 -45.01648 -71.60339 -109.77173 -88.220215 -73.516846 -65.76233 -72.10693 -69.58923 -80.26428 -87.11243 -95.97473 -66.56799 -45.01648 -35.95276 -22.155762 -11.581421 8.862305 5.1361084 21.954346 27.593994 18.530273 45.822144 103.930664 68.68286 17.72461 47.735596 121.75598 135.8551 129.00696 139.88342 124.87793 84.49402 53.778076 38.974 41.693115 39.276123 -22.558594 -2.9205322 -5.2368164 -15.710449 -20.74585 -48.843384 -96.98181 -92.752075 -90.13367 -101.61438 -109.77173 -105.13916 -106.8512 -110.07385 -105.6427 -67.67578 -23.464966 12.387085 6.1431885 22.25647 19.23523 -14.904785 -36.557007 -40.88745 -38.168335 -7.0495605 57.302856 48.843384 
-5.6396484 -0.60424805 12.588501 32.730103 32.629395 30.917358 53.979492 91.54358 105.6427 100.50659 88.11951 98.49243 123.97156 98.39172 86.00464 70.89844 57.504272 62.841797 54.885864 7.8552246 -18.429565 -33.33435 -32.93152 -58.20923 -64.05029 -62.438965 -43.707275 -65.05737 -78.45154 -96.67969 -95.5719 -81.87561 -70.09277 -56.799316 -55.59082 -54.785156 -41.592407 -48.742676 -70.999146 -30.615234 2.1148682 7.7545166 16.918945 39.175415 40.686035 34.744263 67.57507 107.55615 114.80713 116.11633 111.483765 123.87085 136.15723 95.16907 84.59473 73.11401 59.820557 56.799316 54.785156 10.473633 -21.954346 -48.54126 -68.07861 -71.09985 -47.131348 -42.49878 -50.656128 -79.660034 -90.13367 -88.723755 -86.10535 -94.3634 -103.62854 -88.52234 -75.93384 -66.26587 -51.05896 -52.770996 -86.50818 -48.03772 -16.71753 -10.876465 -0.70495605 26.28479 21.047974 16.71753 48.03772 83.99048 84.09119 94.66553 97.58606 117.22412 136.86218 94.66553 73.41614 62.539673 52.468872 50.55542 68.17932 31.723022 3.7261963 -12.689209 -36.254883 -62.64038 -69.488525 -50.756836 -34.643555 -67.77649 -104.434204 -111.78589 -100.40588 -98.99597 -97.38464 -66.6687 -58.511353 -50.454712 -41.088867 -35.95276 -51.361084 -11.883545 20.544434 17.72461 11.380005 24.673462 22.055054 29.80957 52.368164 83.08411 74.12109 100.40588 97.98889 107.15332 127.39563 90.83862 69.488525 55.288696 37.161255 45.52002 50.152588 9.063721 -20.343018 -32.42798 -54.986572 -64.453125 -61.935425 -59.014893 -57.20215 -82.27844 -79.559326 -78.552246 -88.11951 -90.93933 -92.752075 -70.09277 -61.935425 -51.05896 -26.184082 -36.657715 -62.841797 -8.963013 43.90869 40.182495 9.063721 10.272217 7.4523926 19.638062 55.993652 92.95349 100.909424 106.448364 115.81421 113.497925 123.065186 86.30676 80.56641 74.020386 61.23047 57.403564 52.06604 10.473633 -13.796997 -30.715942 -38.671875 -49.54834 -43.00232 -37.261963 -32.93152 -61.12976 -77.645874 -103.22571 -95.47119 -104.73633 -102.21863 -71.90552 -59.921265 -51.864624 -40.38391 -46.829224 -73.013306 -34.34143 
-3293.2524 -3277.4414 -3261.026 -3245.5168 -3229.7058 -3213.9954 -3198.4863 -3183.1787 -3167.9717 -3153.067 -3138.263 -3123.6602 -2753.9612 3299.8992 3299.8992 3299.8992 3299.8992 3299.8992 3299.8992 3299.8992 3299.8992 3299.8992 3299.8992 3299.8992 3299.8992 3289.0227 3273.1108 3257.199 3241.5894 3226.0803 3210.6719 3195.3643 2396.045 3190.933 3208.1543 3225.0732 3241.8914 3258.609 3275.0244 3291.4397 -3292.2454 -3275.83 -3260.2202 -3243.9055 -3228.296 -3212.7869 -3197.4792 -3182.2722 -3167.166 -3152.1606 -3137.3564 -3122.653 -2753.1555 3299.8992 3299.8992 3299.8992 3299.8992 3299.8992 3299.8992 3299.8992 3299.8992 3299.8992 3299.8992 3299.8992 3299.8992 3289.5264 3273.413 3257.7026 3242.0928 3226.5837 3211.1755 3195.868 2712.8723 3189.3218 3206.6436 3223.6633 3240.4814 3257.0984 3273.5137 3289.9292 -3293.756 -3277.24 -3261.5295 -3245.4163 -3229.605 -3214.1968 -3198.8892 -3183.5815 -3168.4753 -3153.5706 -3138.6658 -3124.063 -2631.3994 3299.8992 3299.8992 3299.8992 3299.8992 3299.8992 3299.8992 3299.8992 3299.8992 3299.8992 3299.8992 3299.8992 3299.8992 3288.3179 3272.5066 3256.7961 3241.0857 3225.5767 3210.269 3194.8608 2454.3547 3189.926 3207.2478 3224.2676 3240.985 3257.7026 3274.118 3290.5334 -3293.1519 -3277.3406 -3261.4287 -3245.114 -3229.303 -3213.8945 -3198.587 -3183.3801 -3168.274 -3153.2683 -3138.4644 -3123.8616 -2630.3923 3299.8992 3299.8992 3299.8992 3299.8992 3299.8992 3299.8992 3299.8992 3299.8992 3299.8992 3299.8992 3299.8992 3299.8992 3287.4114 3271.4995 3255.5876 3240.0786 3224.5696 3209.262 3193.8538 2137.5273 3190.2283 3207.4492 3224.469 3241.1865 3257.8032 3274.3193 3290.7349 -3292.9504 -3276.535 -3260.321 -3244.9126 -3229.2021 -3213.391 -3197.882 -3182.5745 -3167.4683 -3152.4626 -3137.7593 -3123.056 -2492.1204 3299.8992 3299.8992 3299.8992 3299.8992 3299.8992 3299.8992 3299.8992 3299.8992 3299.8992 3299.8992 3299.8992 3299.8992 3287.7136 3272.0032 3256.2927 3240.6829 3225.1738 3209.7656 3194.458 2390.6067 3189.926 3207.1472 3224.0662 3240.8843 3257.6018 3274.118 3290.5334 
3264.3494 3279.5562 3294.9646 -3290.0298 -3275.125 -3260.1196 -3245.6177 -3231.1157 -3216.7144 -3202.5146 -3188.214 -3174.3164 913.82446 3299.8992 3299.8992 3299.8992 3299.8992 3299.8992 3299.8992 3299.8992 3299.8992 3298.0864 3282.9802 3268.0754 3253.1707 3238.568 3223.1597 3208.8591 3194.6594 3180.661 3166.6626 3152.5635 276.44348 3155.081 3171.2952 3187.1062 3202.9175 3218.527 3234.0361 3249.5452 3264.8528 3279.8584 3295.166 -3289.7278 -3274.9236 -3259.8174 -3245.4163 -3230.8135 -3216.513 -3202.2124 -3188.0127 -3174.0142 450.2655 3299.8992 3299.8992 3299.8992 3299.8992 3299.8992 3299.8992 3299.8992 3299.8992 3299.1943 3283.9873 3269.1833 3254.2786 3239.6758 3224.0662 3209.7656 3195.465 3181.4666 3167.3674 3153.3691 257.51038 3155.8867 3172 3187.9119 3203.6223 3219.3328 3234.8418 3250.1494 3265.6584 3280.7646 3296.3745 -3289.1235 -3274.118 -3258.9111 -3244.6106 -3230.0078 -3215.4053 -3201.3062 -3187.207 -3173.2085 2147.0947 3299.8992 3299.8992 3299.8992 3299.8992 3299.8992 3299.8992 3299.8992 3299.8992 3297.0793 3282.074 3267.0684 3252.2644 3237.2588 3222.052 3207.852 3193.8538 3179.6538 3165.756 3151.7578 -151.56555 3155.182 3171.2952 3187.1062 3203.018 3218.527 3234.137 3249.5452 3264.8528 3280.2612 3295.166 -3289.8284 -3274.9236 -3260.321 -3245.4163 -3230.9143 -3216.4124 -3202.3132 -3188.0127 -3174.115 1277.6825 3299.8992 3299.8992 3299.8992 3299.8992 3299.8992 3299.8992 3299.8992 3299.8992 3297.885 3282.5774 3267.572 3252.6672 3237.6616 3222.6562 3208.3557 3194.2566 3180.1575 3166.159 3152.0598 -211.08398 3155.6853 3171.7986 3187.7104 3203.421 3219.1313 3234.5398 3250.0488 3265.2556 3280.664 3295.6694 -3289.325 -3274.4202 -3259.8174 -3244.9126 -3230.4106 -3215.9087 -3201.8096 -3187.6099 -3173.5107 1520.2881 3299.8992 3299.8992 3299.8992 3299.8992 3299.8992 3299.8992 3299.8992 3299.8992 3298.1873 3282.6782 3267.6726 3252.8687 3237.863 3222.6562 3208.4563 3194.2566 3180.258 3166.2598 3152.1606 -409.07593 3156.189 3172.4028 3188.3147 3204.0251 3219.635 3235.0432 3250.5522 
2015.3687 -3285.8 -3270.4924 -3254.782 -3240.0786 -3225.0732 -3209.967 -3195.2637 -3181.1646 -3166.9646 -3152.8655 -3139.0686 3299.8992 3299.8992 3299.8992 3299.8992 3299.8992 3299.8992 3299.8992 3299.8992 3299.8992 3299.8992 3299.8992 3292.5476 1614.148 3286.7065 3299.8992 -3281.7717 -3266.867 -3251.6602 -3236.7554 -3221.7498 -3207.1472 -200.40894 3299.8992 3299.8992 3299.8992 3299.8992 3299.8992 3299.8992 1920.1996 -3289.1235 -3273.413 -3258.206 -3242.5964 -3227.6917 -3213.1897 -3198.184 -3183.4807 -3169.4824 -3155.2825 -3141.3848 3299.8992 3299.8992 3299.8992 3299.8992 3299.8992 3299.8992 3299.8992 3299.8992 3299.8992 3299.8992 3299.8992 3289.5264 1303.363 3286.203 3299.8992 -3282.6782 -3267.3706 -3252.2644 -3237.1582 -3222.2534 -3207.4492 -329.6173 3299.8992 3299.8992 3299.8992 3299.8992 3299.8992 3299.8992 1681.0181 -3288.1165 -3272.708 -3257.199 -3241.9922 -3226.886 -3212.5854 -3197.5798 -3183.078 -3168.7773 -3154.6782 -3140.7805 3299.8992 3299.8992 3299.8992 3299.8992 3299.8992 3299.8992 3299.8992 3299.8992 3299.8992 3299.8992 3299.8992 3290.634 1288.6597 3286.4043 3299.8992 -3282.074 -3267.0684 -3251.8616 -3236.7554 -3221.7498 -3207.0464 -25.378418 3299.8992 3299.8992 3299.8992 3299.8992 3299.8992 3299.8992 1667.926 -3289.8284 -3274.0173 -3258.8103 -3243.3013 -3228.296 -3213.8945 -3198.8892 -3184.1858 -3170.0867 -3155.9875 -3141.989 3299.8992 3299.8992 3299.8992 3299.8992 3299.8992 3299.8992 3299.8992 3299.8992 3299.8992 3299.8992 3299.8992 3288.1165 1112.2192 3285.6995 3299.8992 -3283.484 -3267.874 -3252.6672 -3237.6616 -3222.7568 -3208.0535 -198.89832 3299.8992 3299.8992 3299.8992 3299.8992 3299.8992 3299.8992 1419.9829 -3288.6199 -3273.2117 -3257.904 -3242.5964 -3227.4902 -3213.0889 -3198.184 -3183.6821 -3169.3816 -3155.182 -2964.8438 3299.8992 3299.8992 3299.8992 3299.8992 3299.8992 3299.8992 3299.8992 3299.8992 3299.8992 3299.8992 3299.8992 3287.7136 1100.7385 3285.2966 3299.8992 -3283.5845 -3268.2769 -3253.07 -3237.9639 -3223.1597 -2996.869 141.09192 3299.8992 3299.8992 3299.8992 3299.8992 3299.8992 3299.8992 
3057.0923 3073.6084 3089.5203 3106.137 3122.1497 3138.263 3154.074 3169.8853 3185.5957 3201.1047 3216.7144 3232.022 -1899.0509 2597.461 3225.1738 3210.3699 3195.868 3181.2651 3166.7632 3152.2612 3137.7593 3123.1567 3108.252 3094.052 3079.7515 3065.2495 3051.1504 3037.2527 3022.6501 3008.853 2995.0562 2981.259 2731.7046 938.80005 -1027.7252 -2954.773 2988.9128 3006.2346 3023.1536 3039.972 3056.5886 3073.0042 3089.0166 3105.4321 3121.646 3137.6587 3153.5706 3169.3816 3184.9915 3200.702 3216.11 3231.5186 -2051.422 2452.7434 3225.5767 3210.7727 3196.17 3181.668 3167.166 3152.664 3138.162 3123.5596 3109.0576 3094.4548 3079.953 3065.6523 3051.4526 3037.454 3022.9521 3009.2559 2995.459 2981.5613 2712.1672 837.99133 -1111.615 -2958.7004 2990.1213 3007.3425 3024.362 3041.1804 3057.6965 3074.2126 3090.7288 3106.7412 3122.754 3138.8672 3154.779 3170.3887 3186.099 3201.709 3217.218 3232.6262 -1770.6482 2655.6702 3224.771 3210.1685 3195.3643 3180.8623 3166.4612 3151.9592 3137.3564 3122.8545 3108.4534 3093.8506 3079.3486 3065.149 3050.949 3036.8499 3022.4487 3008.7524 2994.754 2980.957 2670.6755 857.02515 -1151.5961 -3105.9355 2990.4236 3007.6445 3024.5635 3041.3818 3057.9985 3074.5146 3090.9302 3107.0435 3123.056 3138.9678 3154.9805 3170.691 3186.4014 3201.9104 3217.4194 3232.8276 -1862.3932 2593.634 3225.5767 3210.974 3196.17 3181.668 3167.2668 3152.664 3138.263 3123.6602 3108.7554 3094.5557 3080.2551 3066.0552 3051.8555 3037.857 3023.1536 3009.4573 2995.761 2981.8633 2640.0603 827.92053 -1208.4961 -3193.6523 2992.2363 3009.3567 3026.2756 3042.9932 3059.7107 3076.126 3092.1387 3108.554 3124.6672 3140.68 3156.5918 3172.4028 3187.8113 3203.6223 3218.93 3234.439 -1579.1016 2881.0547 3225.1738 3210.3699 3195.767 3181.1646 3166.7632 3152.2612 3137.7593 3123.1567 3108.1511 3093.8506 3079.651 3065.451 3051.2512 3037.152 3022.6501 3008.9539 2995.1567 2981.3599 2585.2751 655.307 -1162.5732 -3016.7083 2991.7327 3008.853 3025.772 3042.691 
2194.528 3283.5845 3299.8992 -3283.1816 -3266.9678 -3250.7537 -3234.8418 -3219.1313 -3203.421 -3188.214 -3173.2085 -3158.2031 3299.8992 3299.8992 3299.8992 3299.8992 3299.8992 3299.8992 3299.8992 3299.8992 3299.8992 3299.1943 3281.8726 3265.0542 1313.031 3259.616 3276.4343 3292.8496 -3290.7349 -3274.6216 -3258.5083 -3242.5964 -3191.5374 90.43579 3299.8992 3299.8992 3299.8992 3299.8992 3299.8992 3288.0156 2222.8271 3282.7788 3299.0935 -3284.1887 -3267.7734 -3251.7607 -3235.7483 -3220.1384 -3204.428 -3189.2212 -3174.115 -3159.1094 3299.8992 3299.8992 3299.8992 3299.8992 3299.8992 3299.8992 3299.8992 3299.8992 3299.8992 3297.9858 3280.664 3263.745 1173.2483 3259.1125 3275.9307 3292.4468 -3291.0369 -3274.9236 -3258.8103 -3242.7979 -3174.9207 100.50659 3299.8992 3299.8992 3299.8992 3299.8992 3299.8992 3288.0156 1996.5363 3283.5845 3299.8992 -3283.2825 -3266.9678 -3250.955 -3234.8418 -3219.2322 -3203.6223 -3188.3147 -3173.3093 -3158.4045 3299.8992 3299.8992 3299.8992 3299.8992 3299.8992 3299.8992 3299.8992 3299.8992 3299.8992 3298.1873 3281.369 3263.9465 1120.1752 3259.8174 3276.6357 3293.1519 -3290.5334 -3274.2188 -3258.206 -3242.1936 -3163.5405 52.368164 3299.8992 3299.8992 3299.8992 3299.8992 3299.8992 3288.5193 1987.2711 3284.2896 3299.8992 -3282.4768 -3266.2627 -3250.1494 -3234.2375 -3218.527 -3203.018 -3187.7104 -3172.6042 -3157.6995 3299.8992 3299.8992 3299.8992 3299.8992 3299.8992 3299.8992 3299.8992 3299.8992 3299.8992 3297.9858 3281.1675 3263.9465 1064.7858 3260.1196 3276.9377 3293.5547 -3290.0298 -3273.9165 -3257.7026 -3241.69 -3143.8018 119.94324 3299.8992 3299.8992 3299.8992 3299.8992 3299.8992 3288.4185 1842.9565 3284.6924 3299.8992 -3282.1746 -3265.8599 -3249.8474 -3233.8347 -3218.0237 -3202.716 -3187.3076 -3172.2014 -3157.2966 3299.8992 3299.8992 3299.8992 3299.8992 3299.8992 3299.8992 3299.8992 3299.8992 3299.8992 3297.9858 3281.1675 3263.9465 1019.06433 3260.4216 3277.1392 3293.756 -3289.9292 -3273.715 -3257.6018 -3241.5894 -3090.326 354.6936 3299.8992 3299.8992 3299.8992 3299.8992 3299.8992 3287.0085 
3162.332 3178.3447 3194.2566 3210.0676 3225.879 3241.5894 3257.2998 3272.708 3288.217 3299.8992 -3280.966 -3265.8599 -3192.2424 895.5963 3299.8992 3299.8992 3299.8992 3292.8496 3277.7434 3262.6372 3247.4304 3232.2234 3216.9158 3201.8096 3186.9048 3172.1008 3157.498 3142.8955 3128.3936 3114.1936 3099.1882 3084.9883 3070.0835 1236.2915 -2815.1917 3081.967 3098.6846 3115.1 3131.4148 3147.6287 3163.742 3179.6538 3195.5657 3211.4775 3227.0874 3242.697 3258.4075 3273.9165 3289.325 -3295.166 -3279.7576 -3264.5508 -3219.2322 885.7269 3299.8992 3299.8992 3299.8992 3294.159 3279.1533 3263.8457 3248.7395 3233.432 3218.3257 3203.2195 3188.214 3173.41 3158.8074 3144.2046 3129.8035 3115.402 3100.3967 3086.1968 3071.292 1208.6975 -2801.3945 3083.377 3099.994 3116.3086 3132.9253 3149.0386 3165.0513 3181.1646 3196.875 3212.5854 3228.296 3244.107 3259.8174 3275.4272 3290.8354 -3293.9575 -3278.549 -3263.2415 -3116.3086 1110.7086 3299.8992 3299.8992 3299.8992 3293.9575 3278.7505 3263.5437 3248.3367 3233.13 3217.9229 3202.8167 3187.9119 3173.108 3158.5051 3143.9026 3129.5012 3114.9993 3099.994 3085.8948 3070.99 1240.9241 -2836.139 3083.075 3099.6917 3116.0063 3132.321 3148.5352 3164.447 3180.5603 3196.3713 3212.2832 3228.0945 3243.6035 3259.314 3274.823 3290.332 -3294.461 -3278.952 -3263.6443 -3178.244 1026.3153 3299.8992 3299.8992 3299.8992 3294.3604 3279.2542 3264.047 3248.8403 3233.5327 3218.1243 3203.119 3188.3147 3173.6113 3159.0088 3144.3054 3129.8035 3115.3015 3100.296 3086.2976 3071.292 1383.8287 -2490.3076 3081.665 3098.2817 3114.7979 3131.1125 3147.2258 3163.339 3179.251 3195.1628 3210.8733 3226.7852 3242.4956 3258.1055 3273.715 3289.0227 3299.8992 -3280.3618 -3265.0542 -2371.5728 2175.0916 3299.8992 3299.8992 3299.8992 3287.5122 3272.3052 3257.2998 3242.1936 3226.886 3211.679 3196.5728 3181.7688 3167.0654 3152.2612 3137.86 3123.4587 3109.259 3094.2534 3080.1543 3064.2424 1349.7894 -2722.5403 3076.831 3093.5486 3109.9639 3126.3794 3142.4927 

-58.309937 -60.324097 -30.31311 -34.643555 -25.076294 22.357178 30.615234 34.240723 15.911865 19.23523 19.033813 11.883545 39.678955 111.987305 98.19031 91.8457 113.497925 116.519165 97.283936 82.88269 77.545166 50.454712 13.595581 -4.4311523 -16.616821 -25.479126 -56.497192 -93.45703 -70.3949 -61.6333 -56.900024 -48.44055 -47.232056 -72.006226 -53.878784 -38.47046 -13.394165 25.579834 41.189575 37.86621 11.581421 -2.0141602 2.6184082 -29.708862 -67.27295 -66.36658 -50.656128 -31.420898 -41.189575 -44.41223 -40.283203 -46.92993 -27.29187 -6.0424805 -51.763916 -35.34851 48.339844 96.37756 75.4303 83.08411 113.1958 108.05969 76.33667 57.302856 41.290283 26.889038 -3.5247803 -50.454712 -39.678955 -47.03064 -61.935425 -52.56958 -72.40906 -98.99597 -72.30835 
-44.0094 -57.302856 -80.76782 -79.76074 -82.681274 -92.65137 -86.30676 -80.26428 -62.438965 -45.52002 -41.793823 -27.593994 -32.83081 -55.892944 -19.73877 4.2297363 3.2226562 8.258057 18.933105 27.694702 27.29187 60.424805 95.37048 98.794556 102.21863 100.909424 117.82837 128.70483 91.54358 65.3595 65.76233 63.74817 71.80481 76.7395 25.177002 -7.3516846 -30.31311 -52.468872 -65.25879 -60.62622 -58.20923 -56.900024 -72.61047 -80.4657 -80.06287 -91.241455 -105.03845 -109.469604 -83.184814 -77.645874 -62.942505 -44.714355 -51.763916 -64.25171 -6.1431885 8.358765 -13.192749 -13.796997 0.40283203 0.30212402 -6.2438965 31.723022 68.28003 82.47986 86.60889 90.33508 108.462524 126.28784 84.09119 71.30127 62.841797 49.246216 49.346924 56.900024 1.3092041 
3286.7065 3270.6938 3254.9834 3239.273 3223.8647 3208.5571 3193.1487 1626.8372 3191.336 3208.4563 3225.476 3242.1936 3258.8103 3275.4272 3291.742 -3292.044 -3275.4272 -3259.9182 -3243.6035 -3227.893 -3212.4846 -3197.177 -3181.9702 -3166.864 -3151.8584 -3137.0544 -3122.4517 -2064.212 3299.8992 3299.8992 3299.8992 3299.8992 3299.8992 3299.8992 3299.8992 3299.8992 3299.8992 3299.8992 3299.8992 3299.8992 3285.8 3270.0896 3254.2786 3238.7695 3223.1597 3207.953 3192.5444 1641.3391 3190.8325 3208.0535 3224.9724 3241.7908 3258.307 3274.9236 3291.2383 -3292.4468 -3276.6357 -3260.1196 -3244.7112 -3229.0007 -3213.2903 -3197.6807 -3182.373 -3167.2668 -3152.2612 -3137.5579 -3122.9553 -2080.1238 3299.8992 3299.8992 3299.8992 3299.8992 3299.8992 3299.8992 3299.8992 
3236.3525 3220.8435 3206.4421 3192.5444 3178.3447 3164.447 3150.348 -1353.1128 3156.189 3172.3022 3188.214 3204.0251 3219.5342 3235.144 3250.4517 3265.7593 3280.664 3296.173 -3288.8213 -3274.118 -3258.9111 -3244.4092 -3229.9072 -3215.6067 -3201.3062 -3187.207 -3173.2085 2924.4597 3299.8992 3299.8992 3299.8992 3299.8992 3299.8992 3299.8992 3299.8992 3299.8992 3295.6694 3280.5632 3265.6584 3250.8545 3236.3525 3220.7427 3206.3416 3192.5444 3178.3447 3164.3462 3150.348 -1633.9874 3156.7932 3172.705 3188.7175 3204.5288 3220.0378 3235.6475 3250.8545 3266.2627 3281.1675 3296.6765 -3288.4185 -3273.413 -3258.5083 -3244.107 -3229.5044 -3215.103 -3200.9033 -3186.8042 -3172.705 3299.8992 3299.8992 3299.8992 3299.8992 3299.8992 3299.8992 3299.8992 3299.8992 
3282.7788 3298.7915 -3285.6995 -3270.7947 -3255.5876 -3240.5823 -3225.3752 -3210.974 214.50806 3299.8992 3299.8992 3299.8992 3299.8992 3299.8992 3299.8992 270.5017 -3291.2383 -3275.5278 -3260.0188 -3245.2148 -3230.1086 -3215.0024 -3200.3997 -3186.099 -3172 -3157.8003 -3143.9026 3299.8992 3299.8992 3299.8992 3299.8992 3299.8992 3299.8992 3299.8992 3299.8992 3299.8992 3299.8992 3299.8992 3283.786 451.6754 3284.5916 3299.7986 -3284.491 -3268.881 -3253.9763 -3238.971 -3224.0662 -3209.262 87.716675 3299.8992 3299.8992 3299.8992 3299.8992 3299.8992 3299.8992 174.52698 -3288.7207 -3273.3123 -3258.206 -3242.5964 -3227.5908 -3213.1897 -3198.285 -3183.6821 -3169.3816 -3155.2825 -3141.4856 3299.8992 3299.8992 3299.8992 3299.8992 3299.8992 3299.8992 3299.8992 3299.8992 
3065.7532 3051.5532 3037.555 3022.9521 3009.2559 2995.3582 2981.3599 2414.3738 513.1073 -1376.8799 -3180.8623 2994.754 3012.0757 3028.894 3045.7122 3062.329 3078.7444 3094.757 3111.0718 3127.2856 3143.399 3159.0088 3174.9207 3190.5303 3206.0393 3221.5483 3236.7554 -1247.5708 3160.3179 3225.5767 3210.8733 3196.17 3181.668 3167.166 3152.5635 3138.0615 3123.5596 3108.9568 3094.3542 3079.8523 3065.6523 3051.4526 3037.3535 3022.8516 3009.1553 2995.3582 2981.4604 2491.0125 572.3236 -1358.0475 -3251.9622 2994.351 3011.4714 3028.3904 3045.2087 3061.7249 3078.1401 3094.757 3110.7695 3126.7822 3142.694 3158.5051 3174.3164 3190.0269 3205.6365 3221.045 3236.4531 -1460.669 2681.4514 3227.0874 3212.4846 3197.6807 3183.1787 3168.7773 3154.1748 
3262.5366 3279.2542 3295.6694 -3287.915 -3271.701 -3255.6885 -3239.5752 -2875.6165 684.81445 3299.8992 3299.8992 3299.8992 3299.8992 3299.8992 3285.901 1052.6001 3285.0952 3299.8992 -3281.8726 -3265.6584 -3249.5452 -3233.6333 -3217.8223 -3202.3132 -3187.1062 -3172 -3157.0952 3299.8992 3299.8992 3299.8992 3299.8992 3299.8992 3299.8992 3299.8992 3299.8992 3299.8992 3295.3674 3278.65 3261.4287 788.2416 3259.7168 3276.535 3292.9504 -3290.634 -3274.4202 -3258.307 -3242.2942 -2897.5708 636.1725 3299.8992 3299.8992 3299.8992 3299.8992 3299.7986 3283.5845 950.7843 3283.1816 3299.8992 -3283.484 -3267.3706 -3251.358 -3235.446 -3219.635 -3204.126 -3188.8184 -3173.8127 -3158.7065 3299.8992 3299.8992 3299.8992 3299.8992 3299.8992 3299.8992 3299.8992 3299.8992 
3170.0867 3155.484 3140.8813 3126.48 3111.978 3096.9727 3083.075 3067.0623 937.2894 -3144.5068 3082.4707 3099.0874 3115.503 3131.8176 3147.931 3163.9434 3180.1575 3195.868 3211.679 3227.4902 3243.0999 3258.7097 3274.2188 3289.7278 -3294.8638 -3279.4556 -3264.2485 -2915.7988 1495.2118 3299.8992 3299.8992 3299.8992 3290.5334 3275.4272 3260.321 3245.0134 3229.9072 3214.4988 3199.4934 3184.6892 3169.9858 3155.2825 3140.7805 3126.2786 3111.8774 3096.8718 3082.8735 3064.041 703.64685 3212.0818 3084.384 3101.001 3117.4163 3133.731 3149.945 3165.857 3181.9702 3197.6807 3213.5925 3229.303 3244.9126 3260.5225 3276.0315 3291.4397 -3293.051 -3277.7434 -3262.6372 -2913.4827 1511.023 3299.8992 3299.8992 3299.8992 3292.1448 3277.24 3262.033 

-71.40198 -64.85596 -63.949585 -78.45154 -101.11084 -105.944824 -96.276855 -56.09436 -40.98816 -28.097534 4.0283203 16.818237 33.636475 31.32019 33.032227 43.707275 50.253296 74.32251 124.072266 116.31775 103.62854 104.937744 90.737915 64.75525 23.666382 38.571167 94.766235 105.441284 85.09827 49.145508 1.9134521 -19.134521 -30.615234 -20.74585 -29.708862 -44.613647 -50.958252 -84.59473 -129.10767 -106.8512 -89.93225 -75.128174 -66.6687 -56.497192 -67.37366 -77.74658 -83.08411 -57.302856 -55.389404 -49.749756 -38.974 -8.258057 6.2438965 3.4240723 19.839478 11.984253 5.1361084 40.283203 91.54358 44.311523 -0.70495605 5.7403564 24.975586 67.27295 147.33582 172.00928 124.575806 82.681274 75.22888 52.56958 24.27063 2.1148682 -16.918945 -7.3516846 -22.961426 -37.664795 -29.910278 -59.21631 -101.916504 -100.50659 -92.248535 -46.5271 -41.89453 -58.410645 -75.027466 -82.37915 -70.09277 -25.378418 -5.8410645 -3.1219482 7.9559326 21.24939 16.113281 -11.380005 -22.659302 -4.4311523 18.026733 57.302856 114.20288 101.71509 88.92517 96.780396 88.11951 90.737915 134.44519 144.81812 107.65686 55.69153 31.32019 26.889038 22.457886 -30.212402 -67.8772 -76.034546 -90.234375 -73.516846 -56.900024 -102.62146 -127.79846 -77.948 -44.110107 -32.528687 -36.758423 -38.772583 -38.47046 -52.166748 -59.417725 -43.807983 -34.44214 -27.79541 -0.40283203 9.164429 12.286377 9.970093 28.701782 41.89453 39.88037 66.76941 118.93616 99.3988 76.33667 59.014893 -17.72461 -14.904785 127.29492 241.4978 231.3263 182.58362 145.9259 98.99597 69.1864 32.025146 -4.9346924 -13.796997 -40.786743 -60.12268 -95.37048 -152.57263 -227.19727 -209.47266 -179.46167 -139.37988 -105.23987 -82.07703 -78.95508 -94.56482 -101.71509 -69.08569 -67.977905 -60.424805 -47.03064 -19.335938 5.1361084 5.0354004 15.106201 17.523193 23.565674 58.511353 117.72766 97.88818 81.7749 88.0188 87.213135 77.142334 84.59473 85.40039 71.90552 37.060547 29.507446 28.29895 28.701782 -1.5106201 -32.32727 -13.998413 -17.22107 -29.205322 -26.28479 -56.5979 -86.40747 -62.539673 
-19.23523 -43.203735 -55.892944 -63.24463 -57.10144 -50.55542 -55.490112 -81.47278 -91.04004 -85.5011 -103.829956 -94.766235 -96.276855 -73.61755 -57.60498 -40.48462 -29.708862 -42.700195 -68.88428 -34.140015 -9.063721 -1.0070801 26.083374 54.0802 65.76233 73.61755 67.37366 86.00464 92.34924 106.64978 120.7489 121.9574 106.448364 76.94092 66.36658 60.72693 48.742676 44.210815 53.878784 3.9276123 -13.293457 -32.528687 -46.02356 -50.454712 -49.246216 -45.01648 -53.778076 -79.45862 -77.948 -80.667114 -67.77649 -86.206055 -81.06995 -60.928345 -58.61206 -40.38391 -18.328857 -21.954346 -28.198242 5.9417725 30.917358 27.090454 31.420898 22.961426 5.4382324 15.408325 72.71118 119.13757 122.15881 123.568726 123.87085 124.67651 104.937744 68.07861 50.55542 40.182495 21.350098 20.343018 41.189575 17.825317 14.501953 -13.494873 -26.083374 -40.38391 -61.331177 -77.645874 -74.020386 -90.03296 -90.5365 -99.298096 -116.72058 -116.922 -106.75049 -82.88269 -64.05029 -55.389404 -40.786743 -47.03064 -60.827637 -2.1148682 23.565674 34.34143 49.54834 62.23755 30.413818 13.696289 30.111694 57.10144 66.467285 77.34375 74.12109 89.93225 97.88818 78.652954 67.07153 57.000732 38.87329 47.836304 46.627808 -7.5531006 -33.43506 -49.145508 -61.12976 -64.65454 -57.806396 -45.822144 -52.670288 -80.76782 -81.674194 -80.86853 -101.11084 -93.35632 -87.716675 -65.15808 -51.260376 -50.05188 -36.95984 -37.060547 -52.468872 -9.567261 9.466553 17.72461 53.67737 85.29968 52.468872 17.623901 36.35559 65.76233 80.86853 87.716675 93.15491 112.994385 119.13757 91.241455 82.177734 62.841797 37.060547 41.99524 43.606567 0.9063721 -22.659302 -47.93701 -53.878784 -60.62622 -53.17383 -44.714355 -53.375244 -77.74658 -82.07703 -85.90393 -101.61438 -91.44287 -87.31384 -75.22888 -54.986572 -47.836304 -30.81665 -47.93701 -62.64038 -18.73169 7.7545166 13.192749 24.77417 33.33435 31.723022 40.48462 67.57507 100.70801 102.11792 104.73633 94.16199 116.72058 124.97864 89.63013 67.57507 63.14392 47.332764 52.56958 55.69153 5.3375244 
3299.8992 3299.8992 3299.8992 3299.8992 3299.8992 3285.1958 3269.284 3253.5735 3237.9639 3222.5554 3207.1472 3191.7388 1120.3766 3191.6382 3208.8591 3225.879 3242.5964 3259.2131 3275.6287 3292.1448 -3291.641 -3275.2258 -3259.5154 -3243.3013 -3227.5908 -3212.1826 -3196.875 -3181.668 -3166.5618 -3151.5564 -3136.7522 -3122.1497 -1775.0793 3299.8992 3299.8992 3299.8992 3299.8992 3299.8992 3299.8992 3299.8992 3299.8992 3299.8992 3299.8992 3299.8992 3299.8992 3284.2896 3268.3777 3252.5664 3236.9568 3221.4478 3206.1401 3190.8325 1282.2144 3190.2283 3207.3486 3224.3682 3241.1865 3257.8032 3274.3193 3290.634 -3293.051 -3276.6357 -3260.5225 -3245.0134 -3229.303 -3213.4917 -3198.0835 -3182.675 -3167.5688 -3152.5635 -3137.7593 -3123.1567 -2160.1868 3299.8992 3299.8992 3299.8992 3299.8992 3299.8992 3299.8992 3299.8992 3299.8992 3299.8992 3299.8992 3299.8992 3299.8992 3285.8 3270.0896 3254.3792 3238.7695 3223.2605 3207.852 3192.4438 1130.8502 3192.4438 3209.5642 3226.5837 3243.3013 3259.8174 3276.4343 3292.8496 -3290.9363 -3275.125 -3259.2131 -3242.8984 -3227.188 -3211.7798 -3196.4722 -3181.366 -3166.2598 -3151.2542 -3136.3494 -3121.8474 -1480.1056 3299.8992 3299.8992 3299.8992 3299.8992 3299.8992 3299.8992 3299.8992 3299.8992 3299.8992 3299.8992 3299.8992 3299.8992 3283.2825 3267.2698 3251.5593 3236.0503 3220.5413 3205.133 3189.8254 721.37146 3190.933 3208.0535 3225.0732 3241.7908 3258.4075 3274.9236 3291.339 -3292.3462 -3275.9307 -3260.321 -3244.0063 -3228.598 -3212.8875 -3197.2778 -3182.0708 -3166.864 -3151.9592 -3137.155 -3122.5525 -1447.3755 3299.8992 3299.8992 3299.8992 3299.8992 3299.8992 3299.8992 3299.8992 3299.8992 3299.8992 3299.8992 3299.8992 3299.8992 3284.3901 3268.2769 3252.5664 3236.9568 3221.5483 3206.1401 3190.7317 447.24426 3192.5444 3209.5642 3226.5837 3243.6035 3260.1196 3276.535 3292.9504 -3290.8354 -3274.4202 -3258.4075 -3242.697 -3226.6846 -3211.4775 -3196.0693 -3180.8623 -3165.857 -3150.8513 -3136.148 -3121.4446 -1655.3375 3299.8992 3299.8992 3299.8992 3299.8992 3299.8992 3299.8992 3299.8992 
3299.8992 3295.0652 3279.959 3265.155 3250.3508 3235.6475 3220.2393 3205.9387 3191.9402 3177.841 3163.8428 3149.6428 -2279.9285 3157.196 3173.41 3189.2212 3204.9316 3220.642 3236.0503 3251.4587 3266.7664 3281.7717 3297.1802 -3287.8142 -3272.9094 -3257.904 -3243.5027 -3228.9001 -3214.5996 -3200.299 -3186.2 -3172.2014 3269.1833 3299.8992 3299.8992 3299.8992 3299.8992 3299.8992 3299.8992 3299.8992 3299.8992 3295.8708 3280.7646 3265.9607 3250.955 3236.554 3220.944 3206.7444 3192.7458 3178.6467 3164.6484 3150.5493 -2168.1426 3157.901 3174.0142 3189.8254 3205.6365 3221.2463 3236.7554 3252.1636 3267.4712 3282.376 3297.7844 -3287.3108 -3272.406 -3257.2998 -3242.8984 -3228.296 -3214.096 -3199.7954 -3185.5957 -3171.698 3299.8992 3299.8992 3299.8992 3299.8992 3299.8992 3299.8992 3299.8992 3299.8992 3299.8992 3295.2666 3280.1604 3265.2556 3250.4517 3235.7483 3220.5413 3206.1401 3192.1416 3177.942 3164.0442 3149.945 -2498.2634 3157.901 3174.0142 3189.8254 3205.536 3221.2463 3236.6545 3252.1636 3267.3706 3282.376 3297.6836 -3287.3108 -3272.5066 -3257.4004 -3242.7979 -3228.4973 -3214.096 -3199.7954 -3185.6963 -3171.698 3299.8992 3299.8992 3299.8992 3299.8992 3299.8992 3299.8992 3299.8992 3299.8992 3299.8992 3294.6624 3279.7576 3264.7522 3249.948 3234.9426 3219.7356 3205.536 3191.5374 3177.4382 3163.44 3149.3408 -3059.0056 3158.4045 3174.5178 3190.3289 3206.0393 3221.6492 3237.1582 3252.4658 3267.7734 3283.1816 3298.1873 -3286.908 -3271.9023 -3256.9976 -3242.5964 -3227.9937 -3213.5925 -3199.3926 -3185.3943 -3171.1943 3299.8992 3299.8992 3299.8992 3299.8992 3299.8992 3299.8992 3299.8992 3299.8992 3299.8992 3294.3604 3279.3547 3264.45 3249.646 3234.7412 3219.5342 3205.435 3191.336 3177.2368 3163.2385 3149.0386 3142.8955 3159.2102 3175.2227 3191.034 3206.845 3222.4548 3237.9639 3253.2715 3268.579 3283.9873 3298.892 -3286.1023 -3271.0967 -3256.6956 -3241.7908 -3227.2888 -3212.8875 -3198.6877 -3184.5886 -3170.59 3299.8992 3299.8992 3299.8992 3299.8992 3299.8992 3299.8992 3299.8992 3299.8992 
3299.8992 3299.8992 3299.8992 3285.3972 504.3457 3286.0015 3299.8992 -3283.081 -3267.572 -3252.5664 -3237.4602 -3222.5554 -3207.2478 458.52356 3299.8992 3299.8992 3299.8992 3299.8992 3299.8992 3299.8992 65.76233 -3289.4255 -3273.9165 -3258.4075 -3243.704 -3228.598 -3213.4917 -3198.8892 -3184.6892 -3170.3887 -3156.2896 -3142.3918 3299.8992 3299.8992 3299.8992 3299.8992 3299.8992 3299.8992 3299.8992 3299.8992 3299.8992 3299.8992 3299.8992 3284.793 409.27734 3285.901 3299.8992 -3283.2825 -3267.7734 -3252.5664 -3237.561 -3222.6562 -3208.255 196.07849 3299.8992 3299.8992 3299.8992 3299.8992 3299.8992 3299.8992 -315.7196 -3287.21 -3271.9023 -3256.6956 -3241.1865 -3226.2817 -3211.7798 -3196.875 -3182.2722 -3168.0725 -3154.074 -3140.1763 3299.8992 3299.8992 3299.8992 3299.8992 3299.8992 3299.8992 3299.8992 3299.8992 3299.8992 3299.8992 3299.8992 3285.5986 105.340576 3288.217 3299.8992 -3280.8655 -3265.5579 -3250.4517 -3235.3455 -3220.5413 -3165.454 711.7035 3299.8992 3299.8992 3299.8992 3299.8992 3299.8992 3299.8992 -477.8595 -3287.8142 -3272.406 -3256.897 -3242.0928 -3227.188 -3211.8804 -3197.3784 -3183.1787 -3168.9788 -3154.8796 -3141.0828 3299.8992 3299.8992 3299.8992 3299.8992 3299.8992 3299.8992 3299.8992 3299.8992 3299.8992 3299.8992 3299.8992 3284.491 146.83228 3287.0085 3299.8992 -3282.1746 -3266.7664 -3251.5593 -3236.554 -3221.6492 -3105.4321 893.1793 3299.8992 3299.8992 3299.8992 3299.8992 3299.8992 3299.8992 -783.91113 -3289.325 -3274.0173 -3258.8103 -3243.3013 -3228.296 -3213.8945 -3198.9897 -3184.3872 -3170.0867 -3155.9875 -3142.1904 3299.8992 3299.8992 3299.8992 3299.8992 3299.8992 3299.8992 3299.8992 3299.8992 3299.8992 3299.8992 3299.1943 3282.8796 -73.81897 3286.203 3299.8992 -3282.8796 -3267.4712 -3252.2644 -3237.2588 -3222.354 -3171.3958 661.7523 3299.8992 3299.8992 3299.8992 3299.8992 3299.8992 3299.8992 -1034.0698 -3288.1165 -3272.708 -3257.2998 -3242.5964 -3227.4902 -3212.2832 -3197.7812 -3183.5815 -3169.3816 -3155.182 -3141.3848 3299.8992 3299.8992 3299.8992 3299.8992 3299.8992 3299.8992 3299.8992 3299.8992 
3139.7734 3125.171 3110.669 3096.167 3081.5642 3067.2637 3053.1646 3039.0654 3024.5635 3010.7666 2996.9695 2983.0718 2537.3381 638.9923 -1352.005 -3240.6829 2995.459 3012.68 3029.5989 3046.3164 3062.9333 3079.3486 3095.9656 3111.8774 3127.7893 3143.8018 3159.7136 3175.424 3191.1345 3206.7444 3222.052 3237.561 -1082.0068 3239.6758 3224.9724 3210.269 3195.5657 3181.0637 3166.5618 3151.9592 3137.4573 3122.9553 3107.9497 3093.8506 3079.4495 3065.3503 3051.1504 3037.152 3022.4487 3008.7524 2995.0562 2981.0576 2402.3894 542.51404 -1379.3976 -3274.823 2994.754 3011.8743 3028.7932 3045.5107 3062.1277 3078.6438 3094.6562 3111.0718 3127.185 3143.097 3158.908 3174.8198 3190.3289 3205.9387 3221.347 3236.7554 -1230.954 3062.5305 3225.476 3210.974 3196.2708 3181.668 3167.166 3152.765 3138.162 3123.5596 3108.4534 3094.2534 3080.0537 3065.7532 3051.654 3037.6555 3022.8516 3009.3567 2995.459 2981.5613 2444.1833 548.5565 -1352.6093 -3279.959 2994.754 3011.975 3028.894 3045.7122 3062.2283 3078.6438 3094.6562 3111.0718 3127.185 3143.1975 3159.0088 3174.8198 3190.5303 3206.0393 3221.5483 3236.856 -965.5884 3237.1582 3223.9653 3209.262 3194.5586 3180.0566 3165.5547 3151.0527 3136.5508 3121.9482 3107.3455 3092.8435 3078.3416 3064.041 3049.942 3035.9436 3021.4417 3007.7454 2993.8477 2979.849 2357.373 447.34497 -1482.724 3209.262 2995.0562 3012.277 3029.0955 3045.813 3062.4297 3078.9458 3095.3613 3111.4746 3127.3865 3143.399 3159.2102 3174.9207 3190.631 3206.2407 3221.6492 3236.856 -744.93713 3237.2588 3222.5554 3207.7515 3193.048 3178.4453 3164.2456 3149.5422 3135.1409 3120.5383 3105.9355 3091.5344 3076.9316 3062.732 3048.6328 3034.6343 3020.1323 3006.3354 2992.4377 2978.4392 2186.7737 93.55774 -1862.1918 2981.3599 2998.6816 3016.0034 3032.8215 3049.4385 3065.9546 3082.3699 3098.886 3114.7979 3130.7097 3146.7224 3162.6343 3178.3447 3194.0552 3209.5642 3224.8718 3240.1794 -901.8402 3241.69 3226.9866 3212.2832 3197.5798 3183.078 3168.576 3154.074 
3299.8992 3293.756 3276.9377 3259.4146 488.33313 3259.8174 3276.535 3293.051 -3290.5334 -3274.3193 -3258.206 -3242.1936 -2841.4763 732.0465 3299.8992 3299.8992 3299.8992 3299.8992 3298.993 3282.8796 839.1998 3282.7788 3299.5972 -3283.9873 -3267.874 -3251.7607 -3235.8489 -3220.1384 -3204.6294 -3189.2212 -3174.115 -3159.3108 3299.8992 3299.8992 3299.8992 3299.8992 3299.8992 3299.8992 3299.8992 3299.8992 3299.8992 3293.1519 3276.3335 3259.0117 435.76355 3259.616 3276.3335 3292.8496 -3290.8354 -3274.6216 -3258.4075 -3242.395 -2965.0452 388.33008 3299.8992 3299.8992 3299.8992 3299.8992 3299.8992 3285.1958 442.8131 3286.3037 3299.8992 -3280.5632 -3264.2485 -3248.1353 -3232.2234 -3216.6138 -3201.1047 -3185.797 -3170.7915 -3155.8867 3299.8992 3299.8992 3299.8992 3299.8992 3299.8992 3299.8992 3299.8992 3299.8992 3299.8992 3295.9717 3278.549 3261.5295 316.12244 3262.8386 3279.657 3296.0723 -3287.3108 -3271.298 -3255.1848 -3239.3738 -2798.3733 686.7279 3299.8992 3299.8992 3299.8992 3299.8992 3299.8992 3285.5986 426.4984 3286.908 3299.8992 -3280.1604 -3263.8457 -3247.7324 -3231.72 -3216.0095 -3200.5005 -3185.3943 -3170.288 -3155.484 3299.8992 3299.8992 3299.8992 3299.8992 3299.8992 3299.8992 3299.8992 3299.8992 3299.8992 3295.6694 3278.247 3261.2273 319.5465 3262.8386 3279.5562 3295.9717 -3287.5122 -3271.399 -3255.3862 -3239.273 -2831.5063 594.6808 3299.8992 3299.8992 3299.8992 3299.8992 3299.8992 3286.5051 235.85815 3288.3179 3299.8992 -3278.7505 -3262.6372 -3246.3225 -3230.5115 -3214.801 -3199.292 -3184.1858 -3169.0796 -3151.8584 3299.8992 3299.8992 3299.8992 3299.8992 3299.8992 3299.8992 3299.8992 3299.8992 3299.8992 3296.2737 3278.65 3261.731 137.56714 3264.2485 3281.1675 3297.583 -3286.0015 -3269.989 -3253.8757 -3237.9639 -2744.7966 881.5979 3299.8992 3299.8992 3299.8992 3299.8992 3299.8992 3286.0015 125.582886 3288.1165 3299.8992 -3278.8513 -3262.738 -3246.7253 -3230.713 -3215.103 -3199.594 -3184.2864 -3169.281 -3090.7288 3299.8992 3299.8992 3299.8992 3299.8992 3299.8992 3299.8992 3299.8992 3299.8992 
3246.7253 3231.4177 3216.3115 3201.1047 3186.4014 3171.4966 3156.7932 3142.3918 3127.7893 3113.4888 3098.584 3084.2834 3066.6594 872.7356 -3231.5186 3084.5854 3101.1016 3117.517 3133.9324 3149.945 3166.159 3182.0708 3197.9827 3213.794 3229.4036 3245.114 3260.8245 3276.3335 3291.742 -3292.749 -3277.4414 -3262.3352 -2877.4292 1599.646 3299.8992 3299.8992 3299.8992 3291.9434 3276.9377 3261.6301 3246.4233 3231.1157 3216.0095 3201.004 3186.099 3171.1943 3156.5918 3142.0898 3127.588 3113.2874 3098.2817 3084.082 3066.458 937.1887 -3179.8552 3083.8806 3100.4973 3116.9128 3133.1267 3149.3408 3165.3533 3181.4666 3197.3784 3213.0889 3228.9001 3244.6106 3260.1196 3275.6287 3291.1377 -3293.4539 -3278.1462 -3262.9395 -2848.9287 1489.27 3299.8992 3299.8992 3299.8992 3291.641 3276.6357 3261.4287 3246.0205 3230.8135 3215.6067 3200.601 3185.6963 3170.8923 3156.2896 3141.7876 3127.2856 3112.8845 3097.879 3083.7798 3064.3433 585.21423 3069.7815 3086.3982 3103.1157 3119.4304 3135.846 3151.9592 3167.9717 3183.8835 3199.6948 3215.5059 3231.2163 3246.9268 3262.5366 3277.9448 3293.6553 -3291.339 -3275.7292 -3260.7239 -2820.63 1588.0646 3299.8992 3299.8992 3299.8992 3293.3533 3278.3477 3263.2415 3247.9338 3232.727 3217.3186 3202.3132 3187.4084 3172.705 3158.1023 3143.4998 3128.897 3114.395 3099.591 3085.391 3066.7603 763.1653 3176.6326 3086.7004 3103.418 3119.8333 3136.0474 3152.1606 3168.173 3184.2864 3199.9968 3215.808 3231.6191 3247.229 3262.8386 3278.3477 3293.8567 -3290.8354 -3275.4272 -3260.2202 -2608.438 1990.2924 3299.8992 3299.8992 3299.8992 3291.4397 3276.4343 3261.2273 3245.9197 3230.8135 3215.5059 3200.3997 3185.5957 3170.7915 3156.0881 3141.5862 3127.0842 3112.7837 3097.7783 3083.5784 3064.3433 555.40466 3069.58 3086.499 3103.2166 3119.6318 3135.9465 3152.0598 3168.0725 3183.9844 3199.7954 3215.7073 3231.4177 3247.0276 3262.738 3278.0457 3293.5547 -3291.0369 -3275.7292 -3260.4216 -2599.0723 2005.6 3299.8992 3299.8992 3299.8992 3291.2383 3276.132 3260.9253 

-56.19507 -47.735596 -45.41931 -51.260376 -72.509766 -103.829956 -126.086426 -102.62146 -86.00464 -54.18091 -29.507446 3.6254883 45.721436 47.836304 40.585327 32.730103 21.047974 30.715942 71.09985 52.56958 55.892944 77.948 88.32092 86.91101 99.19739 107.15332 86.8103 60.72693 41.189575 11.480713 2.6184082 -17.623901 -52.56958 -46.42639 -73.11401 -63.64746 -24.27063 -46.829224 -102.72217 -86.91101 -87.41455 -82.681274 -77.645874 -69.1864 -79.2572 -97.88818 -114.20288 -101.815796 -87.01172 -29.507446 1.9134521 18.429565 33.43506 26.687622 24.673462 30.212402 21.853638 56.295776 104.03137 90.43579 75.22888 92.65137 119.33899 137.0636 153.17688 158.91724 147.63794 103.829956 70.999146 50.253296 36.4563 -10.574341 -64.35242 -47.93701 -26.385498 -35.85205 -45.92285 -79.156494 -115.512085 -88.92517 -88.92517 -88.92517 -88.92517 -88.92517 -88.92517 -88.92517 -88.92517 -88.92517 -88.92517 -88.92517 -88.92517 -88.92517 -88.92517 -88.92517 -88.92517 -88.92517 -88.92517 -88.92517 -88.92517 -88.92517 103.52783 76.538086 49.44763 11.480713 38.974 53.979492 -22.25647 -59.61914 -19.033813 16.818237 22.457886 -37.36267 -91.744995 -102.01721 -116.519165 -115.20996 -93.0542 -98.0896 -108.1604 -62.036133 -54.986572 -51.05896 0.70495605 33.9386 19.335938 -34.039307 -54.18091 -6.8481445 20.24231 25.982666 -0.50354004 1.6113281 -2.5177002 -70.19348 -19.73877 131.62537 233.23975 286.11145 308.2672 276.24207 283.59375 322.56775 299.90845 223.47107 205.44434 264.35852 208.86841 106.448364 45.318604 47.836304 122.36023 80.4657 -28.903198 22.357178 93.0542 -6.4453125 -185.90698 -365.8722 -479.97437 -423.17505 -340.8966 -255.99976 -207.15637 -195.07141 -193.7622 -205.84717 -189.53247 -136.66077 -65.963745 -25.579834 -16.516113 55.288696 112.28943 149.45068 228.60718 288.62915 310.07996 391.75415 491.25366 530.4291 461.84692 359.32617 274.83215 262.44507 339.4867 525.8972 728.82385 697.1008 622.1741 438.38196 199.70398 35.34851 -41.4917 -100.00305 -126.38855 -198.29407 -283.99658 -446.64 -510.6903 -353.4851 
-11.178589 -31.82373 -48.843384 -59.317017 -60.72693 -50.454712 -49.649048 -69.28711 -74.2218 -79.45862 -88.32092 -105.74341 -107.15332 -73.11401 -53.274536 -41.088867 -22.457886 -36.95984 -49.850464 -5.1361084 13.192749 13.696289 15.609741 9.567261 8.258057 29.80957 57.10144 85.40039 85.80322 95.37048 88.92517 98.69385 94.96765 57.302856 64.956665 58.61206 35.046387 39.47754 43.50586 -9.164429 -29.406738 -46.42639 -61.6333 -71.30127 -68.38074 -63.446045 -66.06445 -84.49402 -85.29968 -97.58606 -117.42554 -154.88892 -146.53015 -118.63403 -115.008545 -112.18872 -91.64429 -88.11951 -98.291016 -45.318604 -29.406738 -31.723022 -18.530273 -7.8552246 -7.9559326 20.040894 82.37915 156.39954 191.64734 186.41052 171.30432 180.87158 188.02185 149.45068 122.25952 103.930664 83.28552 81.57349 88.723755 41.189575 21.148682 3.9276123 -26.989746 -54.382324 -49.649048 -30.917358 -36.254883 -49.95117 -47.53418 -61.029053 -113.29651 -193.96362 -257.8125 -269.79675 -300.412 -382.69043 -448.65417 -516.32996 -541.30554 -478.36304 -441.3025 -425.99487 -385.40955 -336.36475 -331.53076 -272.31445 -147.03369 -51.763916 -22.457886 14.703369 76.638794 184.39636 272.7173 310.28137 335.6598 353.58582 353.68652 356.50635 341.29944 304.54102 304.54102 290.74402 269.39392 243.00842 219.34204 207.65991 174.8291 121.051025 90.5365 80.06287 56.295776 13.595581 -19.537354 -44.613647 -88.62305 -153.88184 -227.29797 -290.24048 -320.95642 -304.84314 -321.45996 -405.14832 -473.9319 -449.25842 -394.27185 -352.57874 -323.3734 -315.31677 -379.8706 -486.41968 -519.754 -409.68018 -222.26257 -106.14624 -57.10144 14.401245 123.46802 264.76135 423.07434 474.63684 474.1333 440.69824 427.00195 443.21594 462.04834 480.2765 412.90283 333.54492 287.8235 242.40417 220.85266 165.86609 119.64111 85.40039 -15.811157 -164.6576 -297.79358 -464.46533 -643.7256 -711.8042 -778.3722 -901.5381 -1022.287 -1186.6425 -1370.1324 -1498.6359 -1524.9207 -1406.0852 -1201.648 -914.1266 -583.09937 -285.70862 -70.29419 15.509033 -1.0070801 -155.39246 -287.8235 -176.44043 81.47278 445.2301 
3299.8992 3299.8992 3299.8992 3299.8992 3299.8992 3287.0085 3271.0967 3255.2856 3239.6758 3224.1667 3208.8591 3193.35 702.23694 3194.2566 3211.4775 3228.3965 3245.2148 3261.9324 3278.3477 3294.6624 -3289.0227 -3272.6074 -3257.0984 -3240.7837 -3225.0732 -3209.6648 -3194.458 -3179.251 -3164.1448 -3149.24 -3134.5366 -3119.8333 -1139.7125 3299.8992 3299.8992 3299.8992 3299.8992 3299.8992 3299.8992 3299.8992 3299.8992 3299.8992 3299.8992 3299.8992 3299.8992 3283.6853 3267.6726 3251.8616 3236.2517 3220.8435 3205.536 3190.1274 209.67407 3192.6453 3209.7656 3226.6846 3243.5027 3260.1196 3276.6357 3293.051 -3290.7349 -3274.2188 -3258.206 -3242.7979 -3227.0874 -3211.377 -3195.767 -3180.5603 -3165.454 -3150.5493 -3135.745 -3121.0417 -1555.0323 3299.8992 3299.8992 3299.8992 3299.8992 3299.8992 3299.8992 3299.8992 3299.8992 3299.8992 3299.8992 3299.8992 3299.8992 3284.0881 3268.4783 3252.6672 3237.1582 3221.6492 3206.1401 3190.631 -256.5033 3194.6594 3211.7798 3228.6987 3245.3154 3262.033 3278.549 3294.9646 -3288.8213 -3273.0103 -3256.7961 -3240.985 -3225.476 -3209.8662 -3194.2566 -3178.949 -3163.8428 -3148.938 -3134.2346 -3119.6318 -1247.8729 3299.8992 3299.8992 3299.8992 3299.8992 3299.8992 3299.8992 3299.8992 3299.8992 3299.8992 3299.8992 3299.8992 3299.8992 3284.1887 3268.3777 3252.6672 3237.1582 3221.6492 3206.3416 3190.933 -97.48535 3194.2566 3211.377 3228.296 3245.114 3261.6301 3278.1462 3294.461 -3289.224 -3273.413 -3257.5012 -3241.287 -3225.5767 -3210.1685 -3194.8608 -3179.6538 -3164.6484 -3149.6428 -3134.8389 -3120.337 -1528.8483 3299.8992 3299.8992 3299.8992 3299.8992 3299.8992 3299.8992 3299.8992 3299.8992 3299.8992 3299.8992 3299.8992 3299.8992 3284.793 3269.0825 3253.2715 3237.6616 3222.2534 3206.9458 3191.336 -715.12756 3196.4722 3213.5925 3230.5115 3247.3296 3263.9465 3280.2612 3296.6765 -3287.0085 -3271.1975 -3254.8828 -3239.3738 -3223.8647 -3208.1543 -3192.6453 -3177.3376 -3162.332 -3147.3267 -3132.6233 -3118.0205 -1049.3774 3299.8992 3299.8992 3299.8992 3299.8992 3299.8992 3299.8992 3299.8992 
3299.8992 3295.468 3280.0598 3265.155 3250.2502 3235.3455 3220.1384 3206.0393 3191.9402 3177.841 3163.8428 3149.7437 -3016.7083 3158.7065 3174.8198 3190.7317 3206.3416 3221.9512 3237.4602 3252.8687 3268.1763 3283.5845 3298.59 -3286.5051 -3271.6003 -3257.199 -3242.1936 -3227.7922 -3213.391 -3199.0906 -3184.9915 -3170.993 3299.8992 3299.8992 3299.8992 3299.8992 3299.8992 3299.8992 3299.8992 3299.8992 3299.8992 3294.8638 3279.4556 3264.6514 3249.7466 3234.7412 3219.5342 3205.536 3191.336 3177.2368 3163.2385 3149.1394 3142.996 3159.4116 3175.424 3191.1345 3206.9458 3222.6562 3238.0645 3253.372 3268.7805 3284.0881 3299.0935 -3286.0015 -3271.0967 -3256.5947 -3241.7908 -3227.188 -3212.7869 -3198.587 -3184.4878 -3170.4895 3299.8992 3299.8992 3299.8992 3299.8992 3299.8992 3299.8992 3299.8992 3299.8992 3299.8992 3294.7632 3279.2542 3264.2485 3249.4446 3234.439 3219.2322 3205.0322 3191.1345 3177.0354 3163.037 3148.938 3143.2983 3159.8145 3175.9277 3191.7388 3207.4492 3223.1597 3238.6687 3253.8757 3269.1833 3284.6924 3299.5972 -3285.498 -3270.4924 -3256.192 -3241.1865 -3226.6846 -3212.384 -3198.0835 -3183.8835 -3169.9858 3299.8992 3299.8992 3299.8992 3299.8992 3299.8992 3299.8992 3299.8992 3299.8992 3299.8992 3294.6624 3279.1533 3264.3494 3249.4446 3234.439 3219.4336 3205.3345 3191.2354 3177.2368 3163.339 3149.1394 3143.2983 3159.7136 3175.827 3191.7388 3207.4492 3222.9583 3238.568 3253.8757 3269.1833 3284.491 3299.3958 -3285.6995 -3270.7947 -3256.192 -3241.388 -3226.886 -3212.4846 -3198.184 -3184.1858 -3170.1873 3299.8992 3299.8992 3299.8992 3299.8992 3299.8992 3299.8992 3299.8992 3299.8992 3299.8992 3294.6624 3279.2542 3264.2485 3249.4446 3234.439 3219.2322 3205.2336 3191.2354 3177.0354 3163.1377 3148.8372 3144.104 3160.5193 3176.7334 3192.5444 3208.255 3223.764 3239.3738 3254.6814 3269.989 3285.3972 3299.8992 -3284.6924 -3269.989 -3255.3862 -3240.3809 -3225.9795 -3211.5784 -3197.3784 -3183.2793 -3169.3816 3299.8992 3299.8992 3299.8992 3299.8992 3299.8992 3299.8992 3299.8992 3299.8992 
3299.8992 3299.8992 3299.7986 3283.786 -90.63721 3286.5051 3299.8992 -3282.1746 -3267.1692 -3252.1636 -3236.9568 -3222.1526 -3205.0322 285.91003 3299.8992 3299.8992 3299.8992 3299.8992 3299.8992 3299.8992 -1333.374 -3285.2966 -3269.5862 -3254.2786 -3239.0715 -3223.9653 -3209.5642 -3194.6594 -3180.1575 -3165.9575 -3151.9592 -3097.879 3299.8992 3299.8992 3299.8992 3299.8992 3299.8992 3299.8992 3299.8992 3299.8992 3299.8992 3299.8992 3299.8992 3285.1958 -138.47351 3288.8213 3299.8992 -3280.2612 -3264.8528 -3249.7466 -3234.6404 -3219.7356 -3162.03 525.5951 3299.8992 3299.8992 3299.8992 3299.8992 3299.8992 3299.8992 -1546.17 -3284.0881 -3268.7805 -3253.2715 -3238.4673 -3223.5625 -3208.5571 -3193.753 -3179.7546 -3165.5547 -3151.5564 -3067.163 3299.8992 3299.8992 3299.8992 3299.8992 3299.8992 3299.8992 3299.8992 3299.8992 3299.8992 3299.8992 3299.8992 3285.6995 -148.64502 3289.4255 3299.8992 -3279.657 -3264.2485 -3249.2432 -3234.137 -3219.2322 -3155.2825 538.5864 3299.8992 3299.8992 3299.8992 3299.8992 3299.8992 3299.8992 -1769.0369 -3283.081 -3267.7734 -3252.7678 -3237.0574 -3222.1526 -3207.852 -3192.9473 -3178.4453 -3164.2456 -3150.247 -3049.539 3299.8992 3299.8992 3299.8992 3299.8992 3299.8992 3299.8992 3299.8992 3299.8992 3299.8992 3299.8992 3299.8992 3286.203 -495.28198 3291.5405 3299.8992 -3277.6428 -3262.2344 -3247.1282 -3232.2234 -3217.3186 -3111.5752 597.5006 3299.8992 3299.8992 3299.8992 3299.8992 3299.8992 3299.8992 -1833.49 -3281.6711 -3266.2627 -3250.8545 -3236.1511 -3221.2463 -3206.0393 -3191.5374 -3177.539 -3163.2385 -3149.0386 -3034.8357 3299.8992 3299.8992 3299.8992 3299.8992 3299.8992 3299.8992 3299.8992 3299.8992 3299.8992 3299.8992 3299.8992 3287.6128 -667.9962 3293.051 -3291.0369 -3275.6287 -3260.7239 -3245.6177 -3230.612 -3215.808 -3024.5635 980.19104 3299.8992 3299.8992 3299.8992 3299.8992 3299.8992 3299.8992 -2306.5154 -3281.369 -3265.5579 -3250.1494 -3235.3455 -3220.4407 -3205.3345 -3190.8325 -3176.7334 -3162.5334 -3148.5352 -3061.4226 3299.8992 3299.8992 3299.8992 3299.8992 3299.8992 3299.8992 3299.8992 3299.8992 
3139.4714 3124.8687 3109.9639 3095.7642 3081.4636 3067.163 3053.064 3039.0654 3024.463 3010.6658 2996.869 2982.8704 2325.7507 404.04053 -1539.5233 3177.539 2998.7822 3016.0034 3032.8215 3049.539 3066.156 3082.5713 3098.3826 3114.8987 3131.012 3147.0244 3162.9363 3178.6467 3194.1558 3209.7656 3225.1738 3240.4814 -732.1472 3240.985 3226.0803 3211.377 3196.7742 3182.1716 3167.7703 3153.2683 3138.6658 3124.1638 3109.0576 3094.757 3080.658 3066.3574 3052.1575 3038.2598 3023.4558 3009.961 2995.9624 2982.0647 2327.5635 338.78174 -1611.6302 3080.7585 2998.9836 3016.0034 3032.9224 3049.539 3066.156 3082.5713 3098.3826 3114.9993 3131.012 3147.0244 3162.8357 3178.5461 3194.1558 3209.8662 3225.1738 3240.4814 -589.24255 3239.8772 3224.9724 3210.3699 3195.6665 3181.1646 3166.6626 3152.0598 3137.6587 3122.9553 3107.849 3093.75 3079.4495 3065.149 3051.0498 3037.0513 3022.4487 3008.7524 2994.8547 2980.8562 2094.0215 93.15491 -1820.0958 2984.0789 3001.3 3018.4204 3035.3394 3051.956 3068.573 3084.8877 3101.303 3117.3157 3133.3281 3149.1394 3165.0513 3180.7617 3196.3713 3211.8804 3227.3894 3242.5964 -636.77673 3242.395 3227.5908 3212.8875 3198.0835 3183.4807 3169.1802 3154.5776 3140.0757 3125.3723 3110.971 3096.3684 3081.8665 3067.566 3053.4668 3039.3677 3024.8657 3011.0686 2997.3723 2983.2732 2246.3928 331.22864 -1555.9387 3202.3132 2999.7893 3016.9097 3033.728 3050.5461 3067.163 3083.5784 3099.893 3116.0063 3132.019 3147.931 3163.6414 3179.4524 3195.0623 3210.6719 3225.9795 3241.388 -642.3157 3241.1865 3226.2817 3211.679 3196.875 3182.4736 3167.9717 3153.3691 3138.8672 3124.2644 3109.259 3095.059 3080.8594 3066.5588 3052.359 3038.562 3023.7578 3010.0615 2996.2646 2982.266 2203.894 189.9353 -1659.3658 3132.9253 3000.3936 3017.514 3034.4329 3051.0498 3067.566 3084.082 3099.994 3116.3086 3132.5225 3148.4343 3164.2456 3179.956 3195.5657 3211.1755 3226.5837 3241.9922 -543.82324 3241.1865 3226.3823 3211.679 3197.0764 3182.4736 3167.9717 3153.3691 
3299.8992 3295.0652 3278.247 3260.7239 203.93372 3262.9395 3279.657 3296.173 -3287.5122 -3271.298 -3255.0842 -3239.1724 -2619.9187 928.2257 3299.8992 3299.8992 3299.8992 3299.8992 3299.8992 3283.786 -152.47192 3286.7065 3299.8992 -3280.1604 -3263.9465 -3247.8333 -3231.9214 -3216.11 -3200.8025 -3185.3943 -3170.4895 -3125.3723 3299.8992 3299.8992 3299.8992 3299.8992 3299.8992 3299.8992 3299.8992 3299.8992 3299.8992 3294.2595 3277.542 3257.5012 -119.23828 3264.148 3280.7646 3297.2808 -3286.3037 -3270.1904 -3254.0771 -3238.0645 -2675.5095 854.8096 3299.8992 3299.8992 3299.8992 3299.8992 3299.8992 3285.5986 -271.6095 3288.7207 3299.8992 -3278.3477 -3261.9324 -3245.9197 -3230.0078 -3214.2974 -3198.9897 -3183.6821 -3168.4753 -3045.4102 3299.8992 3299.8992 3299.8992 3299.8992 3299.8992 3299.8992 3299.8992 3299.8992 3299.8992 3295.166 3278.3477 3259.2131 6.9488525 3264.2485 3280.966 3297.4822 -3286.203 -3269.8882 -3253.9763 -3237.9639 -2610.2507 874.2462 3299.8992 3299.8992 3299.8992 3299.8992 3299.8992 3285.3972 -575.54626 3289.5264 3299.8992 -3277.3406 -3261.2273 -3245.114 -3229.1016 -3213.4917 -3198.285 -3182.8765 -3167.871 -3077.0325 3299.8992 3299.8992 3299.8992 3299.8992 3299.8992 3299.8992 3299.8992 3299.8992 3299.8992 3296.0723 3279.4556 3260.9253 -2.4169922 3265.3564 3282.074 3298.59 -3284.9944 -3268.982 -3252.7678 -3236.9568 -2420.0134 1219.6747 3299.8992 3299.8992 3299.8992 3299.8992 3299.6978 3283.6853 -426.09558 3287.3108 3299.8992 -3279.657 -3263.5437 -3247.3296 -3231.5186 -3215.808 -3200.1982 -3184.9915 -3169.9858 -2969.6777 3299.8992 3299.8992 3299.8992 3299.8992 3299.8992 3299.8992 3299.8992 3299.8992 3299.8992 3293.1519 3275.7292 3255.2856 -271.00525 3263.9465 3280.664 3297.0793 -3286.5051 -3270.291 -3254.2786 -3238.2659 -2288.9922 1535.0922 3299.8992 3299.8992 3299.8992 3299.8992 3296.3745 3280.2612 -831.6467 3285.1958 3299.8992 -3281.7717 -3265.457 -3249.4446 -3233.6333 -3217.8223 -3202.2124 -3187.0056 -3171.7986 -2847.9216 3299.8992 3299.8992 3299.8992 3299.8992 3299.8992 3299.8992 3299.8992 3299.8992 
3245.7183 3230.5115 3215.3044 3200.1982 3185.2935 3170.59 3155.7861 3141.4856 3126.7822 3112.4817 3097.476 3083.4778 3063.2354 593.7744 3078.1401 3085.794 3102.411 3118.927 3135.3423 3151.355 3167.3674 3183.3801 3199.1912 3214.9016 3230.713 3246.3225 3262.033 3277.542 3292.9504 -3291.5405 -3276.132 -3261.026 -2458.383 2253.8452 3299.8992 3299.8992 3299.8992 3289.325 3274.2188 3259.0117 3243.704 3228.4973 3213.2903 3198.285 3183.3801 3168.576 3153.9734 3139.572 3125.07 3110.7695 3095.7642 3081.4636 3059.8113 424.38354 3068.6736 3085.5925 3102.2095 3118.5242 3134.738 3150.9521 3167.0654 3182.9773 3198.6877 3214.5996 3230.31 3246.0205 3261.731 3277.1392 3292.6482 -3291.9434 -3276.535 -3261.5295 -2559.091 2016.3757 3299.8992 3299.8992 3299.8992 3290.1306 3275.0244 3259.8174 3244.5098 3229.303 3214.1968 3199.0906 3184.1858 3169.3816 3154.779 3140.277 3125.8757 3111.5752 3096.469 3082.0679 3057.1929 245.224 3070.7886 3087.7075 3104.3242 3120.5383 3136.853 3153.067 3168.9788 3185.092 3200.9033 3216.7144 3232.4248 3248.0347 3263.6443 3279.1533 3294.6624 -3290.0298 -3274.7222 -3259.2131 -2290.9058 2394.3328 3299.8992 3299.8992 3299.8992 3289.8284 3274.6216 3259.5154 3244.2078 3229.1016 3213.693 3198.7883 3183.9844 3169.0796 3154.5776 3140.0757 3125.5737 3111.0718 3096.167 3081.967 3053.5674 228.10364 3070.7886 3087.6067 3104.2236 3120.639 3136.9536 3153.067 3169.1802 3185.092 3200.8025 3216.6138 3232.3242 3247.9338 3263.5437 3279.2542 3294.5618 -3290.1306 -3274.823 -3259.5154 -2476.712 2229.5745 3299.8992 3299.8992 3299.8992 3290.9363 3275.7292 3260.623 3245.2148 3230.1086 3214.9016 3199.6948 3184.8906 3170.0867 3155.484 3140.982 3126.48 3112.0789 3097.0732 3082.7727 3057.0923 177.04468 3071.7957 3088.5132 3105.13 3121.5454 3137.86 3154.074 3169.9858 3186.099 3201.8096 3217.6208 3233.432 3249.0417 3264.5508 3280.0598 3295.468 -3289.1235 -3273.715 -3258.5083 -2435.2202 2078.9153 3299.8992 3299.8992 3299.8992 3292.3462 3277.4414 3262.1338 

-257.30896 -166.67175 24.77417 172.41211 150.45776 19.638062 -94.86694 -175.83618 -252.67639 -241.90063 -218.03284 -110.87952 -155.59387 -290.5426 -380.27344 -332.135 -185.80627 174.12415 441.3025 579.4739 754.10156 827.3163 690.3534 550.26855 535.3638 507.87048 303.1311 -50.152588 -516.8335 -908.1848 -1072.4396 -1013.12256 -797.5067 -553.2898 -494.3756 -536.0687 -534.96094 -621.0663 -821.5759 -940.9149 -872.23206 -596.69495 -270.401 -29.608154 37.765503 -23.26355 -114.10217 -236.86523 -258.81958 -107.85828 132.83386 250.86365 196.38062 229.51355 362.0453 374.13025 279.76685 342.50793 348.4497 75.4303 -133.94165 -379.36707 -519.5526 -361.84387 97.18323 523.58093 769.5099 856.6223 838.6963 786.73096 724.292 462.04834 186.41052 -56.799316 -382.2876 -752.49023 -909.69543 -848.06213 -625.59814 -393.26477 -333.4442 -356.30493 -271.5088 -174.92981 -127.89917 -107.75757 -40.38391 29.507446 -32.83081 -43.50586 -41.4917 -168.08167 -369.39697 -415.31982 -431.63452 -597.1985 -604.44946 -330.32227 108.76465 271.7102 236.3617 175.13123 309.67712 433.04443 452.8839 415.62195 449.057 444.72656 356.40564 210.47974 87.81738 -141.99829 -374.02954 -420.35522 -405.75256 -312.39624 -162.64343 -17.120361 163.5498 328.61023 306.958 139.88342 -55.18799 -77.74658 157.00378 358.72192 323.2727 225.78735 66.76941 -190.94238 -398.5016 -511.8988 -467.688 -207.05566 120.547485 415.21912 467.8894 448.55347 489.74304 362.75024 220.44983 204.73938 140.28625 76.43738 -61.029053 -39.578247 53.375244 -7.5531006 -22.457886 32.730103 111.78589 106.75049 126.79138 162.2406 91.8457 -133.94165 -345.42847 -478.26233 -571.1151 -558.1238 -437.97913 -259.42383 -242.30347 -378.25928 -410.98938 -309.2743 -73.516846 218.7378 288.42773 -65.15808 -437.7777 -740.9088 -842.5232 -705.1575 -460.1349 -159.92432 135.95581 288.22632 379.36707 584.40857 966.49475 1213.028 1291.8823 1344.9554 1399.6399 1392.7917 1241.8304 954.10767 586.72485 291.14685 235.45532 6.2438965 -574.4385 -1221.1853 -1526.1292 -1470.8405 -1263.4827 -1098.4222 -884.2163 -670.2118 -567.1875 -525.7965 -499.1089 -436.3678 -411.69434 -397.79663 -271.00525 -40.686035 159.92432 253.68347 213.50098 170.59937 175.63477 171.1029 250.86365 421.56372 556.61316 657.5226 643.6249 450.97046 
754.2023 714.1205 439.48975 188.82751 86.00464 112.18872 156.19812 301.62048 511.9995 622.97974 646.84753 679.98047 892.9779 1020.77637 918.85986 736.47766 601.4282 406.45752 175.43335 -73.61755 -242.30347 -334.4513 -311.18774 -373.72742 -524.7894 -656.7169 -742.218 -728.5217 -763.6688 -729.5288 -559.13086 -398.19946 -239.38293 -113.59863 -46.92993 -3.2226562 96.37756 156.90308 30.010986 -142.50183 -234.14612 -295.27588 -335.6598 -301.01624 -205.34363 -163.65051 -245.62683 -327.60315 -528.0121 -815.53345 -1047.464 -959.14307 -673.43445 -419.9524 -116.922 183.18787 515.12146 738.99536 778.5736 872.5342 1094.1925 1226.3214 1276.3733 1244.9524 1131.5552 1099.7314 1169.9249 1190.9729 1158.5449 978.5797 790.9607 849.7742 877.4689 771.2219 602.536 411.69434 42.700195 -238.77869 -476.7517 -654.70276 -698.3093 -710.8978 -819.0582 -852.7954 -673.8373 -449.35913 -243.31055 -12.991333 173.6206 133.74023 169.59229 412.6007 740.6067 896.09985 891.06445 810.29663 718.95447 637.381 584.40857 528.0121 407.26318 240.99426 -12.689209 -262.04224 -370.00122 -436.2671 -571.9208 -721.7743 -726.20544 -648.5596 -590.45105 -442.6117 -253.9856 -61.73401 152.77405 294.2688 447.34497 583.7036 677.7649 675.65 721.27075 787.1338 854.2053 810.8002 669.60754 553.89404 408.8745 189.12964 -29.507446 -181.1737 -189.33105 -125.18005 -75.531006 -40.48462 -99.801636 -111.58447 -22.055054 106.448364 100.20447 5.0354004 -110.77881 -195.97778 -221.05408 -191.34521 -130.61829 -103.22571 -102.319336 -67.67578 -48.54126 -1.4099121 48.339844 100.20447 26.486206 -199.09973 -337.37183 -333.64563 -343.61572 -420.95947 -561.44714 -695.99304 -742.82227 -707.7759 -515.3229 -248.44666 -256.20117 -433.14514 -687.43286 -836.88354 -844.7388 -760.44617 -685.1166 -656.7169 -547.75085 -469.0979 -328.50952 -117.72766 128.80554 367.88635 625.296 794.28406 728.421 652.7893 657.11975 650.2716 581.89087 483.39844 269.2932 26.78833 -75.93384 -87.213135 -31.622314 94.46411 123.2666 120.95032 18.026733 -216.62292 -333.54492 -186.91406 -109.469604 -98.19031 -126.28784 -207.05566 -270.60242 -310.4828 -354.08936 -303.63464 -304.13818 -434.45435 -608.3771 -594.4794 -365.16724 -173.6206 21.350098 179.66309 265.86914 339.18457 320.35217 290.94543 248.64807 269.89746 
3299.8992 3299.8992 3299.8992 3299.8992 3299.8992 3284.793 3269.0825 3253.473 3237.863 3222.4548 3207.0464 3191.5374 -738.2904 3196.5728 3213.693 3230.612 3247.3296 3263.9465 3280.3618 3296.7773 -3287.0085 -3271.1975 -3254.782 -3239.3738 -3223.6633 -3208.0535 -3192.4438 -3177.2368 -3162.2314 -3147.3267 -3132.5225 -3117.92 -620.2606 3299.8992 3299.8992 3299.8992 3299.8992 3299.8992 3299.8992 3299.8992 3299.8992 3299.8992 3299.8992 3299.8992 3299.1943 3282.7788 3266.867 3251.358 3235.7483 3220.3398 3205.0322 3189.4226 -430.92957 3193.753 3210.974 3227.893 3244.6106 3261.3281 3277.8442 3294.159 -3289.627 -3273.715 -3257.4004 -3242.0928 -3226.2817 -3210.5713 -3195.0623 -3179.7546 -3164.6484 -3149.8442 -3134.9395 -3120.4375 -868.20374 3299.8992 3299.8992 3299.8992 3299.8992 3299.8992 3299.8992 3299.8992 3299.8992 3299.8992 3299.8992 3299.8992 3298.1873 3281.7717 3266.0613 3250.3508 3234.7412 3219.3328 3203.9246 3188.4155 -659.2346 3193.35 3210.5713 3227.4902 3244.3083 3260.8245 3277.3406 3293.756 -3290.0298 -3274.3193 -3257.8032 -3242.395 -3226.5837 -3210.974 -3195.3643 -3180.1575 -3165.1519 -3150.0457 -3135.3423 -3120.7397 -854.9103 3299.8992 3299.8992 3299.8992 3299.8992 3299.8992 3299.8992 3299.8992 3299.8992 3299.8992 3299.8992 3299.8992 3297.583 3281.067 3265.457 3249.646 3234.137 3218.8293 3203.2195 3187.8113 -1209.201 3194.2566 3211.2761 3228.296 3244.9126 3261.5295 3278.0457 3294.3604 -3289.4255 -3273.6145 -3257.7026 -3241.388 -3225.778 -3210.269 -3195.1628 -3179.8552 -3164.749 -3149.8442 -3135.0403 -3120.5383 -853.50037 3299.8992 3299.8992 3299.8992 3299.8992 3299.8992 3299.8992 3299.8992 3299.8992 3299.8992 3299.8992 3299.8992 3298.3887 3281.6711 3265.8599 3250.1494 3234.439 3219.1313 3203.7231 3188.0127 -1790.387 3195.767 3212.8875 3229.7058 3246.524 3263.04 3279.5562 3295.8708 -3287.8142 -3271.298 -3255.789 -3239.5752 -3223.9653 -3208.4563 -3193.35 -3178.0425 -3163.037 -3148.0315 -3133.3281 -3118.7256 -747.65625 3299.8992 3299.8992 3299.8992 3299.8992 3299.8992 3299.8992 3299.8992 3299.8992 3299.8992 3299.8992 3299.8992 3299.6978 3282.9802 3266.9678 3251.2573 3235.7483 3220.1384 3204.9316 3189.3218 -1906.8054 3197.177 3214.2974 3231.2163 3247.9338 3264.5508 3281.067 3297.3816 
3299.8992 3294.6624 3279.1533 3264.3494 3249.4446 3234.9426 3219.3328 3205.0322 3190.933 3176.9348 3162.9363 3148.6357 3143.399 3159.8145 3175.9277 3191.7388 3207.4492 3223.059 3238.568 3253.8757 3269.284 3284.3901 3299.7986 -3285.2966 -3270.3918 -3255.3862 -3240.8843 -3226.4832 -3212.1826 -3197.882 -3183.783 -3169.8853 3299.8992 3299.8992 3299.8992 3299.8992 3299.8992 3299.8992 3299.8992 3299.8992 3299.8992 3293.3533 3278.3477 3263.4429 3248.639 3234.0361 3218.527 3204.3274 3190.3289 3176.3306 3162.332 3148.1323 3144.3054 3160.7207 3176.7334 3192.6453 3208.255 3223.9653 3239.4744 3254.782 3270.0896 3284.9944 3299.8992 -3284.5916 -3269.7876 -3254.782 -3240.28 -3225.9795 -3211.4775 -3197.2778 -3183.1787 -3169.281 3299.8992 3299.8992 3299.8992 3299.8992 3299.8992 3299.8992 3299.8992 3299.8992 3299.8992 3293.3533 3278.4485 3263.4429 3248.639 3234.137 3218.527 3204.428 3190.4297 3176.2297 3162.332 3148.0315 3144.8088 3161.325 3177.4382 3193.1487 3208.96 3224.5696 3239.978 3255.2856 3270.6938 3285.498 3299.8992 -3284.1887 -3269.284 -3254.2786 -3239.7766 -3225.3752 -3210.974 -3196.7742 -3182.675 -3168.7773 3299.8992 3299.8992 3299.8992 3299.8992 3299.8992 3299.8992 3299.8992 3299.8992 3299.8992 3293.6553 3278.65 3263.8457 3248.8403 3234.439 3218.8293 3204.7302 3190.631 3176.532 3162.6343 3148.233 3145.7153 3162.2314 3178.3447 3194.0552 3209.8662 3225.476 3240.8843 3256.3933 3271.6003 3286.5051 3299.8992 -3283.2825 -3268.2769 -3253.372 -3238.971 -3224.6704 -3210.0676 -3195.868 -3181.8694 -3167.7703 3299.8992 3299.8992 3299.8992 3299.8992 3299.8992 3299.8992 3299.8992 3299.8992 3299.8992 3294.2595 3279.1533 3264.2485 3249.4446 3234.8418 3219.2322 3205.133 3191.034 3177.0354 3163.037 3148.7366 3145.7153 3162.2314 3178.244 3194.0552 3209.7656 3225.3752 3240.8843 3256.192 3271.4995 3286.4043 3299.8992 -3283.1816 -3268.3777 -3253.8757 -3239.0715 -3224.3682 -3210.0676 -3195.868 -3181.7688 -3167.7703 3299.8992 3299.8992 3299.8992 3299.8992 3299.8992 3299.8992 3299.8992 3299.8992 3299.8992 3293.6553 3278.1462 3263.3423 3248.538 3233.9355 3218.527 3204.2266 3190.1274 3176.1292 3162.1306 3147.83 3145.3125 3161.7278 3177.7405 3193.5515 3209.3628 3224.8718 3240.3809 3255.6885 
3299.8992 3299.8992 3299.8992 3288.3179 -508.37402 3293.6553 -3291.1377 -3275.4272 -3260.1196 -3245.0134 -3229.9072 -3215.3044 -2899.585 1245.5566 3299.8992 3299.8992 3299.8992 3299.8992 3299.8992 3299.8992 -2272.0732 -3282.6782 -3267.2698 -3251.8616 -3237.0574 -3222.1526 -3207.0464 -3192.4438 -3178.3447 -3164.0442 -3150.1465 -2820.4285 3299.8992 3299.8992 3299.8992 3299.8992 3299.8992 3299.8992 3299.8992 3299.8992 3299.8992 3299.8992 3299.8992 3285.2966 -989.4562 3292.044 -3291.9434 -3276.535 -3261.731 -3246.6248 -3231.6191 -3216.7144 -2886.9963 1221.0846 3299.8992 3299.8992 3299.8992 3299.8992 3299.8992 3299.8992 -2761.2122 -3282.9802 -3267.3706 -3252.1636 -3236.6545 -3221.7498 -3207.3486 -3192.4438 -3177.942 -3163.742 -3149.945 -2835.8367 3299.8992 3299.8992 3299.8992 3299.8992 3299.8992 3299.8992 3299.8992 3299.8992 3299.8992 3299.8992 3299.8992 3285.0952 -934.0668 3292.5476 -3292.3462 -3276.6357 -3261.2273 -3246.121 -3231.3171 -3216.3115 -2989.92 1014.8346 3299.8992 3299.8992 3299.8992 3299.8992 3299.8992 3299.8992 -2880.249 -3281.1675 -3265.8599 -3250.7537 -3235.3455 -3220.3398 -3206.0393 -3191.034 -3176.6326 -3162.4329 -3148.4343 -2746.0051 3299.8992 3299.8992 3299.8992 3299.8992 3299.8992 3299.8992 3299.8992 3299.8992 3299.8992 3299.8992 3299.8992 3286.203 -1005.67017 3293.1519 -3290.8354 -3275.5278 -3260.623 -3245.5168 -3230.5115 -3215.7073 -2895.1538 1104.0619 3299.8992 3299.8992 3299.8992 3299.8992 3299.8992 3299.8992 -3165.9575 -3280.8655 -3264.9536 -3249.948 -3234.5398 -3219.5342 -3205.2336 -3190.3289 -3175.9277 -3161.9292 -3147.6287 -2728.079 3299.8992 3299.8992 3299.8992 3299.8992 3299.8992 3299.8992 3299.8992 3299.8992 3299.8992 3299.8992 3299.8992 3286.4043 -997.81494 3294.058 -3290.7349 -3275.125 -3259.7168 -3244.7112 -3229.7058 -3214.801 -2779.9438 1539.5233 3299.8992 3299.8992 3299.8992 3299.8992 3299.8992 3299.8992 3299.8992 -3281.5703 -3266.2627 -3251.2573 -3235.7483 -3220.7427 -3206.4421 -3191.5374 -3177.0354 -3162.8357 -3148.8372 -2569.464 3299.8992 3299.8992 3299.8992 3299.8992 3299.8992 3299.8992 3299.8992 3299.8992 3299.8992 3299.8992 3299.8992 3284.8938 -1261.5692 3292.8496 -3291.1377 -3275.83 -3260.9253 -3245.6177 -3230.8135 -3216.211 -2611.4592 1633.786 3299.8992 3299.8992 3299.8992 3299.8992 3299.8992 3299.8992 
3138.8672 3124.3652 3109.259 3094.9585 3080.7585 3066.5588 3052.359 3038.3606 3023.7578 3009.961 2996.1638 2982.1655 2195.938 322.76917 -1593.4021 3176.2297 2999.286 3016.4062 3033.2244 3050.0427 3066.5588 3082.974 3098.886 3115.3015 3131.4148 3147.3267 3163.2385 3178.949 3194.5586 3210.0676 3225.5767 3240.7837 -599.5148 3240.4814 3225.6775 3210.8733 3196.17 3181.668 3167.3674 3152.664 3138.0615 3123.5596 3108.9568 3094.3542 3080.0537 3065.6523 3051.654 3037.555 3022.9521 3009.3567 2995.2576 2981.1584 2089.8926 191.1438 -1683.9386 3184.5886 2999.9907 3017.0105 3033.9294 3050.5461 3067.163 3083.5784 3099.994 3116.1072 3132.019 3147.931 3163.8428 3179.4524 3195.1628 3210.6719 3226.181 3241.4885 -454.29382 3240.28 3225.476 3210.8733 3196.0693 3181.5674 3167.0654 3152.4626 3138.0615 3123.3582 3108.9568 3094.3542 3079.8523 3065.6523 3051.4526 3037.454 3022.9521 3009.2559 2995.459 2981.3599 2298.9624 453.08533 -1395.2087 -3269.1833 2995.9624 3013.1836 3030.0017 3046.82 3063.4368 3079.7515 3096.2676 3112.2803 3128.3936 3144.3054 3160.1165 3175.9277 3191.5374 3207.1472 3222.5554 3237.863 -320.05005 3235.6475 3220.944 3206.2407 3191.6382 3177.0354 3162.5334 3148.1323 3133.5295 3118.927 3104.0222 3089.923 3075.6226 3061.4226 3047.3235 3033.3252 3018.6218 3005.0261 2991.1284 2977.0293 2118.695 205.44434 -1763.2965 2985.4888 2996.6675 3013.7878 3030.7068 3047.4243 3063.9404 3080.3557 3096.2676 3112.7837 3128.897 3144.7083 3160.62 3176.4312 3191.9402 3207.55 3223.059 3238.3667 -294.1681 3235.9497 3221.1455 3206.4421 3191.8396 3177.2368 3162.9363 3148.4343 3133.8318 3119.229 3104.2236 3090.0237 3075.824 3061.7249 3047.4243 3033.4258 3018.8232 3005.127 2991.3298 2975.7202 1903.6835 -130.8197 -2040.0421 2983.676 3001.0986 3018.219 3035.037 3051.654 3068.3716 3084.5854 3100.4973 3116.9128 3133.1267 3149.0386 3164.8499 3180.5603 3196.0693 3211.5784 3227.0874 3242.395 -179.46167 3239.3738 3224.469 3209.7656 3195.1628 3180.5603 3166.159 3151.657 3137.0544 3122.5525 3107.849 3093.3472 3078.8452 3064.6453 3050.3447 3036.3464 3021.945 3008.2488 2994.2505 2979.7485 2046.5881 133.3374 -1726.9409 3022.8516 3000.0916 3017.111 3034.1309 3050.8484 
3299.8992 3290.2312 3272.708 3251.5593 -526.8036 3262.6372 3279.2542 3295.8708 -3287.7136 -3271.701 -3255.6885 -3239.7766 -2481.9487 1133.8715 3299.8992 3299.8992 3299.8992 3299.8992 3297.885 3281.7717 -816.94336 3286.6057 3299.8992 -3280.5632 -3264.148 -3248.236 -3232.2234 -3216.6138 -3201.004 -3185.6963 -3170.7915 -2851.95 3299.8992 3299.8992 3299.8992 3299.8992 3299.8992 3299.8992 3299.8992 3299.8992 3299.8992 3291.4397 3273.9165 3252.063 -438.18054 3263.4429 3280.1604 3296.576 -3287.0085 -3270.8953 -3254.8828 -3238.971 -2307.4219 1318.3685 3299.8992 3299.8992 3299.8992 3299.8992 3297.0793 3281.067 -1154.6173 3286.7065 3299.8992 -3280.3618 -3264.047 -3248.0347 -3232.1228 -3216.4124 -3201.004 -3185.5957 -3170.59 -2763.5283 3299.8992 3299.8992 3299.8992 3299.8992 3299.8992 3299.8992 3299.8992 3299.8992 3299.8992 3291.1377 3274.2188 3251.8616 -489.2395 3263.3423 3280.0598 3296.475 -3287.1094 -3270.996 -3254.782 -3238.971 -2407.4248 1229.9469 3299.8992 3299.8992 3299.8992 3299.8992 3297.6836 3281.6711 -1274.1577 3287.7136 3299.8992 -3279.1533 -3263.04 -3247.0276 -3231.1157 -3215.4053 -3199.8962 -3184.6892 -3169.6838 -2840.6707 3299.8992 3299.8992 3299.8992 3299.8992 3299.8992 3299.8992 3299.8992 3299.8992 3299.8992 3292.3462 3275.4272 3251.056 -582.0923 3265.0542 3281.7717 3298.1873 -3285.498 -3269.284 -3253.1707 -3237.2588 -2114.9688 1570.4407 3299.8992 3299.8992 3299.8992 3299.8992 3296.6765 3280.4626 -1559.967 3287.21 3299.8992 -3279.657 -3263.5437 -3247.531 -3231.6191 -3215.9087 -3200.5005 -3185.1929 -3170.0867 -2619.3145 3299.8992 3299.8992 3299.8992 3299.8992 3299.8992 3299.8992 3299.8992 3299.8992 3299.8992 3290.5334 3273.6145 3250.8545 -597.702 3263.3423 3280.0598 3296.475 -3287.21 -3270.996 -3254.8828 -3238.87 -2170.761 1545.3644 3299.8992 3299.8992 3299.8992 3299.8992 3295.2666 3279.1533 -1737.5153 3286.5051 3299.8992 -3280.4626 -3264.047 -3248.0347 -3232.2234 -3216.4124 -3201.004 -3185.8977 -3170.7915 -2497.1558 3299.8992 3299.8992 3299.8992 3299.8992 3299.8992 3299.8992 3299.8992 3299.8992 3299.8992 3289.224 3271.6003 3244.4092 -674.74365 3262.3352 3279.1533 3295.468 -3288.0156 -3271.8018 -3255.789 -3239.8772 -2029.6692 1505.7861 3299.8992 3299.8992 3299.8992 3299.8992 3293.8567 3277.8442 
3246.8262 3231.6191 3216.3115 3201.2053 3186.502 3171.4966 3156.8938 3142.3918 3127.89 3113.5894 3098.4832 3084.2834 3057.5957 273.42224 3072.702 3089.6208 3106.2378 3122.653 3138.8672 3155.081 3171.0938 3187.0056 3202.8167 3218.527 3234.3384 3249.8474 3265.457 3281.067 3296.475 -3288.0156 -3272.708 -3257.6018 -2139.8438 2629.486 3299.8992 3299.8992 3299.8992 3290.2312 3275.125 3259.8174 3244.7112 3229.4036 3214.1968 3199.0906 3184.2864 3169.4824 3154.8796 3140.4785 3125.8757 3111.5752 3096.5698 3082.3699 3056.2866 280.4718 3070.4863 3087.506 3104.0222 3120.5383 3136.853 3152.8655 3168.8782 3184.8906 3200.8025 3216.513 3232.2234 3247.9338 3263.4429 3279.1533 3294.461 -3290.0298 -3274.7222 -3259.616 -2241.7603 2332.2966 3299.8992 3299.8992 3299.8992 3289.7278 3274.6216 3259.4146 3244.2078 3228.9001 3213.693 3198.6877 3183.783 3168.9788 3154.4768 3139.9749 3125.473 3111.1724 3096.167 3081.7656 3049.3376 123.36731 3071.1914 3088.1104 3104.727 3120.9412 3137.3564 3153.5706 3169.583 3185.3943 3201.5076 3217.1172 3232.8276 3248.538 3264.148 3279.657 3295.0652 -3289.4255 -3274.118 -3259.0117 -2269.757 2422.9338 3299.8992 3299.8992 3299.8992 3290.1306 3275.125 3259.8174 3244.7112 3229.303 3214.096 3198.9897 3184.2864 3169.3816 3154.8796 3140.277 3125.8757 3111.3738 3096.3684 3082.1685 3021.945 72.30835 3072.299 3089.1174 3105.7341 3122.0488 3138.3635 3154.4768 3170.59 3186.6028 3202.3132 3218.1243 3233.8347 3249.646 3265.2556 3280.7646 3296.0723 -3288.7207 -3273.3123 -3258.206 -2063.0034 2684.0698 3299.8992 3299.8992 3299.8992 3289.4255 3274.4202 3259.1125 3244.107 3228.6987 3213.391 3198.3855 3183.4807 3168.7773 3154.1748 3139.7734 3125.171 3110.7695 3095.8647 3081.4636 2959.607 -242.30347 3073.9104 3090.628 3107.3455 3123.5596 3139.7734 3155.8867 3172 3188.0127 3203.8237 3219.5342 3235.2446 3250.955 3266.464 3282.074 3297.4822 -3287.21 -3271.9023 -3256.6956 -1927.4506 2861.0137 3299.8992 3299.8992 3299.8992 3289.9292 3274.823 3259.616 3244.3083 3229.2021 3213.8945 3198.8892 3183.9844 3169.281 3154.6782 3140.1763 3125.6743 3111.1724 3096.167 3081.967 2957.3914 -149.55139 3073.709 3090.628 3107.144 3123.5596 3139.8743 3155.9875 

345.7306 312.39624 329.5166 471.41418 513.0066 520.6604 403.43628 148.3429 -121.051025 -199.80469 -208.7677 -457.21436 -633.15125 -588.03406 -515.02075 -511.49597 -414.71558 -266.5741 -124.97864 75.83313 221.85974 242.807 295.4773 347.74475 452.48108 690.4541 931.9519 965.38696 873.44055 537.68005 -1.7120361 -234.95178 -137.66785 -59.71985 -3.0212402 -53.778076 -158.4137 -388.22937 -611.3983 -641.91284 -550.5707 -529.422 -511.19385 -350.36316 -215.41443 -99.09668 42.297363 146.32874 168.88733 41.088867 -24.975586 -11.178589 -161.13281 -331.63147 -423.47717 -342.81006 -33.636475 136.45935 240.1886 414.917 372.92175 320.8557 264.66064 218.7378 364.26086 583.905 565.07263 243.41125 -21.75293 -92.04712 -136.05652 -199.09973 -443.9209 -743.6279 -830.74036 -496.7926 -217.93213 -118.13049 16.918945 206.04858 228.00293 199.09973 405.75256 381.38123 313.70544 302.52686 344.11926 451.77612 567.1875 499.00818 331.8329 45.01648 -264.66064 -511.6974 -704.3518 -900.531 -953.6041 -923.69385 -807.87964 -582.2937 -421.56372 -264.0564 -165.36255 -84.99756 -65.3595 -121.554565 -172.71423 -145.9259 -122.66235 -82.681274 -52.670288 21.24939 -3.4240723 -50.454712 19.134521 155.69458 272.21375 371.71326 403.03345 391.85486 530.8319 589.9475 588.2355 661.3495 775.8545 718.75305 566.68396 485.4126 290.13977 -81.47278 -471.81702 -833.8623 -892.27295 -667.08984 -465.271 -305.6488 -48.03772 116.11633 234.14612 296.18225 210.47974 104.333496 187.82043 227.7008 207.05566 57.403564 -31.420898 29.507446 84.59473 100.6073 149.7528 243.20984 152.06909 -120.24536 -295.98083 -231.22559 -56.69861 45.822144 12.991333 -186.2091 -240.08789 -194.16504 -41.290283 169.693 262.34436 194.87 89.42871 93.55774 30.917358 2.0141602 -51.5625 -99.49951 -247.64099 -471.21277 -689.447 -643.12134 -318.2373 -65.56091 124.67651 216.92505 202.5238 95.5719 -26.687622 -119.23828 -100.00305 -68.481445 130.31616 270.3003 205.0415 -37.765503 -171.60645 133.63953 506.8634 892.47437 1159.8541 1259.2529 1194.6991 1092.8833 1033.3649 833.963 
127.093506 26.083374 39.175415 55.993652 43.90869 -66.970825 -177.74963 -90.234375 180.26733 447.8485 637.4817 754.2023 638.08594 432.6416 328.2074 344.11926 407.5653 463.35754 392.5598 173.92273 16.71753 -23.464966 -62.64038 -87.213135 -117.22412 -258.31604 -342.91077 -397.79663 -486.31897 -484.70764 -349.5575 -257.40967 -272.818 -277.24915 -256.604 -180.36804 -116.519165 4.5318604 186.00769 457.01294 713.81836 739.3982 592.96875 423.9807 285.70862 165.56396 -29.406738 -282.58667 -419.75098 -340.19165 -232.7362 -179.15955 -9.970093 171.60645 217.32788 122.36023 20.040894 82.47986 118.33191 108.86536 123.87085 42.49878 -6.9488525 3.5247803 -40.081787 -210.98328 -348.349 -401.3214 -354.19006 -457.21436 -614.9231 -816.3391 -940.6128 -951.6907 -823.3887 -723.0835 -465.4724 -134.24377 40.585327 21.551514 -79.660034 -11.178589 112.79297 305.4474 537.1765 576.75476 537.57935 628.31726 635.3668 671.01746 600.72327 461.4441 418.6432 475.03967 555.8075 634.7626 701.4313 720.5658 674.74365 551.9806 381.28052 171.90857 28.701782 -32.730103 -33.032227 29.708862 51.260376 51.763916 40.081787 26.989746 -66.16516 -236.66382 -377.2522 -473.83118 -550.8728 -594.5801 -599.5148 -603.4424 -544.5282 -337.77466 -224.47815 -121.051025 56.295776 155.896 105.13916 3.8269043 -123.97156 -165.06042 -117.42554 -50.253296 103.829956 246.73462 202.22168 17.523193 -146.63086 -180.26733 -340.09094 -401.0193 -310.98633 -214.81018 -46.5271 160.22644 287.52136 329.91943 264.2578 148.54431 5.1361084 -93.35632 -55.08728 -65.86304 -211.38611 -500.5188 -821.5759 -977.97546 -994.9951 -883.1085 -671.521 -504.84924 -337.1704 36.35559 563.6627 933.0597 903.1494 684.1095 644.8334 721.6736 707.27234 649.2645 569.20166 518.74695 470.70923 320.15076 87.51526 20.141602 101.815796 26.989746 -191.1438 -406.1554 -645.4376 -781.9977 -683.40454 -486.41968 -276.14136 -46.5271 173.01636 298.29712 252.7771 94.3634 17.120361 173.92273 346.9391 353.68652 300.21057 359.6283 410.88867 455.3009 464.36462 407.96814 366.0736 428.00903 
-3286.4043 -3269.989 -3254.48 -3238.2659 -3222.5554 -3207.2478 -3191.9402 -3176.834 -3161.7278 -3146.9238 -3132.1196 -3117.517 -347.84546 3299.8992 3299.8992 3299.8992 3299.8992 3299.8992 3299.8992 3299.8992 3299.8992 3299.8992 3299.8992 3299.8992 3299.1943 3282.376 3266.565 3250.7537 3235.2446 3219.7356 3204.3274 3188.7175 -1961.9934 3196.9756 3213.9954 3230.9143 3247.7324 3264.2485 3280.664 3297.1802 -3286.7065 -3270.291 -3254.5806 -3238.568 -3222.7568 -3207.3486 -3192.2424 -3176.9348 -3161.9292 -3147.0244 -3132.2205 -3117.7185 -731.44226 3299.8992 3299.8992 3299.8992 3299.8992 3299.8992 3299.8992 3299.8992 3299.8992 3299.8992 3299.8992 3299.8992 3299.8992 3283.8867 3267.9749 3252.2644 3236.6545 3221.1455 3205.7373 3190.1274 -2118.7957 3198.587 3215.7073 3232.6262 3249.3438 3265.8599 3282.2754 3298.6907 -3285.0952 -3268.6797 -3252.9692 -3236.856 -3221.2463 -3205.838 -3190.631 -3175.424 -3160.4187 -3145.514 -3130.9111 -3116.2078 -576.3519 3299.8992 3299.8992 3299.8992 3299.8992 3299.8992 3299.8992 3299.8992 3299.8992 3299.8992 3299.8992 3299.8992 3299.8992 3284.6924 3268.6797 3252.9692 3237.3596 3221.8506 3206.543 3190.7317 -2491.7175 3200.1982 3217.3186 3234.2375 3250.8545 3267.3706 3283.9873 3299.8992 -3283.484 -3267.0684 -3251.056 -3235.7483 -3220.1384 -3204.428 -3188.919 -3173.6113 -3158.606 -3143.8018 -3128.9978 -3114.5964 -321.56067 3299.8992 3299.8992 3299.8992 3299.8992 3299.8992 3299.8992 3299.8992 3299.8992 3299.8992 3299.8992 3299.8992 3299.8992 3284.8938 3268.982 3253.1707 3237.6616 3222.1526 3206.845 3191.1345 -2744.696 3201.004 3218.0237 3234.9426 3251.6602 3268.1763 3284.5916 3299.8992 -3282.7788 -3266.3635 -3250.3508 -3234.9426 -3219.3328 -3203.6223 -3188.214 -3173.007 -3158.0017 -3142.996 -3128.3936 -3113.8916 -628.31726 3299.8992 3299.8992 3299.8992 3299.8992 3299.8992 3299.8992 3299.8992 3299.8992 3299.8992 3299.8992 3299.8992 3299.8992 3286.908 3271.1975 3255.487 3239.8772 3224.3682 3208.96 3193.1487 -3245.4163 3204.2266 3221.1455 3238.0645 3254.6814 3271.399 3287.8142 3299.8992 
3270.996 3286.0015 3299.8992 -3283.786 -3268.7805 -3254.3792 -3239.4744 -3224.9724 -3210.5713 -3196.4722 -3182.2722 -3168.3745 3299.8992 3299.8992 3299.8992 3299.8992 3299.8992 3299.8992 3299.8992 3299.8992 3299.8992 3292.9504 3277.542 3262.738 3247.9338 3232.9285 3217.8223 3203.8237 3189.7246 3175.6255 3161.6272 3147.2258 3145.514 3161.9292 3177.841 3193.753 3209.3628 3224.9724 3240.4814 3255.89 3271.1975 3286.7065 3299.8992 -3283.6853 -3268.7805 -3254.2786 -3239.4744 -3224.8718 -3210.4705 -3196.2708 -3182.1716 -3168.274 3299.8992 3299.8992 3299.8992 3299.8992 3299.8992 3299.8992 3299.8992 3299.8992 3299.8992 3292.9504 3277.542 3262.6372 3247.7324 3232.8276 3217.7214 3203.6223 3189.5232 3175.525 3161.4258 3147.1252 3146.6216 3162.9363 3178.949 3194.8608 3210.5713 3226.0803 3241.5894 3256.9976 3272.2046 3287.6128 3299.8992 -3282.4768 -3267.6726 -3253.1707 -3238.2659 -3223.764 -3209.4634 -3195.2637 -3181.1646 -3167.3674 3299.8992 3299.8992 3299.8992 3299.8992 3299.8992 3299.8992 3299.8992 3299.8992 3299.8992 3294.9646 3279.4556 3264.5508 3249.7466 3234.7412 3219.5342 3205.536 3191.4368 3177.3376 3163.44 3148.8372 3148.7366 3165.1519 3181.2651 3196.9756 3212.686 3228.296 3243.805 3259.1125 3274.3193 3289.7278 3299.8992 -3280.4626 -3265.5579 -3251.056 -3236.2517 -3221.7498 -3207.55 -3193.2495 -3179.251 -3165.2527 3299.8992 3299.8992 3299.8992 3299.8992 3299.8992 3299.8992 3299.8992 3299.8992 3299.8992 3295.8708 3280.4626 3265.5579 3250.5522 3235.6475 3220.642 3206.3416 3192.343 3178.244 3164.2456 3149.7437 3150.0457 3166.4612 3182.4736 3198.3855 3213.8945 3229.5044 3244.9126 3260.321 3275.6287 3291.0369 3299.8992 -3279.0527 -3264.45 -3249.8474 -3235.0432 -3220.642 -3206.3416 -3192.041 -3178.1433 -3164.1448 3299.8992 3299.8992 3299.8992 3299.8992 3299.8992 3299.8992 3299.8992 3299.8992 3299.8992 3296.173 3280.7646 3265.7593 3251.056 3235.9497 3220.944 3206.845 3192.7458 3178.6467 3164.6484 3150.0457 3150.8513 3167.166 3183.1787 3198.9897 3214.5996 3230.31 3245.7183 3261.1267 
3299.8992 -3283.786 -3267.9749 -3252.5664 -3237.7625 -3222.7568 -3207.7515 -3193.1487 -3179.1504 -3164.6484 -3150.7507 -2526.5625 3299.8992 3299.8992 3299.8992 3299.8992 3299.8992 3299.8992 3299.8992 3299.8992 3299.8992 3299.8992 3299.5972 3282.8796 -1137.3962 3291.1377 3299.8992 -3277.9448 -3262.5366 -3247.6318 -3232.4248 -3217.6208 -2714.4836 1599.7467 3299.8992 3299.8992 3299.8992 3299.8992 3299.8992 3299.8992 3299.8992 -3283.8867 -3268.6797 -3253.5735 -3238.1653 -3223.1597 -3208.7585 -3193.753 -3179.3518 -3165.1519 -3151.1536 -2306.4148 3299.8992 3299.8992 3299.8992 3299.8992 3299.8992 3299.8992 3299.8992 3299.8992 3299.8992 3299.8992 3297.9858 3279.959 -1467.1143 3290.5334 3299.8992 -3278.247 -3263.2415 -3248.0347 -3233.13 -3218.225 -2588.6992 1600.7538 3299.8992 3299.8992 3299.8992 3299.8992 3299.8992 3299.8992 3299.3958 -3284.793 -3268.982 -3253.5735 -3238.7695 -3223.8647 -3208.6577 -3194.0552 -3180.0566 -3165.756 -3151.8584 -2134.7075 3299.8992 3299.8992 3299.8992 3299.8992 3299.8992 3299.8992 3299.8992 3299.8992 3299.8992 3299.8992 3296.9788 3278.952 -1646.1731 3290.7349 3299.8992 -3278.549 -3263.1409 -3248.0347 -3233.13 -3218.1243 -2654.8645 1616.3635 3299.8992 3299.8992 3299.8992 3299.8992 3299.8992 3299.8992 3299.8992 -3284.1887 -3268.881 -3253.6743 -3238.1653 -3223.361 -3208.96 -3194.0552 -3179.5532 -3165.3533 -3151.2542 -2023.1232 3299.8992 3299.8992 3299.8992 3299.8992 3299.8992 3299.8992 3299.8992 3299.8992 3299.8992 3299.8992 3296.878 3276.7363 -1800.1556 3290.7349 3299.8992 -3278.0457 -3263.1409 -3247.7324 -3232.9285 -3218.225 -2315.68 2176.4006 3299.8992 3299.8992 3299.8992 3299.8992 3299.8992 3299.8992 3297.7844 -3286.4043 -3270.6938 -3255.2856 -3240.4814 -3225.5767 -3210.269 -3195.767 -3181.7688 -3167.4683 -3153.2683 -1965.2161 3299.8992 3299.8992 3299.8992 3299.8992 3299.8992 3299.8992 3299.8992 3299.8992 3299.8992 3299.8992 3294.8638 3274.4202 -1802.0691 3288.922 3299.8992 -3279.8584 -3264.9536 -3249.8474 -3234.6404 -3219.937 -2192.514 2243.3716 3299.8992 3299.8992 3299.8992 3299.8992 3299.8992 3299.8992 
3067.3645 3083.6792 3100.1953 3116.2078 3132.2205 3148.233 3163.9434 3179.5532 3195.2637 3210.8733 3226.2817 3241.5894 182.08008 3236.3525 3221.5483 3206.7444 3192.1416 3177.6396 3163.1377 3148.6357 3134.1338 3119.4304 3105.0293 3090.4265 3075.9246 3061.8254 3047.6257 3033.5266 3019.0247 3005.3284 2991.7327 2974.5117 1979.4159 -30.715942 -1931.3782 2982.5684 2999.9907 3017.111 3034.03 3050.647 3067.163 3083.6792 3099.994 3116.1072 3132.019 3148.0315 3163.8428 3179.4524 3195.0623 3210.6719 3226.181 3241.4885 -137.76855 3238.1653 3223.2605 3208.5571 3193.8538 3179.3518 3164.9504 3150.348 3135.846 3121.2432 3106.3384 3092.1387 3077.8381 3063.6382 3049.64 3035.44 3020.938 3007.141 2993.4448 2977.4321 1952.6276 -23.062134 -1972.2656 2984.683 3002.1057 3019.1252 3035.9436 3052.7617 3069.1772 3085.6934 3101.4038 3117.92 3133.9324 3149.945 3165.857 3181.5674 3197.0764 3212.5854 3227.9937 3243.402 -37.46338 3239.273 3224.5696 3209.8662 3195.1628 3180.5603 3166.2598 3151.5564 3137.155 3122.351 3107.3455 3093.2463 3079.0466 3064.6453 3050.647 3036.5479 3021.945 3008.3496 2994.452 2978.3386 1969.3451 -33.83789 -1979.718 2985.791 3003.1128 3020.2332 3037.0513 3053.8696 3070.285 3086.5996 3102.5115 3118.927 3135.0403 3150.9521 3166.7632 3182.5745 3198.0835 3213.5925 3229.0007 3244.3083 132.63245 3239.4744 3224.5696 3209.8662 3195.1628 3180.661 3166.3604 3151.657 3137.0544 3122.5525 3107.9497 3093.3472 3078.8452 3064.5447 3050.5461 3036.447 3021.8445 3008.1482 2994.351 2976.828 1859.372 -108.86536 -2016.4764 2986.8987 3004.1199 3021.2402 3038.1592 3054.776 3071.292 3087.7075 3104.2236 3120.1355 3136.148 3152.0598 3167.7703 3183.4807 3199.0906 3214.7002 3230.0078 3245.3154 143.4082 3240.1794 3225.3752 3210.6719 3195.9685 3181.4666 3167.0654 3152.362 3137.9607 3123.1567 3108.7554 3094.2534 3079.7515 3065.5518 3051.3518 3037.3535 3022.7507 3009.1553 2995.1567 2980.3528 2064.6147 214.10522 -1669.9402 3081.2622 2999.9907 3017.212 3034.1309 3050.7476 
-1937.0178 3285.6995 3299.8992 -3281.369 -3265.0542 -3249.0417 -3233.13 -3217.4194 -3201.8096 -3186.6028 -3171.5972 -2487.2864 3299.8992 3299.8992 3299.8992 3299.8992 3299.8992 3299.8992 3299.8992 3299.8992 3299.8992 3288.5193 3270.8953 3236.3525 -852.4933 3262.738 3279.4556 3295.9717 -3287.7136 -3271.6003 -3255.3862 -3239.5752 -2036.3159 1670.7458 3299.8992 3299.8992 3299.8992 3299.8992 3293.5547 3277.4414 -2105.0994 3285.8 3299.8992 -3281.369 -3265.0542 -3248.8403 -3233.029 -3217.4194 -3201.8096 -3186.7034 -3171.5972 -2369.5586 3299.8992 3299.8992 3299.8992 3299.8992 3299.8992 3299.8992 3299.8992 3299.8992 3299.8992 3287.8142 3270.291 3239.8772 -811.3037 3261.9324 3278.549 3295.166 -3288.5193 -3272.5066 -3256.3933 -3240.3809 -1784.0424 2030.9784 3299.8992 3299.8992 3299.8992 3299.8992 3290.1306 3273.9165 -2147.0947 3282.4768 3299.1943 -3284.5916 -3268.3777 -3252.2644 -3236.2517 -3220.642 -3205.0322 -3189.8254 -3174.6184 -2118.7957 3299.8992 3299.8992 3299.8992 3299.8992 3299.8992 3299.8992 3299.8992 3299.8992 3299.8992 3283.383 3266.565 3228.195 -918.0542 3258.307 3275.0244 3291.4397 -3292.044 -3275.9307 -3259.8174 -3243.9055 -1940.5426 1763.5986 3299.8992 3299.8992 3299.8992 3299.8992 3288.5193 3272.3052 -2491.919 3281.6711 3298.4893 -3285.1958 -3269.0825 -3252.9692 -3237.0574 -3221.2463 -3205.7373 -3190.4297 -3175.3235 -2111.444 3299.8992 3299.8992 3299.8992 3299.8992 3299.8992 3299.8992 3299.8992 3299.8992 3299.295 3282.6782 3265.6584 3147.83 -1265.6982 3259.5154 3276.233 3292.6482 -3291.0369 -3274.7222 -3258.8103 -3242.7979 -1933.0902 1679.306 3299.8992 3299.8992 3299.8992 3299.8992 3289.9292 3273.816 -2565.9392 3283.1816 3299.8992 -3283.786 -3267.4712 -3251.4587 -3235.446 -3219.8364 -3204.2266 -3189.0198 -3173.9136 -2017.1814 3299.8992 3299.8992 3299.8992 3299.8992 3299.8992 3299.8992 3299.8992 3299.8992 3299.8992 3283.786 3266.9678 3141.4856 -1183.3191 3260.321 3276.9377 3293.4539 -3290.2312 -3274.0173 -3257.904 -3241.9922 -1802.8748 1939.6362 3299.8992 3299.8992 3299.8992 3299.8992 3288.8213 3272.8088 
3172.1008 3188.0127 3203.8237 3219.635 3235.2446 3250.955 3266.464 3282.074 3297.4822 -3287.21 -3271.9023 -3256.5947 -1895.0226 2918.921 3299.8992 3299.8992 3299.8992 3289.5264 3274.3193 3259.1125 3243.9055 3228.6987 3213.4917 3198.3855 3183.5815 3168.7773 3154.2754 3139.6729 3125.07 3110.971 3095.8647 3081.4636 2968.167 -164.35547 3073.2056 3089.923 3106.6406 3122.9553 3139.27 3155.3833 3171.4966 3187.509 3203.2195 3219.0308 3234.7412 3250.4517 3265.9607 3281.4697 3296.878 -3287.6128 -3272.2046 -3257.199 -1943.161 2770.175 3299.8992 3299.8992 3299.8992 3289.7278 3274.6216 3259.314 3244.2078 3228.7993 3213.693 3198.6877 3183.783 3169.0796 3154.3762 3139.8743 3125.3723 3111.0718 3095.9656 3081.5642 2829.0894 -531.6376 3076.2268 3093.045 3109.561 3126.0771 3142.2913 3158.4045 3174.417 3190.3289 3206.1401 3221.9512 3237.4602 3253.1707 3268.881 3284.3901 3299.7986 -3284.793 -3269.4854 -3254.3792 -1770.7489 3110.7695 3299.8992 3299.8992 3299.8992 3290.7349 3275.6287 3260.4216 3245.114 3229.8064 3214.7002 3199.4934 3184.6892 3169.9858 3155.2825 3140.7805 3126.3794 3111.978 3096.9727 3082.5713 2911.569 -266.4734 3075.119 3092.0378 3108.6548 3125.07 3141.1833 3157.3975 3173.41 3189.4226 3205.2336 3220.944 3236.7554 3252.2644 3267.874 3283.484 3298.892 -3285.6995 -3270.3918 -3255.2856 -1971.2585 2785.785 3299.8992 3299.8992 3299.8992 3291.641 3276.4343 3261.2273 3245.9197 3230.713 3215.5059 3200.299 3185.5957 3170.8923 3156.189 3141.687 3127.185 3112.5823 3097.577 3083.377 2889.5142 -230.41992 3075.9246 3092.743 3109.3596 3125.7751 3141.989 3158.1023 3174.0142 3190.0269 3205.838 3221.5483 3237.3596 3253.07 3268.7805 3283.9873 3299.3958 -3285.2966 -3269.8882 -3254.6814 -1930.1697 2695.1477 3299.8992 3299.8992 3299.8992 3292.3462 3277.24 3261.9324 3246.7253 3231.5186 3216.211 3201.2053 3186.3005 3171.5972 3156.8938 3142.3918 3127.89 3113.388 3098.2817 3084.082 2813.681 -462.55188 3078.241 3095.059 3111.5752 3127.9907 3144.2046 3160.3179 

346.9391 -415.82336 -1009.4971 -1347.3724 -1583.7341 -1465.1001 -1079.0863 -861.2549 -798.01025 -596.79565 -409.07593 -303.1311 -254.69055 -224.07532 -57.10144 74.020386 21.148682 44.311523 113.09509 153.07617 153.07617 153.07617 153.07617 153.07617 153.07617 153.07617 153.07617 153.07617 153.07617 153.07617 153.07617 153.07617 153.07617 153.07617 153.07617 153.07617 153.07617 153.07617 153.07617 153.07617 -397.4945 -436.3678 -431.73523 -419.65027 -382.69043 -338.68103 -331.22864 -259.021 -18.73169 324.68262 478.0609 392.3584 223.47107 104.434204 151.86768 289.83765 276.8463 204.03442 89.63013 12.789917 -77.948 -369.29626 -597.1985 -548.75793 -338.78174 -175.73547 -49.95117 -62.942505 -292.55676 -409.68018 -406.75964 -377.4536 -336.36475 -239.98718 -78.75366 163.5498 400.0122 583.5022 775.7538 859.2407 859.2407 859.2407 859.2407 859.2407 859.2407 859.2407 859.2407 859.2407 859.2407 859.2407 859.2407 859.2407 859.2407 859.2407 859.2407 859.2407 859.2407 859.2407 859.2407 859.2407 605.55725 746.24634 782.0984 672.12524 520.05615 385.81238 354.29077 423.47717 417.6361 236.96594 -71.60339 -456.4087 -898.114 -1281.1066 -1298.6298 -986.1328 -555.40466 -195.57495 -35.44922 -74.020386 -165.26184 -186.1084 -141.69617 -53.979492 28.399658 90.43579 117.42554 101.412964 21.047974 -47.735596 -28.399658 -22.659302 40.585327 160.02502 192.95654 125.88501 -35.85205 -148.64502 -181.27441 -137.26501 -169.99512 -357.312 -507.36694 -290.5426 9.768677 246.33179 474.33472 508.57544 339.5874 58.511353 -232.43408 -372.2168 -292.65747 -148.74573 1.6113281 258.31604 462.9547 567.4896 520.8618 248.54736 248.54736 248.54736 248.54736 248.54736 248.54736 248.54736 248.54736 248.54736 248.54736 248.54736 248.54736 248.54736 248.54736 248.54736 248.54736 248.54736 248.54736 248.54736 248.54736 248.54736 315.5182 409.37805 529.1199 621.97266 585.51636 320.25146 209.47266 132.83386 -5.7403564 -44.714355 -53.778076 -190.84167 -581.0852 -962.265 -1040.1123 -811.70654 -499.00818 -198.99902 48.641968 137.76855 
460.53772 439.38904 340.7959 204.9408 145.72449 165.16113 238.8794 278.25623 306.8573 291.34827 178.05176 95.47119 48.843384 29.30603 1.6113281 2.6184082 25.881958 17.72461 -52.770996 -116.82129 -38.87329 -38.974 -125.68359 -264.66064 -497.29614 -672.02454 -810.0952 -916.04004 -926.6144 -993.4845 -1085.0281 -1057.5348 -930.23987 -706.06384 -409.47876 133.74023 700.02136 792.572 641.6107 673.8373 674.74365 612.1033 564.6698 534.3567 548.053 513.81226 499.81384 558.6273 618.9514 572.1222 375.8423 242.90771 126.589966 83.688354 69.08569 68.58215 119.23828 205.0415 220.44983 207.05566 245.3247 248.04382 124.37439 -36.758423 -170.49866 -290.13977 -501.828 -630.53284 -718.4509 -793.3777 -837.6892 -789.34937 -722.47925 -601.83105 -475.5432 -396.1853 -340.09094 -410.38513 -551.37634 -478.56445 -460.2356 -651.6815 -856.2195 -1156.8329 -1436.5997 -1531.0638 -1124.5056 -635.66895 -102.62146 281.37817 393.96973 410.78796 531.13403 599.9176 731.24084 848.7671 845.1416 904.66003 1038.501 1081.2012 1075.3601 1030.6458 912.21313 792.572 708.9844 620.76416 488.031 401.0193 367.48352 259.72595 119.23828 46.829224 77.142334 165.76538 168.5852 167.37671 121.45386 -67.977905 -228.30505 -281.27747 -307.36084 -418.9453 -511.6974 -679.2755 -780.28564 -772.5311 -747.052 -738.1897 -559.03015 -311.38916 -57.403564 232.7362 352.0752 391.0492 462.24976 570.10803 600.32043 568.2953 353.2837 81.47278 36.557007 91.04004 135.35156 154.18396 164.05334 160.83069 106.04553 83.88977 85.60181 96.37756 107.25403 67.474365 78.85437 125.28076 140.58838 48.54126 -28.601074 -62.13684 -43.00232 41.39099 15.911865 -24.874878 -13.595581 16.21399 10.775757 -2.1148682 31.018066 71.40198 121.75598 215.41443 256.90613 238.37585 96.37756 -54.18091 -214.50806 -412.29858 -480.07507 -485.81543 -564.6698 -811.70654 -1106.9824 -1399.237 -1611.3281 -1744.3634 -1723.3154 -1655.1361 -1534.1858 -1190.5701 -947.76306 -882.10144 -857.9315 -726.8097 -285.91003 343.11218 951.0864 1408.4015 1660.9772 1651.4099 1542.8467 1387.0514 
-3279.657 -3263.8457 -3247.7324 -3231.9214 -3216.6138 -3200.9033 -3185.4949 -3170.288 -3155.2825 -3140.4785 -3125.7751 -3111.3738 83.08411 3299.8992 3299.8992 3299.8992 3299.8992 3299.8992 3299.8992 3299.8992 3299.8992 3299.8992 3299.8992 3299.8992 3299.8992 3286.3037 3270.6938 3254.8828 3239.3738 3223.8647 3208.5571 3192.6453 3187.207 3204.6294 3221.7498 3238.6687 3255.3862 3272.0032 3288.3179 3299.8992 -3279.1533 -3263.3423 -3247.0276 -3231.4177 -3216.11 -3200.5005 -3184.9915 -3169.7844 -3154.8796 -3139.9749 -3125.473 -3110.7695 -675.75073 3299.8992 3299.8992 3299.8992 3299.8992 3299.8992 3299.8992 3299.8992 3299.8992 3299.8992 3299.8992 3299.8992 3299.8992 3290.0298 3274.0173 3258.307 3242.697 3227.188 3211.7798 3195.767 3190.7317 3208.3557 3225.3752 3242.2942 3258.9111 3275.5278 3291.8425 -3291.8425 -3275.6287 -3259.314 -3243.3013 -3228.0945 -3212.384 -3196.7742 -3181.366 -3166.2598 -3151.4556 -3136.4502 -3121.8474 -3107.4463 248.54736 3299.8992 3299.8992 3299.8992 3299.8992 3299.8992 3299.8992 3299.8992 3299.8992 3299.8992 3299.8992 3299.8992 3299.8992 3289.627 3273.5137 3257.904 3242.1936 3226.5837 3211.2761 3195.3643 3191.4368 3209.0605 3226.181 3242.8984 3259.7168 3276.233 3292.6482 -3291.0369 -3274.9236 -3258.5083 -3243.0999 -3226.886 -3211.2761 -3196.0693 -3180.9631 -3165.9575 -3150.9521 -3136.0474 -3121.5454 -3107.144 -182.98645 3299.8992 3299.8992 3299.8992 3299.8992 3299.8992 3299.8992 3299.8992 3299.8992 3299.8992 3299.8992 3299.8992 3299.8992 3291.8425 3275.9307 3260.1196 3244.5098 3229.0007 3213.693 3197.5798 3193.9543 3211.377 3228.4973 3245.3154 3262.033 3278.549 3294.9646 -3288.7207 -3272.6074 -3256.192 -3240.28 -3224.9724 -3209.3628 -3193.8538 -3178.4453 -3163.2385 -3148.4343 -3133.6304 -3118.927 -3104.6265 -720.8679 3299.8992 3299.8992 3299.8992 3299.8992 3299.8992 3299.8992 3299.8992 3299.8992 3299.8992 3299.8992 3299.8992 3299.8992 3296.475 3280.5632 3264.7522 3249.2432 3233.6333 3218.1243 3202.1118 3198.7883 3216.211 3233.3313 3250.1494 3266.7664 3283.2825 3299.6978 -3283.9873 
3276.3335 3291.742 3299.8992 -3278.4485 -3263.6443 -3249.2432 -3234.3384 -3219.937 -3205.536 -3191.4368 -3177.4382 -3163.44 3299.8992 3299.8992 3299.8992 3299.8992 3299.8992 3299.8992 3299.8992 3299.8992 3299.8992 3296.173 3280.664 3265.7593 3250.955 3235.9497 3220.7427 3206.543 3192.5444 3178.4453 3164.447 3149.7437 3152.9663 3169.281 3185.2935 3201.1047 3216.7144 3232.3242 3247.7324 3263.1409 3278.4485 3293.756 3299.8992 -3276.535 -3261.6301 -3246.7253 -3232.4248 -3218.0237 -3203.6223 -3189.624 -3175.525 -3161.7278 3299.8992 3299.8992 3299.8992 3299.8992 3299.8992 3299.8992 3299.8992 3299.8992 3299.8992 3298.4893 3283.5845 3268.579 3253.6743 3239.0715 3223.5625 3209.3628 3195.3643 3181.2651 3167.166 3152.362 3155.2825 3171.5972 3187.7104 3203.5217 3219.2322 3234.7412 3250.2502 3265.5579 3280.7646 3295.6694 -3289.0227 -3274.118 -3259.314 -3244.4092 -3230.1086 -3215.7073 -3201.4067 -3187.207 -3173.2085 -3159.3108 3299.8992 3299.8992 3299.8992 3299.8992 3299.8992 3299.8992 3299.8992 3299.8992 3299.8992 3299.8992 3284.793 3269.8882 3254.9834 3240.3809 3224.9724 3210.6719 3196.4722 3182.4736 3168.4753 3153.5706 3156.9946 3173.41 3189.3218 3205.2336 3220.8435 3236.3525 3251.8616 3267.1692 3282.376 3297.3816 -3287.4114 -3272.5066 -3257.7026 -3242.7979 -3228.3965 -3214.096 -3199.8962 -3185.797 -3171.698 -3157.901 3299.8992 3299.8992 3299.8992 3299.8992 3299.8992 3299.8992 3299.8992 3299.8992 3299.8992 3299.8992 3285.5986 3270.6938 3255.789 3241.287 3225.6775 3211.377 3197.3784 3183.2793 3169.0796 3154.4768 3157.901 3174.2156 3190.2283 3206.0393 3221.7498 3237.2588 3252.7678 3268.1763 3283.2825 3298.1873 -3286.5051 -3271.6003 -3256.7961 -3241.8914 -3227.6917 -3213.2903 -3198.9897 -3184.8906 -3170.8923 -3156.9946 3299.8992 3299.8992 3299.8992 3299.8992 3299.8992 3299.8992 3299.8992 3299.8992 3299.8992 3299.8992 3286.203 3271.298 3256.3933 3241.8914 3226.3823 3212.0818 3197.9827 3183.783 3169.7844 3154.8796 3159.1094 3175.424 3191.4368 3207.2478 3222.8577 3238.3667 3253.8757 3269.284 
3295.2666 -3288.922 -3273.2117 -3258.1055 -3242.697 -3227.5908 -3213.2903 -3198.184 -3183.6821 -3169.4824 -3155.3833 -1737.1124 3299.8992 3299.8992 3299.8992 3299.8992 3299.8992 3299.8992 3299.8992 3299.8992 3299.8992 3299.8992 3291.9434 3270.8953 -1884.549 3286.7065 3299.8992 -3282.376 -3267.1692 -3251.8616 -3236.9568 -3222.052 -1854.7394 2769.873 3299.8992 3299.8992 3299.8992 3299.8992 3299.8992 3295.3674 3291.4397 -3292.749 -3277.4414 -3261.9324 -3247.229 -3232.022 -3216.9158 -3202.2124 -3188.0127 -3173.8127 -3159.7136 -1553.5217 3299.8992 3299.8992 3299.8992 3299.8992 3299.8992 3299.8992 3299.8992 3299.8992 3299.8992 3299.8992 3287.6128 3263.6443 -2157.0647 3283.081 3299.0935 -3285.498 -3270.6938 -3255.487 -3240.28 -3225.476 -1909.021 2709.7502 3299.8992 3299.8992 3299.8992 3299.8992 3299.8992 3292.1448 3288.4185 3299.8992 -3280.0598 -3264.9536 -3249.4446 -3234.3384 -3219.937 -3204.9316 -3190.2283 -3175.9277 -3161.8286 -1314.4409 3299.8992 3299.8992 3299.8992 3299.8992 3299.8992 3299.8992 3299.8992 3299.8992 3299.8992 3299.8992 3284.3901 3257.199 -2240.149 3280.664 3295.9717 -3288.3179 -3273.0103 -3257.8032 -3242.7979 -3227.7922 -1871.3562 2614.38 3299.8992 3299.8992 3299.8992 3299.8992 3299.8992 3290.2312 3286.3037 3299.8992 -3282.376 -3266.7664 -3252.063 -3236.9568 -3221.7498 -3207.0464 -3192.8467 -3178.4453 -3164.2456 -1249.585 3299.8992 3299.8992 3299.8992 3299.8992 3299.8992 3299.8992 3299.8992 3299.8992 3299.8992 3297.7844 3282.1746 3258.5083 -2137.5273 3277.8442 3293.8567 -3290.8354 -3275.9307 -3260.8245 -3245.7183 -3230.8135 -1868.6371 2688.2996 3299.8992 3299.8992 3299.8992 3299.8992 3299.8992 3287.21 3284.491 3299.8992 -3283.9873 -3268.982 -3253.372 -3238.3667 -3223.8647 -3208.8591 -3194.1558 -3179.7546 -3165.756 -884.4177 3299.8992 3299.8992 3299.8992 3299.8992 3299.8992 3299.8992 3299.8992 3299.8992 3299.8992 3295.6694 3279.5562 3237.561 -2513.0676 3276.9377 3292.1448 -3292.1448 -3276.8372 -3261.5295 -3246.8262 -3231.72 -1860.6812 2650.0305 3299.8992 3299.8992 3299.8992 3299.8992 3299.8992 3286.1023 
3067.3645 3083.7798 3099.6917 3116.1072 3132.321 3148.233 3164.0442 3179.8552 3195.3643 3210.8733 3226.3823 3241.69 283.49304 3235.8489 3221.045 3206.3416 3191.6382 3177.1362 3162.8357 3148.3337 3133.731 3119.0276 3104.0222 3089.8223 3075.7231 3061.4226 3047.4243 3033.4258 3018.6218 3005.127 2991.3298 2973.5046 1819.693 -154.18396 -1981.1279 2983.676 3000.9978 3018.1182 3034.9365 3051.5532 3068.1702 3084.6863 3100.4973 3116.9128 3133.0261 3148.938 3164.749 3180.5603 3196.17 3211.679 3227.0874 3242.395 109.26819 3237.6616 3222.7568 3208.0535 3193.451 3178.8481 3164.447 3149.945 3135.3423 3120.639 3105.7341 3091.4336 3077.234 3062.9333 3048.8342 3034.9365 3020.3337 3006.5369 2992.7397 2974.6123 1698.2391 -338.98315 -2296.1426 2988.7114 3006.0332 3022.9521 3039.871 3056.488 3073.1047 3089.4194 3105.2307 3121.5454 3137.7593 3153.6711 3169.4824 3185.1929 3200.702 3216.211 3231.4177 3246.8262 404.14124 3240.28 3225.3752 3210.6719 3195.9685 3181.366 3166.9646 3152.362 3137.86 3123.2573 3108.554 3093.9514 3079.4495 3065.3503 3051.1504 3037.152 3022.5493 3008.9539 2994.9553 2976.526 1654.2297 -305.6488 -2132.7942 2990.3228 3007.544 3024.5635 3041.3818 3058.0994 3074.6155 3090.9302 3107.3455 3123.2573 3139.27 3155.182 3170.8923 3186.6028 3202.2124 3217.8223 3233.13 3248.3367 407.3639 3241.388 3226.4832 3211.8804 3197.0764 3182.5745 3168.173 3153.4697 3139.0686 3124.3652 3109.8633 3095.3613 3080.7585 3066.5588 3052.4597 3038.3606 3023.7578 3010.0615 2996.1638 2978.3386 1757.3547 -223.57178 -2130.5786 2990.4236 3007.846 3024.8657 3041.7847 3058.4014 3074.9175 3091.2322 3107.5469 3123.5596 3139.572 3155.3833 3171.2952 3186.9048 3202.6152 3218.0237 3233.432 3250.7537 695.1874 3240.1794 3225.1738 3210.6719 3195.9685 3181.366 3166.9646 3152.362 3137.7593 3123.1567 3108.252 3093.9514 3079.7515 3065.451 3051.3518 3037.454 3022.6501 3008.9539 2995.1567 2976.9287 1607.8033 -373.72742 -2319.5068 2992.035 3009.3567 3026.1748 3043.0938 3059.7107 
-2883.2703 3282.9802 3299.8992 -3283.8867 -3267.7734 -3251.6602 -3235.7483 -3220.1384 -3204.5288 -3189.1204 -3174.0142 -2079.5195 3299.8992 3299.8992 3299.8992 3299.8992 3299.8992 3299.8992 3299.8992 3299.8992 3299.8992 3283.5845 3266.2627 3102.1086 -1311.319 3261.026 3277.7434 3294.2595 -3289.4255 -3273.413 -3257.2998 -3241.1865 -1345.1569 2405.0078 3299.8992 3299.8992 3299.8992 3299.8992 3285.8 3269.7876 -3103.72 3280.664 3296.878 -3286.3037 -3270.1904 -3253.8757 -3237.9639 -3222.4548 -3206.7444 -3191.4368 -3176.4312 -1715.9637 3299.8992 3299.8992 3299.8992 3299.8992 3299.8992 3299.8992 3299.8992 3299.8992 3296.576 3280.1604 3262.6372 3081.1614 -1462.9852 3258.0046 3274.7222 3291.2383 3299.8992 -3276.3335 -3260.2202 -3244.107 -1350.3937 2388.1897 3299.8992 3299.8992 3299.8992 3298.892 3283.081 3266.9678 -3123.2573 3277.8442 3294.159 -3289.224 -3272.8088 -3256.7961 -3240.7837 -3224.9724 -3209.3628 -3194.0552 -3178.8481 -1583.9355 3299.8992 3299.8992 3299.8992 3299.8992 3299.8992 3299.8992 3299.8992 3299.8992 3293.756 3277.1392 3259.7168 3082.974 -1334.2804 3254.782 3271.399 3287.7136 3299.8992 -3279.657 -3263.5437 -3247.6318 -1338.3087 2334.3108 3299.8992 3299.8992 3299.8992 3295.8708 3279.8584 3263.745 3259.1125 3275.83 3292.6482 -3291.2383 -3274.9236 -3258.8103 -3242.7979 -3226.9866 -3211.377 -3196.0693 -3180.7617 -1382.5195 3299.8992 3299.8992 3299.8992 3299.8992 3299.8992 3299.8992 3299.8992 3299.8992 3290.9363 3274.3193 3257.5012 3066.7603 -1374.06 3252.2644 3268.982 3285.498 3299.8992 -3281.8726 -3265.8599 -3249.948 -1422.702 2249.414 3299.8992 3299.8992 3299.8992 3294.3604 3278.3477 3262.2344 3257.5012 3274.2188 3291.0369 3299.8992 -3276.535 -3260.321 -3244.4092 -3228.598 -3213.0889 -3197.4792 -3182.2722 -569.9066 3299.8992 3299.8992 3299.8992 3299.8992 3299.8992 3299.8992 3299.8992 3299.8992 3287.21 3270.7947 3254.0771 3005.9326 -1045.1477 3248.538 3265.155 3281.6711 3297.9858 -3285.498 -3269.4854 -3133.6304 -847.05505 2494.235 3299.8992 3299.8992 3299.8992 3286.6057 3270.6938 3254.5806 
3176.3306 3192.4438 3208.1543 3223.8647 3239.7766 3255.2856 3270.8953 3286.5051 3299.8992 -3282.8796 -3267.572 -3252.4658 -1588.1653 3178.244 3299.8992 3299.8992 3299.8992 3291.641 3276.6357 3261.4287 3246.121 3230.9143 3215.7073 3200.5005 3185.5957 3170.993 3156.2896 3141.7876 3127.2856 3112.8845 3097.7783 3083.5784 2707.6355 -616.73584 3078.8452 3095.5627 3112.1794 3128.4941 3144.8088 3160.922 3176.9348 3192.9473 3208.6577 3224.469 3240.1794 3255.89 3271.298 3286.908 3299.8992 -3282.2754 -3267.0684 -3251.8616 -1595.7184 3251.4587 3299.8992 3299.8992 3299.8992 3292.2454 3277.24 3261.8315 3246.6248 3231.4177 3216.11 3201.004 3186.099 3171.3958 3156.6924 3142.1904 3127.6885 3113.2874 3098.1812 3083.7798 2630.3923 -787.0331 3080.7585 3097.476 3113.8916 3130.4077 3146.521 3162.6343 3178.6467 3194.6594 3210.4705 3226.181 3241.8914 3257.5012 3273.1108 3288.5193 3299.8992 -3280.5632 -3265.3564 -3250.3508 -1704.2816 3013.9893 3299.8992 3299.8992 3299.8992 3294.8638 3279.8584 3264.6514 3249.2432 3234.0361 3218.7285 3203.6223 3188.7175 3173.9136 3159.3108 3144.8088 3130.2063 3115.805 3100.6987 3086.2976 2726.4678 -668.60046 3082.0679 3098.7854 3115.3015 3131.6162 3147.931 3164.0442 3180.0566 3195.9685 3211.8804 3227.5908 3243.2007 3259.0117 3274.4202 3290.0298 -3294.6624 -3279.2542 -3263.9465 -3248.941 -1703.2745 3108.9568 3299.8992 3299.8992 3299.8992 3295.9717 3280.8655 3265.457 3250.2502 3234.9426 3219.635 3204.428 3189.624 3174.8198 3160.2173 3145.6145 3131.2134 3116.7114 3101.7058 3087.1033 2688.7024 -789.14795 3083.7798 3100.4973 3117.0134 3133.429 3149.6428 3165.756 3181.7688 3197.5798 3213.4917 3229.2021 3245.0134 3260.623 3276.132 3291.5405 -3293.051 -3277.7434 -3262.4358 -3247.229 -1527.2369 3153.5706 3299.8992 3299.8992 3299.8992 3296.878 3281.5703 3266.464 3251.056 3235.8489 3220.4407 3205.3345 3190.4297 3175.6255 3161.023 3146.521 3132.019 3117.3157 3102.411 3087.909 2595.2454 -832.3517 3085.089 3101.8066 3118.4233 3134.738 3150.8513 3167.0654 

187.51831 212.79602 196.07849 296.18225 401.62354 399.00513 242.10205 17.72461 -88.52234 -107.35474 -161.53564 -208.86841 -171.40503 -124.77722 -62.942505 -50.354004 30.111694 158.61511 227.80151 315.7196 315.7196 315.7196 315.7196 315.7196 315.7196 315.7196 315.7196 315.7196 315.7196 315.7196 315.7196 315.7196 315.7196 315.7196 315.7196 315.7196 315.7196 315.7196 315.7196 315.7196 315.7196 315.7196 315.7196 315.7196 315.7196 315.7196 315.7196 315.7196 315.7196 315.7196 315.7196 315.7196 315.7196 315.7196 315.7196 315.7196 315.7196 315.7196 315.7196 315.7196 315.7196 315.7196 315.7196 315.7196 315.7196 315.7196 315.7196 315.7196 315.7196 315.7196 315.7196 315.7196 315.7196 315.7196 315.7196 315.7196 315.7196 315.7196 315.7196 315.7196 127.093506 23.364258 -76.33667 -90.63721 -84.49402 -64.151 8.157349 73.61755 55.892944 45.52002 23.867798 -43.90869 -57.403564 -59.71985 -81.674194 -106.54907 -130.92041 -237.7716 -335.8612 -316.8274 -280.67322 -278.35693 -116.11633 189.12964 338.78174 273.12012 325.7904 432.23877 349.85962 181.77795 -125.079346 -219.34204 -180.77087 -65.963745 155.49316 275.93994 285.20508 212.09106 21.551514 -133.2367 -133.2367 -133.2367 -133.2367 -133.2367 -133.2367 -133.2367 -133.2367 -133.2367 -133.2367 -133.2367 -133.2367 -133.2367 -133.2367 -133.2367 -133.2367 -133.2367 -133.2367 -133.2367 -133.2367 -133.2367 -1311.319 -907.6813 -434.75647 -53.878784 104.53491 100.00305 80.667114 142.60254 394.57397 730.5359 952.3956 890.2588 647.7539 303.83606 -63.74817 -201.3153 -135.25085 113.39722 54.68445 -195.27283 -192.85583 0.20141602 307.26013 495.98694 291.04614 -90.63721 -395.78247 -599.8169 -631.74133 -453.38745 -297.69287 -140.48767 55.288696 184.09424 291.54968 343.4143 251.4679 50.756836 3.9276123 49.246216 -37.36267 -197.99194 -348.04688 -376.0437 -380.77698 -449.66125 -450.1648 -444.52515 -509.98535 -476.7517 -425.49133 -331.43005 -248.04382 -92.248535 -18.429565 -159.7229 -300.10986 -266.17126 -106.75049 168.68591 168.68591 168.68591 168.68591 168.68591 168.68591 168.68591 168.68591 168.68591 168.68591 168.68591 168.68591 168.68591 168.68591 168.68591 168.68591 168.68591 168.68591 168.68591 168.68591 168.68591 
1257.5409 1159.9548 1142.5323 1029.9408 859.34143 787.0331 773.4375 746.6492 709.79004 608.7799 482.9956 383.4961 303.2318 271.20667 226.08948 155.19104 135.35156 122.36023 98.794556 57.10144 73.31543 83.28552 145.22095 203.93372 208.46558 183.6914 158.81653 165.46326 148.84644 79.86145 49.346924 -87.31384 -151.66626 -159.82361 -166.36963 -172.41211 -147.94006 -156.70166 -96.57898 52.166748 135.55298 213.90381 287.21924 205.64575 2.9205322 -119.540405 -145.9259 -212.5946 -262.8479 -157.80945 -151.36414 -283.79517 -287.01782 -90.43579 -2.7191162 -51.965332 -273.72437 -373.12317 -426.4984 -406.55823 -279.0619 -244.82117 -180.87158 -118.029785 -8.157349 140.08484 111.987305 104.333496 116.31775 58.813477 17.019653 -39.175415 -32.226562 9.466553 70.29419 78.35083 55.288696 52.468872 137.46643 329.11377 516.6321 613.8153 671.6217 641.81213 572.92786 555.8075 587.027 657.32117 740.8081 767.395 729.83093 650.67444 309.17358 -10.372925 -210.0769 -472.8241 -761.45325 -952.59705 -1194.1956 -1588.7695 -1850.5096 -1787.5671 -1705.6915 -1673.6664 -1490.982 -1206.4819 -1025.4089 -946.45386 -879.88586 -858.7372 -744.03076 -600.42114 -486.5204 -366.37573 -433.8501 -642.7185 -700.1221 -608.3771 -267.6819 297.59216 870.0165 1259.8572 1366.9098 1137.497 863.6719 766.38794 814.12354 760.04333 700.92773 719.2566 725.3998 700.5249 603.7445 542.61475 496.5912 406.65894 335.55908 441.20178 417.93823 214.40735 -58.007812 -304.03748 -541.50696 -625.1953 -563.96484 -549.5636 -590.0482 -743.93005 -957.9346 -1139.0076 -1188.858 -1181.607 -972.4365 -484.1034 84.191895 269.79675 200.20752 40.98816 112.18872 284.60083 218.23425 -62.539673 -218.23425 -239.58435 -147.73865 63.446045 260.53162 543.3197 761.9568 862.3627 794.6869 724.1913 715.12756 723.68774 709.4879 690.5548 675.4486 697.30225 647.8546 513.51013 346.63696 198.39478 175.03052 137.26501 108.462524 164.05334 127.99988 167.07458 297.29004 351.16882 368.3899 371.0083 416.72974 375.54016 186.71265 -58.20923 -327.90527 -468.19153 -544.4275 -714.3219 -869.61365 -722.37854 -694.4824 -905.5664 -1181.607 -1349.6887 -1242.8375 -881.5979 -542.9169 -296.38367 -109.16748 -139.37988 -306.35376 -461.34338 -617.1387 -678.067 -517.9413 -232.23267 -115.81421 -209.47266 
-3267.874 -3252.2644 -3236.4531 -3220.3398 -3204.8308 -3189.624 -3174.5178 -3159.4116 -3144.6074 -3129.8035 -3115.402 -3101.001 244.11621 3299.8992 3299.8992 3299.8992 3299.8992 3299.8992 3299.8992 3299.8992 3299.8992 3299.8992 3299.8992 3299.8992 3299.8992 3296.0723 3280.0598 3264.3494 3248.7395 3233.029 3217.7214 3201.6082 3197.882 3215.2039 3232.3242 3249.0417 3265.9607 3282.376 3298.7915 -3285.0952 -3268.7805 -3252.4658 -3237.0574 -3221.045 -3205.435 -3190.2283 -3175.122 -3160.1165 -3145.2117 -3130.4077 -3115.9058 -3101.5044 21.24939 3299.8992 3299.8992 3299.8992 3299.8992 3299.8992 3299.8992 3299.8992 3299.8992 3299.8992 3299.8992 3299.8992 3299.8992 3296.475 3280.3618 3264.6514 3249.0417 3233.432 3217.9229 3201.9104 3199.0906 3216.6138 3233.5327 3250.4517 3267.1692 3283.786 3299.8992 -3283.5845 -3267.572 -3251.2573 -3235.7483 -3219.7356 -3204.2266 -3189.0198 -3174.0142 -3159.0088 -3144.0032 -3129.1992 -3114.6973 -3100.296 846.5515 3299.8992 3299.8992 3299.8992 3299.8992 3299.8992 3299.8992 3299.8992 3299.8992 3299.8992 3299.8992 3299.8992 3299.8992 3294.3604 3278.549 3262.8386 3247.229 3231.6191 3216.11 3200.0977 3197.882 3215.5059 3232.5256 3249.3438 3265.9607 3282.4768 3298.892 -3284.793 -3268.6797 -3252.9692 -3237.2588 -3221.1455 -3205.536 -3190.4297 -3175.3235 -3160.2173 -3145.3125 -3130.5083 -3116.1072 -3101.6052 1156.0272 3299.8992 3299.8992 3299.8992 3299.8992 3299.8992 3299.8992 3299.8992 3299.8992 3299.8992 3299.8992 3299.8992 3299.8992 3291.8425 3275.9307 3260.1196 3244.5098 3229.0007 3213.693 3197.5798 3194.458 3211.8804 3229.0007 3245.9197 3262.4358 3279.0527 3295.468 -3288.3179 -3272.0032 -3255.789 -3240.28 -3224.2676 -3208.6577 -3193.5515 -3178.244 -3163.1377 -3148.3337 -3133.5295 -3118.8262 -3104.425 633.45337 3299.8992 3299.8992 3299.8992 3299.8992 3299.8992 3299.8992 3299.8992 3299.8992 3299.8992 3299.8992 3299.8992 3299.8992 3291.1377 3275.3264 3259.616 3244.107 3228.598 3213.1897 3196.9756 3194.3572 3211.7798 3228.9001 3245.7183 3262.4358 3278.8513 3295.3674 -3288.4185 -3272.2046 -3256.4941 -3240.1794 -3224.9724 -3209.3628 -3193.753 -3178.3447 -3163.2385 -3148.3337 -3133.5295 -3118.927 -3104.5256 1317.3615 3299.8992 3299.8992 3299.8992 3299.8992 3299.8992 3299.8992 3299.8992 
3284.3901 3299.295 -3285.3972 -3270.4924 -3255.6885 -3240.8843 -3226.3823 -3212.1826 -3197.882 -3183.783 -3169.7844 -3156.0881 3299.8992 3299.8992 3299.8992 3299.8992 3299.8992 3299.8992 3299.8992 3299.8992 3299.8992 3299.8992 3286.6057 3271.4995 3256.6956 3242.1936 3226.5837 3212.384 3198.184 3184.2864 3170.1873 3155.2825 3160.1165 3176.3306 3192.343 3208.1543 3223.764 3239.3738 3254.782 3270.0896 3285.3972 3299.8992 -3284.491 -3269.6868 -3254.8828 -3239.978 -3225.778 -3211.2761 -3197.0764 -3182.9773 -3169.0796 -3155.2825 3299.8992 3299.8992 3299.8992 3299.8992 3299.8992 3299.8992 3299.8992 3299.8992 3299.8992 3299.8992 3286.1023 3271.1975 3256.2927 3241.388 3226.181 3211.9812 3197.882 3183.783 3169.7844 3154.6782 3160.1165 3176.4312 3192.4438 3208.1543 3223.8647 3239.4744 3254.782 3270.1904 3285.3972 3299.8992 -3284.491 -3269.7876 -3254.782 -3240.3809 -3225.6775 -3211.0747 -3196.875 -3182.776 -3168.8782 -3155.081 3299.8992 3299.8992 3299.8992 3299.8992 3299.8992 3299.8992 3299.8992 3299.8992 3299.8992 3299.8992 3286.3037 3271.298 3256.4941 3241.388 3226.181 3212.1826 3197.882 3183.8835 3169.8853 3154.8796 3160.1165 3176.4312 3192.4438 3208.1543 3223.8647 3239.3738 3254.782 3270.1904 3285.3972 3299.8992 -3284.491 -3269.5862 -3254.782 -3240.3809 -3225.6775 -3211.2761 -3197.0764 -3182.8765 -3168.8782 -3155.2825 3299.8992 3299.8992 3299.8992 3299.8992 3299.8992 3299.8992 3299.8992 3299.8992 3299.8992 3299.8992 3285.1958 3270.291 3255.3862 3240.3809 3225.2747 3211.1755 3196.9756 3182.8765 3168.8782 3153.8726 3159.5122 3175.7263 3191.7388 3207.55 3223.1597 3238.7695 3254.1777 3269.4854 3284.6924 3299.8992 -3285.1958 -3270.1904 -3255.487 -3240.985 -3226.181 -3211.7798 -3197.5798 -3183.4807 -3169.583 -3155.8867 3299.8992 3299.8992 3299.8992 3299.8992 3299.8992 3299.8992 3299.8992 3299.8992 3299.8992 3299.3958 3284.0881 3269.0825 3254.2786 3239.1724 3224.0662 3210.0676 3195.868 3181.8694 3167.7703 3152.765 3157.3975 3173.7122 3189.7246 3205.435 3221.1455 3236.7554 3252.1636 3267.4712 3282.7788 3298.0864 -3287.1094 -3272.2046 -3257.4004 -3242.9993 -3228.195 -3213.794 -3199.4934 -3185.4949 -3171.4966 -3157.6995 3299.8992 3299.8992 3299.8992 3299.8992 3299.8992 3299.8992 3299.8992 3299.8992 
3283.8867 3299.7986 -3284.8938 -3269.5862 -3254.0771 -3239.1724 -3224.6704 -3209.5642 -3194.9614 -3180.5603 -3166.4612 -812.4115 3299.8992 3299.8992 3299.8992 3299.8992 3299.8992 3299.8992 3299.8992 3299.8992 3299.8992 3294.7632 3278.65 3194.5586 -2565.9392 3276.132 3292.044 -3292.5476 -3277.542 -3262.5366 -3247.229 -3232.4248 -1984.7534 2502.7954 3299.8992 3299.8992 3299.8992 3299.8992 3299.8992 3286.6057 3284.9944 3299.8992 -3283.8867 -3268.6797 -3253.07 -3238.0645 -3223.5625 -3208.6577 -3193.8538 -3179.5532 -3165.454 -684.1095 3299.8992 3299.8992 3299.8992 3299.8992 3299.8992 3299.8992 3299.8992 3299.8992 3299.8992 3295.3674 3279.2542 3182.1716 -2701.6936 3277.4414 3292.6482 -3291.641 -3276.3335 -3261.026 -3246.222 -3231.2163 -1820.8008 2700.9888 3299.8992 3299.8992 3299.8992 3299.8992 3299.8992 3286.5051 3284.8938 3299.8992 -3284.0881 -3268.7805 -3253.372 -3238.2659 -3223.764 -3208.8591 -3194.0552 -3179.7546 -3165.6555 -803.952 3299.8992 3299.8992 3299.8992 3299.8992 3299.8992 3299.8992 3299.8992 3299.8992 3299.8992 3295.3674 3279.3547 3159.915 -2756.6802 3277.542 3293.4539 -3291.1377 -3276.233 -3261.1267 -3245.7183 -3231.2163 -1893.6127 2534.9211 3299.8992 3299.8992 3299.8992 3299.8992 3299.8992 3287.4114 3286.203 3299.8992 -3282.2754 -3267.2698 -3251.6602 -3236.6545 -3222.1526 -3207.1472 -3192.5444 -3178.1433 -3164.0442 -743.6279 3299.8992 3299.8992 3299.8992 3299.8992 3299.8992 3299.8992 3299.8992 3299.8992 3299.8992 3296.7773 3280.664 3113.4888 -2885.6873 3279.7576 3294.8638 -3289.4255 -3274.0173 -3258.8103 -3243.805 -3229.2021 -1855.6458 2661.914 3299.8992 3299.8992 3299.8992 3299.8992 3299.8992 3288.922 3288.3179 3299.8992 -3280.664 -3265.5579 -3250.0488 -3234.9426 -3220.5413 -3205.6365 -3190.933 -3176.6326 -3162.5334 -235.75745 3299.8992 3299.8992 3299.8992 3299.8992 3299.8992 3299.8992 3299.8992 3299.8992 3299.8992 3297.1802 3280.966 3101.6052 -2969.9797 3279.959 3295.7703 -3288.8213 -3273.9165 -3258.7097 -3243.5027 -3228.7993 -1794.7174 2745.9045 3299.8992 3299.8992 3299.8992 3299.8992 3299.8992 3288.5193 3288.3179 3299.8992 -3280.4626 -3264.9536 -3250.0488 -3235.0432 -3219.8364 -3205.133 -3191.034 -3176.7334 -3162.4329 -535.06165 3299.8992 3299.8992 3299.8992 3299.8992 3299.8992 3299.8992 3299.8992 3299.8992 
3076.2268 3092.642 3108.3525 3124.768 3140.8813 3156.7932 3172.5037 3188.3147 3203.9246 3219.2322 3234.5398 3258.0046 610.49194 3241.8914 3226.9866 3212.1826 3197.5798 3182.9773 3168.576 3153.9734 3139.3706 3124.8687 3109.6619 3095.462 3081.2622 3067.0623 3052.8625 3038.864 3024.2615 3010.4644 2996.6675 2977.7344 1630.5634 -343.515 -2265.4265 2992.9412 3010.263 3027.2827 3044.1008 3060.8184 3077.234 3093.5486 3109.9639 3125.9766 3141.7876 3157.8003 3173.5107 3189.2212 3204.7302 3220.2393 3235.6475 3251.056 525.9979 3243.3013 3228.3965 3213.794 3199.0906 3184.5886 3170.0867 3155.3833 3140.7805 3126.178 3111.676 3097.0732 3082.5713 3068.3716 3054.2725 3040.1733 3025.5706 3011.975 2997.876 2979.849 1759.671 -165.9668 -2040.3442 2991.3298 3008.6516 3025.772 3042.4895 3059.207 3075.7231 3092.0378 3108.554 3124.4658 3140.3777 3156.2896 3172.2014 3187.8113 3203.3203 3218.8293 3234.2375 3250.7537 551.0742 3241.69 3226.886 3212.2832 3197.5798 3183.078 3168.6768 3153.9734 3139.4714 3124.6672 3110.266 3095.7642 3081.1614 3067.0623 3052.9631 3038.7634 3024.1606 3010.4644 2996.5667 2977.1301 1579.4037 -330.32227 -2274.4902 2993.2434 3010.4644 3027.4841 3044.3022 3060.9192 3077.536 3093.75 3109.6619 3126.178 3142.1904 3158.0017 3173.9136 3189.624 3205.133 3220.5413 3235.9497 -3254.3792 976.56555 3240.8843 3226.0803 3211.377 3196.5728 3182.0708 3167.5688 3153.067 3138.3635 3123.8616 3108.7554 3094.4548 3080.2551 3066.0552 3051.956 3037.857 3023.2544 3009.6587 2995.8618 2977.4321 1697.3328 -249.0509 -2201.779 2990.927 3008.1482 3025.1677 3042.0867 3058.7036 3075.2197 3091.4336 3107.4463 3123.8616 3139.8743 3155.6853 3171.4966 3187.3076 3202.9175 3218.3257 3233.8347 3296.0723 856.01807 3239.4744 3224.6704 3209.967 3195.3643 3180.7617 3166.159 3151.657 3137.155 3122.5525 3107.4463 3093.2463 3079.0466 3064.8467 3050.647 3036.5479 3022.046 3008.2488 2994.452 2974.3103 1571.9513 -352.98157 -2333.4045 2991.4307 3008.7524 3025.772 3042.691 3059.207 3075.824 3092.1387 3108.3525 3124.3652 3140.3777 3156.189 3172 3187.7104 3203.2195 3218.93 3234.137 -3267.0684 855.3131 3239.6758 3224.771 3210.1685 3195.3643 3180.8623 3166.5618 3151.8584 
3252.6672 3269.4854 3286.4043 3299.8992 -3281.1675 -3264.9536 -3248.8403 -3233.029 -3217.4194 -3202.011 -3186.502 -1453.7201 3299.8992 3299.8992 3299.8992 3299.8992 3299.8992 3299.8992 3299.8992 3299.8992 3286.8071 3270.1904 3253.372 2795.352 -2028.4607 3251.7607 3268.3777 3284.793 3299.8992 -3282.4768 -3266.464 -3250.4517 -1188.1531 2608.2366 3299.8992 3299.8992 3299.8992 3291.641 3275.6287 3259.4146 3254.8828 3271.8018 3288.6199 3299.8992 -3278.8513 -3262.738 -3246.7253 -3230.9143 -3215.2039 -3199.8962 -3184.6892 -963.87634 3299.8992 3299.8992 3299.8992 3299.8992 3299.8992 3299.8992 3299.8992 3299.8992 3285.901 3269.1833 3252.4658 2987.503 -1568.7286 3248.4375 3265.0542 3281.5703 3297.885 -3285.8 -3269.6868 -3253.6743 -1353.4149 2338.8428 3299.8992 3299.8992 3299.8992 3290.0298 3273.9165 3257.8032 3254.0771 3270.8953 3287.7136 3299.8992 -3279.657 -3263.5437 -3247.531 -3231.6191 -3216.11 -3200.702 -3185.4949 -1022.6898 3299.8992 3299.8992 3299.8992 3299.8992 3299.8992 3299.8992 3299.8992 3299.8992 3285.1958 3268.7805 3251.6602 2964.2395 -1720.9991 3248.538 3265.2556 3281.7717 3298.2878 -3285.5986 -3269.5862 -3253.5735 -1136.792 2480.7402 3299.8992 3299.8992 3299.8992 3288.5193 3272.708 3256.4941 3253.5735 3270.5933 3286.908 3299.8992 -3280.1604 -3263.9465 -3247.9338 -3232.1228 -3216.4124 -3201.1047 -3185.8977 -1268.216 3299.8992 3299.8992 3299.8992 3299.8992 3299.8992 3299.8992 3299.8992 3299.8992 3285.8 3269.284 3251.9622 2799.3804 -2115.1702 3251.056 3267.874 3284.2896 3299.8992 -3283.1816 -3267.0684 -3251.056 -1347.7753 2314.0686 3299.8992 3299.8992 3299.8992 3292.5476 3276.535 3260.5225 3258.5083 3275.3264 3291.4397 -3291.742 -3275.5278 -3259.2131 -3243.402 -3227.4902 -3211.8804 -3196.6736 -3181.366 -982.4066 3299.8992 3299.8992 3299.8992 3299.8992 3299.8992 3299.8992 3299.8992 3299.8992 3289.1235 3272.5066 3255.3862 2957.2905 -1641.8427 3251.8616 3268.4783 3284.9944 3299.8992 -3282.376 -3266.2627 -3250.3508 -1239.0106 2325.348 3299.8992 3299.8992 3299.8992 3292.6482 3276.6357 3260.4216 3258.206 3275.0244 3292.044 -3291.742 -3275.5278 -3259.4146 -3243.402 -3227.5908 -3212.0818 -3196.6736 -3181.4666 -715.7318 3299.8992 3299.8992 3299.8992 3299.8992 3299.8992 3299.8992 3299.8992 3299.8992 
