wall_time,elapsed_s,F1_N,F2_N
2026-07-21T15:55:32.797,0.0779,0.0652,0.083
2026-07-21T15:55:32.815,0.0779,0.0848,-0.0149
2026-07-21T15:55:32.815,0.0937,0.1044,0.0047
2026-07-21T15:55:32.829,0.1006,0.0652,0.083
2026-07-21T15:55:32.829,0.1114,0.0652,0.0439
2026-07-21T15:55:32.845,0.1114,0.0652,0.0243
2026-07-21T15:55:32.861,0.1258,0.0848,-0.0149
2026-07-21T15:55:32.877,0.1258,0.0652,0.083
2026-07-21T15:55:32.877,0.1417,0.0652,0.0047
2026-07-21T15:55:32.892,0.1417,0.0848,0.0243
2026-07-21T15:55:32.908,0.1592,0.1044,0.0243
2026-07-21T15:55:32.915,0.1592,0.0848,0.0047
2026-07-21T15:55:32.926,0.1592,0.0652,0.0634
2026-07-21T15:55:32.926,0.1592,0.0848,0.0243
2026-07-21T15:55:32.940,0.1592,0.0652,0.0634
2026-07-21T15:55:32.940,0.1592,0.0652,0.0439
2026-07-21T15:55:32.956,0.1761,0.026,0.0439
2026-07-21T15:55:32.974,0.1761,0.0065,0.0243
2026-07-21T15:55:32.974,0.2057,0.0456,0.0243
2026-07-21T15:55:32.991,0.2057,0.1044,0.0634
2026-07-21T15:55:33.004,0.2057,0.0456,0.0243
2026-07-21T15:55:33.016,0.2223,0.0652,-0.0149
2026-07-21T15:55:33.020,0.2223,0.1044,0.1418
2026-07-21T15:55:33.037,0.2397,0.0652,0.0243
2026-07-21T15:55:33.037,0.2541,-0.0131,0.0634
2026-07-21T15:55:33.054,0.27,0.0652,0.0634
2026-07-21T15:55:33.054,0.2764,0.0652,-0.0932
2026-07-21T15:55:33.069,0.2941,0.0456,0.083
2026-07-21T15:55:33.085,0.2941,0.0848,-0.0345
2026-07-21T15:55:33.091,0.3025,0.026,0.0047
2026-07-21T15:55:33.104,0.3198,0.4177,0.0634
2026-07-21T15:55:33.109,0.3198,1.2009,0.5334
2026-07-21T15:55:33.132,0.35,2.5324,1.5124
2026-07-21T15:55:33.134,0.35,5.2933,4.0971
2026-07-21T15:55:33.143,0.3765,9.6989,8.3069
2026-07-21T15:55:33.149,0.3815,16.513,14.6119
2026-07-21T15:55:33.165,0.3815,23.6209,20.8974
2026-07-21T15:55:33.165,0.3986,29.6322,26.38
2026-07-21T15:55:33.180,0.4149,34.7819,31.7647
2026-07-21T15:55:33.196,0.4315,39.9708,36.7578
2026-07-21T15:55:33.213,0.4315,44.396,41.0656
2026-07-21T15:55:33.216,0.4315,48.0968,44.7467
2026-07-21T15:55:33.229,0.4656,51.4451,48.2125
2026-07-21T15:55:33.229,0.4656,54.3431,51.3063
2026-07-21T15:55:33.246,0.4765,56.869,53.9301
2026-07-21T15:55:33.246,0.4815,59.0033,56.1427
2026-07-21T15:55:33.265,0.4935,60.6872,58.14
2026-07-21T15:55:33.267,0.5023,61.9404,59.8043
2026-07-21T15:55:33.280,0.5093,62.939,61.1946
2026-07-21T15:55:33.294,0.5093,63.4873,62.1932
2026-07-21T15:55:33.308,0.5407,63.8006,62.996
2026-07-21T15:55:33.308,0.5407,63.8985,63.7205
2026-07-21T15:55:33.324,0.5407,63.9964,64.1121
2026-07-21T15:55:33.324,0.5566,64.153,64.5037
2026-07-21T15:55:33.351,0.5723,64.1335,64.9541
2026-07-21T15:55:33.355,0.5767,63.9964,65.5023
2026-07-21T15:55:33.355,0.5767,63.7223,66.0506
2026-07-21T15:55:33.371,0.5882,63.1348,66.6184
2026-07-21T15:55:33.371,0.5882,62.5082,67.5583
2026-07-21T15:55:33.391,0.6042,62.1754,68.322
2026-07-21T15:55:33.403,0.6199,61.6467,68.694
2026-07-21T15:55:33.417,0.6199,60.9026,68.9681
2026-07-21T15:55:33.419,0.6364,59.3557,69.0073
2026-07-21T15:55:33.435,0.6516,58.0047,69.1444
2026-07-21T15:55:33.435,0.6549,57.711,69.7122
2026-07-21T15:55:33.451,0.6769,57.5935,70.1234
2026-07-21T15:55:33.466,0.6769,56.9082,70.3192
2026-07-21T15:55:33.470,0.7,55.185,70.4171
2026-07-21T15:55:33.486,0.7029,52.1304,70.4759
2026-07-21T15:55:33.498,0.7029,47.8618,70.3584
2026-07-21T15:55:33.514,0.7312,45.6688,70.6912
2026-07-21T15:55:33.515,0.7335,44.7485,71.2982
2026-07-21T15:55:33.530,0.7505,44.866,71.9836
2026-07-21T15:55:33.530,0.7505,45.2968,72.7472
2026-07-21T15:55:33.530,0.7505,45.6492,73.6088
2026-07-21T15:55:33.553,0.779,46.4912,74.6074
2026-07-21T15:55:33.565,0.779,47.1569,75.3319
2026-07-21T15:55:33.578,0.7955,47.6465,76.0564
2026-07-21T15:55:33.590,0.8032,48.0968,76.82
2026-07-21T15:55:33.594,0.8032,48.2535,77.2508
2026-07-21T15:55:33.610,0.812,47.9989,77.4662
2026-07-21T15:55:33.618,0.8264,47.9206,77.9557
2026-07-21T15:55:33.627,0.842,47.9206,78.4256
2026-07-21T15:55:33.627,0.842,47.6073,78.6019
2026-07-21T15:55:33.641,0.8736,47.5681,78.9739
2026-07-21T15:55:33.657,0.8772,47.666,79.4634
2026-07-21T15:55:33.657,0.8814,48.3122,79.8746
2026-07-21T15:55:33.673,0.89,49.1738,80.09
2026-07-21T15:55:33.688,0.89,49.9961,80.3641
2026-07-21T15:55:33.696,0.9053,50.4661,80.6383
2026-07-21T15:55:33.705,0.9229,50.799,80.7753
2026-07-21T15:55:33.718,0.9229,51.171,80.7362
2026-07-21T15:55:33.720,0.9371,51.6605,80.7362
2026-07-21T15:55:33.738,0.953,52.4046,80.7166
2026-07-21T15:55:33.738,0.953,53.1095,80.5404
2026-07-21T15:55:33.752,0.9772,53.5403,80.1683
2026-07-21T15:55:33.768,0.9792,53.971,79.7767
2026-07-21T15:55:33.768,1.0009,54.3627,79.5026
2026-07-21T15:55:33.783,1.0037,54.8522,79.2872
2026-07-21T15:55:33.794,1.0037,55.0676,78.9739
2026-07-21T15:55:33.799,1.0205,55.1459,78.641
2026-07-21T15:55:33.813,1.0205,55.4396,78.3277
2026-07-21T15:55:33.835,1.0489,55.6158,78.3669
2026-07-21T15:55:33.835,1.0489,55.89,78.3865
2026-07-21T15:55:33.847,1.0544,56.4186,78.4452
2026-07-21T15:55:33.847,1.0654,56.7907,78.3865
2026-07-21T15:55:33.864,1.0654,57.1823,78.3082
2026-07-21T15:55:33.880,1.0957,57.3389,78.1907
2026-07-21T15:55:33.880,1.0957,57.3193,78.2103
2026-07-21T15:55:33.895,1.116,57.3389,78.1711
2026-07-21T15:55:33.895,1.116,57.3781,77.9557
2026-07-21T15:55:33.918,1.1274,57.4956,77.7795
2026-07-21T15:55:33.926,1.1455,57.7501,77.7991
2026-07-21T15:55:33.931,1.1455,58.1222,77.7403
2026-07-21T15:55:33.948,1.1588,58.5334,77.5445
2026-07-21T15:55:33.958,1.1588,58.6117,77.29
2026-07-21T15:55:33.960,1.1756,58.6508,76.8788
2026-07-21T15:55:33.973,1.1918,58.8466,76.7417
2026-07-21T15:55:33.989,1.1918,59.1795,76.5263
2026-07-21T15:55:33.992,1.2068,59.4536,76.4284
2026-07-21T15:55:34.006,1.2068,59.8061,76.3109
2026-07-21T15:55:34.006,1.222,60.139,76.1739
2026-07-21T15:55:34.021,1.2377,60.1977,75.978
2026-07-21T15:55:34.021,1.2417,60.0215,75.7822
2026-07-21T15:55:34.048,1.2608,59.7865,75.8214
2026-07-21T15:55:34.056,1.2608,59.8257,75.8801
2026-07-21T15:55:34.056,1.286,60.0607,75.7431
2026-07-21T15:55:34.075,1.286,60.276,75.5669
2026-07-21T15:55:34.084,1.286,60.6481,75.5864
2026-07-21T15:55:34.092,1.3044,60.8635,75.4494
2026-07-21T15:55:34.101,1.3044,60.9418,75.4885
2026-07-21T15:55:34.119,1.3361,60.9026,75.3906
2026-07-21T15:55:34.119,1.3393,60.9418,75.4494
2026-07-21T15:55:34.138,1.3578,60.9614,75.4102
2026-07-21T15:55:34.147,1.3608,61.2551,75.4298
2026-07-21T15:55:34.155,1.3647,61.6467,75.371
2026-07-21T15:55:34.171,1.3804,62.0971,75.2927
2026-07-21T15:55:34.175,1.3804,62.567,75.1948
2026-07-21T15:55:34.185,1.4047,62.7041,75.1557
2026-07-21T15:55:34.195,1.4047,62.7432,75.2144
2026-07-21T15:55:34.211,1.4289,62.7432,75.3123
2026-07-21T15:55:34.219,1.4289,62.7628,75.6256
2026-07-21T15:55:34.227,1.4289,62.8803,75.7039
2026-07-21T15:55:34.227,1.4434,62.9586,75.5277
2026-07-21T15:55:34.243,1.4434,63.1348,75.4494
2026-07-21T15:55:34.258,1.478,63.0957,75.2927
2026-07-21T15:55:34.258,1.478,63.1544,75.2927
2026-07-21T15:55:34.275,1.4922,63.1348,75.234
2026-07-21T15:55:34.275,1.4922,63.1936,75.234
2026-07-21T15:55:34.293,1.5053,63.0957,75.1557
2026-07-21T15:55:34.307,1.523,63.0761,75.1557
2026-07-21T15:55:34.307,1.523,63.1348,75.0578
2026-07-21T15:55:34.329,1.5383,63.2132,74.9011
2026-07-21T15:55:34.329,1.5383,63.2523,74.7836
2026-07-21T15:55:34.338,1.5699,63.1544,74.6661
2026-07-21T15:55:34.353,1.5699,62.9978,74.6074
2026-07-21T15:55:34.353,1.5699,63.0369,74.7249
2026-07-21T15:55:34.369,1.5923,63.1153,74.8619
2026-07-21T15:55:34.385,1.5968,63.2915,74.8619
2026-07-21T15:55:34.406,1.6175,63.2915,74.7053
2026-07-21T15:55:34.407,1.6175,63.3894,74.5095
2026-07-21T15:55:34.416,1.6175,63.2915,74.4312
2026-07-21T15:55:34.421,1.635,63.2132,74.2354
2026-07-21T15:55:34.432,1.635,62.9978,74.0591
2026-07-21T15:55:34.450,1.6491,62.5474,73.8046
2026-07-21T15:55:34.450,1.6651,62.3908,73.4521
2026-07-21T15:55:34.464,1.6813,62.2929,73.2172
2026-07-21T15:55:34.464,1.6813,62.332,73.178
2026-07-21T15:55:34.496,1.706,62.4299,73.178
2026-07-21T15:55:34.496,1.706,62.5866,73.0801
2026-07-21T15:55:34.496,1.7171,62.6649,72.9626
2026-07-21T15:55:34.513,1.7297,62.6257,72.7668
2026-07-21T15:55:34.532,1.7443,62.4691,72.5123
2026-07-21T15:55:34.532,1.7443,62.3124,72.4731
2026-07-21T15:55:34.544,1.7443,62.2733,72.5123
2026-07-21T15:55:34.544,1.7604,62.1362,72.3948
2026-07-21T15:55:34.559,1.7785,62.0579,72.2773
2026-07-21T15:55:34.575,1.7945,61.9796,72.1794
2026-07-21T15:55:34.575,1.7945,61.9796,71.9053
2026-07-21T15:55:34.593,1.8079,62.0383,71.7878
2026-07-21T15:55:34.609,1.8248,62.0383,71.7486
2026-07-21T15:55:34.609,1.8248,61.8817,71.7486
2026-07-21T15:55:34.623,1.8405,61.6467,71.729
2026-07-21T15:55:34.638,1.8405,61.353,71.9053
2026-07-21T15:55:34.643,1.8552,61.1572,71.8465
2026-07-21T15:55:34.655,1.8709,61.2159,71.729
2026-07-21T15:55:34.670,1.8787,61.2942,71.5528
2026-07-21T15:55:34.670,1.8866,61.3334,71.3766
2026-07-21T15:55:34.686,1.9023,61.353,71.3374
2026-07-21T15:55:34.693,1.9063,61.118,71.2591
2026-07-21T15:55:34.701,1.9189,61.0201,71.4157
2026-07-21T15:55:34.701,1.9189,60.9222,71.4549
2026-07-21T15:55:34.723,1.9338,60.9809,71.3766
2026-07-21T15:55:34.734,1.9499,60.9614,71.1612
2026-07-21T15:55:34.748,1.9658,60.8243,70.9066
2026-07-21T15:55:34.748,1.9658,60.5893,70.6325
2026-07-21T15:55:34.764,1.9658,60.3739,70.515
2026-07-21T15:55:34.780,1.9816,60.5306,70.515
2026-07-21T15:55:34.780,1.9816,60.5698,70.28
2026-07-21T15:55:34.796,2.0158,60.511,70.0451
2026-07-21T15:55:34.796,2.0158,60.4327,69.7122
2026-07-21T15:55:34.812,2.0288,60.2956,69.2814
2026-07-21T15:55:34.821,2.0288,60.1977,68.9486
2026-07-21T15:55:34.837,2.0454,60.0215,68.9681
2026-07-21T15:55:34.843,2.0454,59.904,68.8702
2026-07-21T15:55:34.843,2.0633,59.8257,68.8898
2026-07-21T15:55:34.860,2.0792,59.9236,68.8898
2026-07-21T15:55:34.876,2.0883,59.8648,68.8115
2026-07-21T15:55:34.879,2.107,59.8844,68.8507
2026-07-21T15:55:34.894,2.1088,59.904,68.4982
2026-07-21T15:55:34.907,2.1252,59.669,68.0478
2026-07-21T15:55:34.907,2.1252,59.3166,67.5975
2026-07-21T15:55:34.923,2.1252,58.925,67.5975
2026-07-21T15:55:34.923,2.1564,58.8466,67.6758
2026-07-21T15:55:34.940,2.1574,58.8466,67.7737
2026-07-21T15:55:34.955,2.1793,58.6313,67.7345
2026-07-21T15:55:34.955,2.1793,58.4942,67.3429
2026-07-21T15:55:34.972,2.2044,58.1417,66.8338
2026-07-21T15:55:34.988,2.2074,57.5152,66.2268
2026-07-21T15:55:34.994,2.2074,57.2606,65.9331
2026-07-21T15:55:35.002,2.2211,57.2019,65.8744
2026-07-21T15:55:35.019,2.2211,57.0452,65.9919
2026-07-21T15:55:35.022,2.2513,56.8298,65.7765
2026-07-21T15:55:35.036,2.2513,56.5949,65.5219
2026-07-21T15:55:35.036,2.2513,56.4186,65.1695
2026-07-21T15:55:35.050,2.2668,56.4186,64.5429
2026-07-21T15:55:35.066,2.2668,56.6144,64.3079
2026-07-21T15:55:35.066,2.2997,56.6928,64.4841
2026-07-21T15:55:35.081,2.2997,56.7319,64.6408
2026-07-21T15:55:35.097,2.2997,56.5557,64.6212
2026-07-21T15:55:35.098,2.3149,56.5361,64.6016
2026-07-21T15:55:35.114,2.3149,56.497,64.582
2026-07-21T15:55:35.129,2.3458,56.3599,64.4646
2026-07-21T15:55:35.129,2.3458,56.2228,64.4841
2026-07-21T15:55:35.145,2.3626,56.2228,64.4058
2026-07-21T15:55:35.145,2.3626,56.262,64.4646
2026-07-21T15:55:35.160,2.3626,56.2816,64.5037
2026-07-21T15:55:35.177,2.38,56.3403,64.4254
2026-07-21T15:55:35.177,2.3931,56.3795,64.3862
2026-07-21T15:55:35.195,2.4137,56.4186,64.2688
2026-07-21T15:55:35.208,2.4137,56.4774,64.2883
2026-07-21T15:55:35.225,2.4358,56.497,64.6016
2026-07-21T15:55:35.228,2.4358,56.3011,65.052
2026-07-21T15:55:35.234,2.441,56.3403,65.3653
2026-07-21T15:55:35.239,2.4558,56.2424,65.5219
2026-07-21T15:55:35.256,2.4558,56.262,65.5807
2026-07-21T15:55:35.270,2.4801,56.2816,65.2674
2026-07-21T15:55:35.270,2.4801,56.3599,64.8366
2026-07-21T15:55:35.286,2.4883,56.1249,64.21
2026-07-21T15:55:35.295,2.5042,55.9879,64.1708
2026-07-21T15:55:35.303,2.5192,55.8508,64.4646
2026-07-21T15:55:35.318,2.5192,56.0074,64.8953
2026-07-21T15:55:35.323,2.5445,56.027,65.0128
2026-07-21T15:55:35.334,2.5445,56.1641,65.189
2026-07-21T15:55:35.355,2.5724,56.0662,65.2282
2026-07-21T15:55:35.355,2.5724,55.8704,64.9149
2026-07-21T15:55:35.368,2.5765,55.8116,64.6212
2026-07-21T15:55:35.382,2.5828,55.8116,64.5037
2026-07-21T15:55:35.387,2.5985,55.8116,64.6995
2026-07-21T15:55:35.397,2.6155,55.8704,64.9345
2026-07-21T15:55:35.397,2.6155,55.89,65.287
2026-07-21T15:55:35.414,2.6155,55.9095,65.4632
2026-07-21T15:55:35.430,2.6299,56.0662,65.6198
2026-07-21T15:55:35.430,2.6299,56.1249,65.5611
2026-07-21T15:55:35.445,2.662,56.2228,65.4828
2026-07-21T15:55:35.445,2.662,56.1053,65.4436
2026-07-21T15:55:35.461,2.6801,55.7333,65.2478
2026-07-21T15:55:35.477,2.6801,55.3417,65.2674
2026-07-21T15:55:35.483,2.7011,55.0284,65.287
2026-07-21T15:55:35.495,2.7097,54.8718,65.2478
2026-07-21T15:55:35.495,2.7255,54.8913,65.1303
2026-07-21T15:55:35.516,2.7255,54.8718,65.0128
2026-07-21T15:55:35.524,2.7255,54.7738,64.8562
2026-07-21T15:55:35.540,2.7577,54.6368,64.6995
2026-07-21T15:55:35.540,2.7577,54.6759,64.8366
2026-07-21T15:55:35.556,2.7802,54.7347,64.7779
2026-07-21T15:55:35.556,2.7802,54.7543,64.7779
2026-07-21T15:55:35.572,2.7889,54.6955,64.6212
2026-07-21T15:55:35.588,2.8054,54.7347,64.5625
2026-07-21T15:55:35.595,2.8101,54.9109,64.445
2026-07-21T15:55:35.612,2.8214,54.9697,64.3471
2026-07-21T15:55:35.619,2.8214,55.0088,64.1317
2026-07-21T15:55:35.625,2.8363,54.7738,63.9163
2026-07-21T15:55:35.636,2.852,54.6368,64.0142
2026-07-21T15:55:35.636,2.852,54.4997,64.21
2026-07-21T15:55:35.651,2.8805,54.441,64.3862
2026-07-21T15:55:35.667,2.8838,54.3822,64.4841
2026-07-21T15:55:35.667,2.9048,54.441,64.4254
2026-07-21T15:55:35.685,2.9048,54.3039,64.1708
2026-07-21T15:55:35.698,2.9105,54.0885,64.0534
2026-07-21T15:55:35.708,2.9157,53.7752,64.0142
2026-07-21T15:55:35.719,2.9317,53.6186,64.2883
2026-07-21T15:55:35.725,2.9317,53.5403,64.582
2026-07-21T15:55:35.730,2.9489,53.6577,64.9541
2026-07-21T15:55:35.746,2.9489,53.834,64.8953
2026-07-21T15:55:35.746,2.9634,53.8144,64.582
2026-07-21T15:55:35.763,2.9808,53.7556,64.1121
2026-07-21T15:55:35.763,2.9958,53.8144,64.1121
2026-07-21T15:55:35.778,2.9958,53.8731,64.2883
2026-07-21T15:55:35.795,2.9958,53.9319,64.5037
2026-07-21T15:55:35.810,3.022,53.9123,64.5233
2026-07-21T15:55:35.810,3.0269,53.8144,64.445
2026-07-21T15:55:35.826,3.0426,53.5598,64.1708
2026-07-21T15:55:35.837,3.0426,53.2857,63.7597
2026-07-21T15:55:35.842,3.0664,53.0899,63.5051
2026-07-21T15:55:35.857,3.0664,53.1682,63.5247
2026-07-21T15:55:35.857,3.0767,53.4032,63.7205
2026-07-21T15:55:35.881,3.0899,53.3836,63.7792
2026-07-21T15:55:35.881,3.0899,53.3445,63.8184
2026-07-21T15:55:35.905,3.1114,53.0116,63.6618
2026-07-21T15:55:35.905,3.1114,52.9333,63.5443
2026-07-21T15:55:35.905,3.1374,52.757,63.5051
2026-07-21T15:55:35.926,3.1374,52.7374,63.4855
2026-07-21T15:55:35.936,3.1374,52.62,63.6226
2026-07-21T15:55:35.952,3.162,52.5808,63.5443
2026-07-21T15:55:35.952,3.162,52.4633,63.4659
2026-07-21T15:55:35.968,3.1845,52.2479,63.1527
2026-07-21T15:55:35.977,3.1855,52.013,62.7415
2026-07-21T15:55:35.983,3.201,51.9346,62.6044
2026-07-21T15:55:35.996,3.201,51.9934,62.6044
2026-07-21T15:55:36.000,3.2161,51.9738,62.7415
2026-07-21T15:55:36.016,3.2161,51.8367,62.8785
2026-07-21T15:55:36.026,3.2327,51.6409,62.8002
2026-07-21T15:55:36.031,3.2505,51.406,62.8394
2026-07-21T15:55:36.047,3.2505,51.3472,63.1527
2026-07-21T15:55:36.063,3.2637,51.3276,63.1135
2026-07-21T15:55:36.065,3.2637,51.3081,62.9177
2026-07-21T15:55:36.078,3.2965,51.1514,62.4282
2026-07-21T15:55:36.078,3.2965,51.0731,62.2519
2026-07-21T15:55:36.096,3.2965,51.0927,62.4477
2026-07-21T15:55:36.110,3.3232,51.2885,62.6827
2026-07-21T15:55:36.111,3.3232,51.6213,63.1527
2026-07-21T15:55:36.127,3.3427,51.6018,63.2897
2026-07-21T15:55:36.138,3.3427,51.543,63.1722
2026-07-21T15:55:36.142,3.3594,51.406,62.8394
2026-07-21T15:55:36.157,3.3594,51.5039,62.624
2026-07-21T15:55:36.157,3.3816,51.6213,62.7023
2026-07-21T15:55:36.174,3.3816,51.7192,62.9764
2026-07-21T15:55:36.174,3.4071,51.778,63.1331
2026-07-21T15:55:36.196,3.4071,51.6605,63.1135
2026-07-21T15:55:36.205,3.4122,51.4843,62.8002
2026-07-21T15:55:36.221,3.4224,51.2689,62.5261
2026-07-21T15:55:36.227,3.4224,51.171,62.2911
2026-07-21T15:55:36.237,3.4541,51.0927,62.2128
2026-07-21T15:55:36.237,3.4541,51.0927,62.2715
2026-07-21T15:55:36.253,3.4711,51.0927,62.5456
2026-07-21T15:55:36.253,3.4711,51.0535,62.7219
2026-07-21T15:55:36.269,3.4948,51.1906,62.7806
2026-07-21T15:55:36.286,3.4948,51.3081,62.8198
2026-07-21T15:55:36.309,3.5186,51.3864,62.8589
2026-07-21T15:55:36.309,3.5186,51.5039,62.6436
2026-07-21T15:55:36.317,3.5256,51.4451,62.4477
2026-07-21T15:55:36.332,3.5334,51.3472,62.5456
2026-07-21T15:55:36.340,3.5493,51.1906,62.7415
2026-07-21T15:55:36.348,3.5649,51.0535,62.6631
2026-07-21T15:55:36.348,3.5649,50.9164,62.5652
2026-07-21T15:55:36.364,3.5818,50.8577,62.4477
2026-07-21T15:55:36.380,3.5818,50.6423,62.3107
2026-07-21T15:55:36.380,3.6083,50.7598,62.154
2026-07-21T15:55:36.396,3.6103,50.8381,62.154
2026-07-21T15:55:36.419,3.628,50.6031,61.9974
2026-07-21T15:55:36.421,3.628,50.329,61.8407
2026-07-21T15:55:36.428,3.628,49.7416,61.6058
2026-07-21T15:55:36.443,3.6445,49.1542,61.2533
2026-07-21T15:55:36.443,3.6445,48.9975,60.9204
2026-07-21T15:55:36.459,3.6753,48.9192,60.7051
2026-07-21T15:55:36.459,3.6753,49.0954,60.9792
2026-07-21T15:55:36.474,3.691,49.1933,61.1946
2026-07-21T15:55:36.474,3.691,49.2717,61.3904
2026-07-21T15:55:36.506,3.7133,49.2912,61.5079
2026-07-21T15:55:36.506,3.7133,49.2912,61.5274
2026-07-21T15:55:36.522,3.7389,49.2325,61.5079
2026-07-21T15:55:36.528,3.7389,49.35,61.6841
2026-07-21T15:55:36.538,3.7389,49.3696,61.6449
2026-07-21T15:55:36.552,3.755,49.5262,61.7624
2026-07-21T15:55:36.553,3.755,49.6437,61.547
2026-07-21T15:55:36.570,3.7872,49.5262,61.1554
2026-07-21T15:55:36.570,3.7872,49.3696,60.8813
2026-07-21T15:55:36.585,3.8028,49.2521,60.7442
2026-07-21T15:55:36.602,3.8028,49.3304,60.8225
2026-07-21T15:55:36.602,3.8187,49.3304,60.9009
2026-07-21T15:55:36.617,3.8338,49.1933,60.9596
2026-07-21T15:55:36.628,3.8349,48.9584,61.0183
2026-07-21T15:55:36.633,3.8515,48.7038,60.7246
2026-07-21T15:55:36.650,3.8597,48.4493,60.5288
2026-07-21T15:55:36.650,3.8667,48.4101,60.3134
2026-07-21T15:55:36.666,3.8667,48.5276,60.5092
2026-07-21T15:55:36.681,3.8989,48.6842,60.6659
2026-07-21T15:55:36.681,3.8989,48.8409,60.5876
2026-07-21T15:55:36.697,3.8989,48.8017,60.4505
2026-07-21T15:55:36.714,3.9302,48.7234,60.1372
2026-07-21T15:55:36.714,3.9302,48.5667,59.961
2026-07-21T15:55:36.714,3.9302,48.5472,59.9806
2026-07-21T15:55:36.729,3.949,48.6255,60.0981
2026-07-21T15:55:36.745,3.949,48.6255,60.2155
2026-07-21T15:55:36.761,3.978,48.5472,59.961
2026-07-21T15:55:36.764,3.9795,48.4297,59.7456
2026-07-21T15:55:36.778,3.9937,48.4884,59.726
2026-07-21T15:55:36.778,3.9937,48.8017,59.9022
2026-07-21T15:55:36.797,3.9937,48.9584,60.196
2026-07-21T15:55:36.808,4.0148,49.0954,60.2743
2026-07-21T15:55:36.808,4.0148,49.1346,60.4113
2026-07-21T15:55:36.829,4.041,49.0563,60.4505
2026-07-21T15:55:36.829,4.0456,49.1933,60.2351
2026-07-21T15:55:36.841,4.0641,49.3108,60.0981
2026-07-21T15:55:36.856,4.0691,49.5654,60.0393
2026-07-21T15:55:36.874,4.0886,49.7612,60.1372
2026-07-21T15:55:36.879,4.0893,49.7612,60.0981
2026-07-21T15:55:36.884,4.0893,49.4283,60.0197
2026-07-21T15:55:36.900,4.1086,49.2325,59.961
2026-07-21T15:55:36.904,4.1152,49.3108,59.9806
2026-07-21T15:55:36.923,4.1364,49.3696,60.2155
2026-07-21T15:55:36.923,4.1373,49.5458,60.333
2026-07-21T15:55:36.936,4.1521,49.5654,60.4701
2026-07-21T15:55:36.936,4.1521,49.8199,60.4701
2026-07-21T15:55:36.957,4.1679,49.8395,60.6072
2026-07-21T15:55:36.967,4.1679,49.8395,60.6659
2026-07-21T15:55:36.967,4.184,49.8199,60.9009
2026-07-21T15:55:36.983,4.1999,49.7612,60.9988
2026-07-21T15:55:36.997,4.1999,49.7808,61.0575
2026-07-21T15:55:36.999,4.2164,49.8591,61.1358
2026-07-21T15:55:37.015,4.2164,49.8003,61.0771
2026-07-21T15:55:37.031,4.2324,49.8982,60.9596
2026-07-21T15:55:37.031,4.2324,49.9374,60.8421
2026-07-21T15:55:37.047,4.2638,49.8395,60.8813
2026-07-21T15:55:37.047,4.2638,49.7808,60.9792
2026-07-21T15:55:37.062,4.2825,49.9178,61.175
2026-07-21T15:55:37.078,4.2825,50.2115,61.3316
2026-07-21T15:55:37.078,4.3098,50.3682,61.175
2026-07-21T15:55:37.097,4.3104,50.329,61.1358
2026-07-21T15:55:37.097,4.3159,50.1136,60.9009
2026-07-21T15:55:37.123,4.3274,49.8199,60.6267
2026-07-21T15:55:37.125,4.3274,49.8199,60.5092
2026-07-21T15:55:37.142,4.3438,49.8003,60.7246
2026-07-21T15:55:37.142,4.3438,50.0353,61.1163
2026-07-21T15:55:37.158,4.3752,50.1332,61.3512
2026-07-21T15:55:37.158,4.3752,50.1724,61.6449
2026-07-21T15:55:37.173,4.3888,50.094,61.5862
2026-07-21T15:55:37.190,4.3888,50.0353,61.41
2026-07-21T15:55:37.197,4.4204,49.8787,61.1163
2026-07-21T15:55:37.203,4.4204,49.6633,60.8617
2026-07-21T15:55:37.217,4.4204,49.3891,60.5484
2026-07-21T15:55:37.231,4.4438,49.0954,60.4309
2026-07-21T15:55:37.235,4.4438,48.9975,60.4897
2026-07-21T15:55:37.235,4.4676,48.8017,60.2547
2026-07-21T15:55:37.258,4.4676,48.6255,59.9218
2026-07-21T15:55:37.266,4.4676,48.4884,59.4323
2026-07-21T15:55:37.266,4.4855,48.4493,59.0799
2026-07-21T15:55:37.282,4.4855,48.3709,58.8253
2026-07-21T15:55:37.300,4.5065,48.273,58.6687
2026-07-21T15:55:37.300,4.5167,48.2143,58.7274
2026-07-21T15:55:37.317,4.5351,48.3318,58.6099
2026-07-21T15:55:37.331,4.5351,48.4493,58.4533
2026-07-21T15:55:37.345,4.5559,48.1751,58.3162
2026-07-21T15:55:37.350,4.5559,48.0968,58.2379
2026-07-21T15:55:37.362,4.5827,47.9989,57.9246
2026-07-21T15:55:37.371,4.5827,47.9793,57.7875
2026-07-21T15:55:37.378,4.5827,48.1556,58.0029
2026-07-21T15:55:37.393,4.5939,48.273,58.0421
2026-07-21T15:55:37.397,4.6097,48.3122,58.0225
2026-07-21T15:55:37.397,4.6097,48.0772,57.7484
2026-07-21T15:55:37.409,4.6323,47.8423,57.3763
2026-07-21T15:55:37.424,4.6364,47.5681,57.0043
2026-07-21T15:55:37.441,4.6574,47.4115,56.7693
2026-07-21T15:55:37.447,4.6574,47.4702,56.691
2026-07-21T15:55:37.459,4.6791,47.6073,56.8281
2026-07-21T15:55:37.461,4.6791,47.8031,57.1805
2026-07-21T15:55:37.472,4.6889,47.9793,57.3372
2026-07-21T15:55:37.490,4.705,47.9793,57.4546
2026-07-21T15:55:37.497,4.705,47.8814,57.2588
2026-07-21T15:55:37.504,4.7221,47.7444,56.8672
2026-07-21T15:55:37.504,4.7221,47.6856,56.691
2026-07-21T15:55:37.537,4.7537,47.7835,56.7889
2026-07-21T15:55:37.537,4.7537,47.9597,57.0435
2026-07-21T15:55:37.537,4.7537,48.0576,57.2588
2026-07-21T15:55:37.552,4.7846,48.0968,57.3567
2026-07-21T15:55:37.568,4.7846,47.9793,57.1218
2026-07-21T15:55:37.568,4.8009,47.8814,56.9651
2026-07-21T15:55:37.583,4.8174,47.7639,56.8476
2026-07-21T15:55:37.599,4.8179,47.6073,57.063
2026-07-21T15:55:37.599,4.8242,47.5094,57.0239
2026-07-21T15:55:37.615,4.8496,47.529,57.0435
2026-07-21T15:55:37.615,4.8496,47.5681,56.8868
2026-07-21T15:55:37.639,4.8496,47.5485,56.6714
2026-07-21T15:55:37.647,4.8829,47.3136,56.3777
2026-07-21T15:55:37.660,4.8829,47.1178,56.1427
2026-07-21T15:55:37.664,4.8829,46.8045,56.0253
2026-07-21T15:55:37.679,4.9056,46.5303,55.9665
2026-07-21T15:55:37.679,4.9127,46.4129,56.1427
2026-07-21T15:55:37.698,4.9182,46.5499,56.3973
2026-07-21T15:55:37.711,4.9442,46.7457,56.5148
2026-07-21T15:55:37.720,4.9442,46.9024,56.5344
2026-07-21T15:55:37.733,4.952,46.9024,56.2994
2026-07-21T15:55:37.733,4.952,46.7849,56.0057
2026-07-21T15:55:37.759,4.9758,46.5695,55.6924
2026-07-21T15:55:37.759,4.9758,46.3933,55.477
2026-07-21T15:55:37.767,4.983,46.3541,55.6924
2026-07-21T15:55:37.775,5.0114,46.315,56.1427
2026-07-21T15:55:37.790,5.0134,46.4129,56.4364
2026-07-21T15:55:37.798,5.0155,46.4129,56.5539
2026-07-21T15:55:37.806,5.0391,46.2171,56.2798
2026-07-21T15:55:37.823,5.0477,45.7471,55.6924
2026-07-21T15:55:37.830,5.0477,45.1989,55.0854
2026-07-21T15:55:37.844,5.0708,44.6506,54.6154
2026-07-21T15:55:37.854,5.0708,44.1611,54.1259
2026-07-21T15:55:37.854,5.0831,43.8478,54.1259
2026-07-21T15:55:37.870,5.0831,43.652,54.1063
2026-07-21T15:55:37.870,5.112,43.5737,54.3217
2026-07-21T15:55:37.885,5.114,43.4562,54.4392
2026-07-21T15:55:37.898,5.114,43.2799,54.3021
2026-07-21T15:55:37.911,5.1355,43.1233,54.1651
2026-07-21T15:55:37.925,5.1355,42.9471,53.793
2026-07-21T15:55:37.929,5.1355,42.81,53.8126
2026-07-21T15:55:37.935,5.1671,43.1037,53.7539
2026-07-21T15:55:37.950,5.1671,43.3191,53.9497
2026-07-21T15:55:37.950,5.1671,43.4953,53.9889
2026-07-21T15:55:37.973,5.198,43.3974,53.793
2026-07-21T15:55:37.982,5.198,43.1625,53.4993
2026-07-21T15:55:37.982,5.198,42.9862,53.3623
2026-07-21T15:55:37.998,5.23,43.0646,53.3427
2026-07-21T15:55:37.998,5.23,43.2604,53.6951
2026-07-21T15:55:38.013,5.23,43.5345,54.028
2026-07-21T15:55:38.029,5.2456,43.7499,54.2434
2026-07-21T15:55:38.034,5.2616,43.8086,54.2826
2026-07-21T15:55:38.045,5.2616,43.6716,54.1063
2026-07-21T15:55:38.045,5.2774,43.4366,53.9497
2026-07-21T15:55:38.072,5.2937,43.2604,53.8322
2026-07-21T15:55:38.076,5.3094,43.4562,53.9105
2026-07-21T15:55:38.076,5.3106,43.8478,54.2238
2026-07-21T15:55:38.098,5.3106,43.9653,54.498
2026-07-21T15:55:38.108,5.3253,43.9653,54.5763
2026-07-21T15:55:38.122,5.3417,43.8674,54.2434
2026-07-21T15:55:38.125,5.3464,43.652,53.9889
2026-07-21T15:55:38.140,5.3732,43.6911,53.9497
2026-07-21T15:55:38.140,5.3732,43.789,53.9301
2026-07-21T15:55:38.161,5.3732,43.7303,53.9889
2026-07-21T15:55:38.172,5.4033,43.5541,53.9497
2026-07-21T15:55:38.184,5.4038,42.9666,53.5385
2026-07-21T15:55:38.188,5.407,41.968,52.442
2026-07-21T15:55:38.206,5.4286,40.147,50.7189
2026-07-21T15:55:38.206,5.4286,36.9945,47.5272
2026-07-21T15:55:38.218,5.436,31.5511,41.653
2026-07-21T15:55:38.235,5.4674,23.8558,34.4473
2026-07-21T15:55:38.243,5.4835,16.1214,27.0261
2026-07-21T15:55:38.251,5.4835,9.6206,19.84
2026-07-21T15:55:38.266,5.4835,3.8443,13.0063
2026-07-21T15:55:38.266,5.521,-1.0705,7.837
2026-07-21T15:55:38.282,5.5315,-3.2635,4.4887
2026-07-21T15:55:38.282,5.5315,-3.1656,2.7068
2026-07-21T15:55:38.298,5.5475,-2.6369,0.8075
2026-07-21T15:55:38.298,5.5475,-2.2257,0.0243
2026-07-21T15:55:38.330,5.5836,-1.9908,-0.3673
2026-07-21T15:55:38.330,5.5836,-1.8537,-0.524
2026-07-21T15:55:38.346,5.5989,-1.6775,-0.4848
2026-07-21T15:55:38.362,5.6007,-1.6383,-0.7198
2026-07-21T15:55:38.362,5.6031,-1.4817,-0.6023
2026-07-21T15:55:38.362,5.61,-1.2271,-0.5044
2026-07-21T15:55:38.378,5.6277,-0.9922,-0.289
2026-07-21T15:55:38.394,5.6277,-0.7376,-0.1715
2026-07-21T15:55:38.398,5.6277,-0.4047,-0.0932
2026-07-21T15:55:38.415,5.643,-0.0719,-0.054
2026-07-21T15:55:38.421,5.643,0.1631,-0.054
2026-07-21T15:55:38.428,5.6639,0.0456,0.1026
2026-07-21T15:55:38.442,5.6751,0.1435,0.0243
2026-07-21T15:55:38.442,5.6751,0.0652,0.0243
2026-07-21T15:55:38.458,5.6751,0.1239,0.083
2026-07-21T15:55:38.466,5.6751,0.1631,0.0634
2026-07-21T15:55:38.479,5.6926,0.0652,0.0439
2026-07-21T15:55:38.479,5.7064,0.1239,0.0243
2026-07-21T15:55:38.507,5.7382,0.1044,0.0047
2026-07-21T15:55:38.521,5.7382,0.1239,0.0634
2026-07-21T15:55:38.521,5.7382,0.1239,0.0243
2026-07-21T15:55:38.541,5.7539,0.1239,0.0439
2026-07-21T15:55:38.553,5.7698,0.1239,0.0439
2026-07-21T15:55:38.553,5.7698,0.1631,0.0047
2026-07-21T15:55:38.553,5.7698,0.1827,0.1418
2026-07-21T15:55:38.569,5.791,0.1435,0.0634
2026-07-21T15:55:38.569,5.791,0.261,0.0243
2026-07-21T15:55:38.584,5.8219,0.1435,-0.0345
2026-07-21T15:55:38.599,5.8219,0.1239,0.0439
2026-07-21T15:55:38.606,5.8219,0.0652,0.0634
2026-07-21T15:55:38.616,5.8517,0.1044,0.0439
2026-07-21T15:55:38.634,5.8537,0.1631,0.1418
2026-07-21T15:55:38.637,5.8557,0.0652,0.1809
2026-07-21T15:55:38.664,5.882,0.1044,0.2201
2026-07-21T15:55:38.665,5.884,0.3981,0.1613
2026-07-21T15:55:38.666,5.884,0.1044,0.318
2026-07-21T15:55:38.684,5.9097,0.0848,0.1809
2026-07-21T15:55:38.684,5.9117,0.1044,0.1026
2026-07-21T15:55:38.699,5.9132,0.0652,0.083
2026-07-21T15:55:38.706,5.94,0.0848,0.0243
2026-07-21T15:55:38.722,5.942,0.1435,0.0634
2026-07-21T15:55:38.730,5.945,0.1044,0.0439
2026-07-21T15:55:38.747,5.962,0.0652,0.1418
2026-07-21T15:55:38.750,5.962,0.0848,0.083
2026-07-21T15:55:38.759,5.962,0.1239,0.083
2026-07-21T15:55:38.777,6.0004,0.1044,0.0634
2026-07-21T15:55:38.777,6.0024,0.1239,0.083
2026-07-21T15:55:38.777,6.0044,0.1044,0.0243
2026-07-21T15:55:38.811,6.024,0.1435,0.0634
2026-07-21T15:55:38.811,6.024,0.1435,0.1222
2026-07-21T15:55:38.819,6.024,0.1631,0.0439
2026-07-21T15:55:38.823,6.063,0.1631,0.0634
2026-07-21T15:55:38.839,6.063,0.1827,0.0634
2026-07-21T15:55:38.839,6.063,0.1435,0.1809
2026-07-21T15:55:38.855,6.0874,0.1044,0.0439
2026-07-21T15:55:38.870,6.0874,0.1827,0.0439
2026-07-21T15:55:38.878,6.1049,0.0652,0.083
2026-07-21T15:55:38.888,6.1243,0.1239,0.0634
2026-07-21T15:55:38.902,6.1243,0.1239,0.1613
2026-07-21T15:55:38.902,6.1349,0.1239,0.083
2026-07-21T15:55:38.918,6.1385,0.1239,0.0634
2026-07-21T15:55:38.939,6.1659,0.1827,0.083
2026-07-21T15:55:38.950,6.1659,0.2219,0.0634
2026-07-21T15:55:38.951,6.168,0.1044,-0.0149
2026-07-21T15:55:38.957,6.1979,0.1435,0.0243
2026-07-21T15:55:38.977,6.1979,0.0652,0.1026
2026-07-21T15:55:38.979,6.1979,0.2023,0.0634
2026-07-21T15:55:38.987,6.2297,0.1435,0.1026
2026-07-21T15:55:39.002,6.2297,0.1827,0.0243
2026-07-21T15:55:39.002,6.2297,0.1435,0.083
2026-07-21T15:55:39.019,6.2297,0.1435,0.0243
2026-07-21T15:55:39.029,6.2613,0.1827,0.083
2026-07-21T15:55:39.042,6.2613,0.1239,0.1026
2026-07-21T15:55:39.044,6.2613,0.1435,0.1418
2026-07-21T15:55:39.060,6.2966,0.1435,0.0634
2026-07-21T15:55:39.076,6.2986,0.261,0.1026
2026-07-21T15:55:39.076,6.2986,0.1827,0.1026
2026-07-21T15:55:39.093,6.3255,0.1435,0.1222
2026-07-21T15:55:39.109,6.3255,0.1435,0.083
2026-07-21T15:55:39.109,6.3255,0.1239,0.1026
2026-07-21T15:55:39.117,6.3605,0.1435,0.1026
2026-07-21T15:55:39.139,6.3605,0.0848,0.1026
2026-07-21T15:55:39.140,6.3605,0.1435,0.0634
2026-07-21T15:55:39.150,6.3886,0.1239,0.083
2026-07-21T15:55:39.173,6.3886,0.1044,0.1809
2026-07-21T15:55:39.173,6.3886,0.1435,0.1222
2026-07-21T15:55:39.175,6.3886,0.0652,0.0634
2026-07-21T15:55:39.188,6.4242,0.1239,0.0634
2026-07-21T15:55:39.203,6.4242,0.0848,0.0243
2026-07-21T15:55:39.203,6.4242,0.261,0.0439
2026-07-21T15:55:39.219,6.4522,0.1435,0.0047
2026-07-21T15:55:39.219,6.4522,0.1239,0.0047
2026-07-21T15:55:39.239,6.4522,0.0848,0.0634
2026-07-21T15:55:39.251,6.468,0.1435,0.1418
2026-07-21T15:55:39.260,6.468,0.1435,0.0634
2026-07-21T15:55:39.267,6.4839,0.2219,0.0634
2026-07-21T15:55:39.283,6.4996,0.0848,0.083
2026-07-21T15:55:39.283,6.4996,0.1435,0.0439
2026-07-21T15:55:39.299,6.4996,0.0652,0.0439
2026-07-21T15:55:39.314,6.5375,0.1044,0.0439
2026-07-21T15:55:39.314,6.5375,0.1631,0.083
2026-07-21T15:55:39.330,6.563,0.1044,0.0634
2026-07-21T15:55:39.347,6.563,0.1631,0.0243
2026-07-21T15:55:39.347,6.563,0.1435,0.1222
2026-07-21T15:55:39.352,6.5945,0.1044,0.0439
2026-07-21T15:55:39.362,6.5945,0.1435,0.0439
2026-07-21T15:55:39.378,6.5945,0.1239,0.1026
2026-07-21T15:55:39.393,6.6249,0.1239,0.0439
2026-07-21T15:55:39.399,6.626,0.1435,0.0243
2026-07-21T15:55:39.409,6.626,0.2023,0.0243
2026-07-21T15:55:39.409,6.6419,0.1044,0.0439
2026-07-21T15:55:39.425,6.6419,0.2023,0.0243
2026-07-21T15:55:39.425,6.6419,0.1435,0.1613
2026-07-21T15:55:39.441,6.6767,0.1239,0.0634
2026-07-21T15:55:39.457,6.685,0.1239,0.0634
2026-07-21T15:55:39.472,6.685,0.1239,0.083
2026-07-21T15:55:39.472,6.7092,0.1239,0.1613
2026-07-21T15:55:39.491,6.7092,0.1827,0.0634
2026-07-21T15:55:39.500,6.7092,0.1239,0.0243
2026-07-21T15:55:39.514,6.7428,0.1044,0.0047
2026-07-21T15:55:39.522,6.744,0.3002,0.0243
2026-07-21T15:55:39.524,6.744,0.1239,0.1026
2026-07-21T15:55:39.542,6.7684,0.1435,0.0047
2026-07-21T15:55:39.555,6.7684,0.1631,0.0634
2026-07-21T15:55:39.559,6.7684,0.2023,0.0243
2026-07-21T15:55:39.567,6.7998,0.261,0.0634
2026-07-21T15:55:39.583,6.7998,0.1239,0.0439
2026-07-21T15:55:39.583,6.7998,0.1435,0.1026
2026-07-21T15:55:39.600,6.8313,0.1435,0.0243
2026-07-21T15:55:39.614,6.8313,0.1239,0.0439
2026-07-21T15:55:39.614,6.8313,0.1239,0.0047
2026-07-21T15:55:39.630,6.8628,0.1435,0.0243
2026-07-21T15:55:39.646,6.8628,0.1435,0.0439
2026-07-21T15:55:39.646,6.8628,0.1239,0.0439
2026-07-21T15:55:39.677,6.8968,0.1239,0.0634
2026-07-21T15:55:39.677,6.8968,0.1239,0.0634
2026-07-21T15:55:39.677,6.8968,0.0848,0.0439
2026-07-21T15:55:39.693,6.9221,0.1239,0.0634
2026-07-21T15:55:39.700,6.9264,0.1435,0.083
2026-07-21T15:55:39.709,6.9264,0.1044,0.0243
2026-07-21T15:55:39.726,6.9423,0.0652,0.0439
2026-07-21T15:55:39.737,6.9423,0.1239,0.0439
2026-07-21T15:55:39.741,6.958,0.1435,0.083
2026-07-21T15:55:39.741,6.974,0.1631,0.1613
2026-07-21T15:55:39.757,6.9855,0.1827,0.0634
2026-07-21T15:55:39.757,6.9855,0.2023,0.0634
2026-07-21T15:55:39.789,7.0054,0.1239,0.0439
2026-07-21T15:55:39.789,7.0054,0.1631,0.083
2026-07-21T15:55:39.789,7.0054,0.1435,0.1026
2026-07-21T15:55:39.804,7.0378,0.1044,0.0634
2026-07-21T15:55:39.820,7.0378,0.1044,0.0634
2026-07-21T15:55:39.820,7.0378,0.1435,0.0439
2026-07-21T15:55:39.842,7.073,0.1239,0.0634
2026-07-21T15:55:39.852,7.073,0.0848,0.0634
2026-07-21T15:55:39.852,7.073,0.1044,0.1222
2026-07-21T15:55:39.868,7.1033,0.1239,0.0047
2026-07-21T15:55:39.883,7.1033,0.1435,0.1026
2026-07-21T15:55:39.888,7.1033,0.1239,0.0243
2026-07-21T15:55:39.900,7.1357,0.1435,0.083
2026-07-21T15:55:39.917,7.1367,0.1239,0.0634
2026-07-21T15:55:39.918,7.1379,0.1239,0.1026
2026-07-21T15:55:39.931,7.1632,0.1435,0.0243
2026-07-21T15:55:39.947,7.1632,0.1631,0.083
2026-07-21T15:55:39.950,7.1632,0.1435,0.083
2026-07-21T15:55:39.953,7.1959,0.1435,0.1026
2026-07-21T15:55:39.978,7.2016,0.1827,0.1222
2026-07-21T15:55:39.978,7.2016,0.1239,0.083
2026-07-21T15:55:39.978,7.2275,0.2023,0.1222
2026-07-21T15:55:39.995,7.2275,0.1631,0.0439
2026-07-21T15:55:40.010,7.2275,0.1435,0.0634
2026-07-21T15:55:40.016,7.2275,0.2023,0.0439
2026-07-21T15:55:40.042,7.2619,0.1239,0.1222
2026-07-21T15:55:40.042,7.2619,0.2023,0.1222
2026-07-21T15:55:40.042,7.2619,0.1044,0.0439
2026-07-21T15:55:40.074,7.2907,0.0848,0.0047
2026-07-21T15:55:40.074,7.2907,0.1239,0.0439
2026-07-21T15:55:40.076,7.2907,0.0456,0.1026
2026-07-21T15:55:40.090,7.3226,0.1435,0.0439
2026-07-21T15:55:40.101,7.3233,0.0848,0.0634
2026-07-21T15:55:40.105,7.3233,0.1435,0.0439
2026-07-21T15:55:40.122,7.3391,0.2219,0.1026
2026-07-21T15:55:40.122,7.3391,0.1435,0.0634
2026-07-21T15:55:40.138,7.3391,0.1239,0.0634
2026-07-21T15:55:40.154,7.3707,0.1435,0.083
2026-07-21T15:55:40.154,7.3707,0.1631,0.1026
2026-07-21T15:55:40.170,7.3821,0.1435,0.0439
2026-07-21T15:55:40.170,7.4034,0.1044,0.0634
2026-07-21T15:55:40.185,7.4034,0.1631,0.0439
2026-07-21T15:55:40.197,7.4034,0.1044,0.1026
2026-07-21T15:55:40.218,7.4336,0.1044,0.083
2026-07-21T15:55:40.218,7.4336,0.0456,0.0243
2026-07-21T15:55:40.218,7.4495,0.1631,0.0047
2026-07-21T15:55:40.243,7.4495,0.1044,0.0634
2026-07-21T15:55:40.248,7.4495,0.1239,0.1418
2026-07-21T15:55:40.264,7.4865,0.1827,0.0634
2026-07-21T15:55:40.264,7.4865,0.2023,0.1809
2026-07-21T15:55:40.280,7.4865,0.1044,0.0439
2026-07-21T15:55:40.280,7.5126,0.1631,0.1222
2026-07-21T15:55:40.301,7.5126,0.1239,0.083
2026-07-21T15:55:40.301,7.5445,0.1239,0.0634
2026-07-21T15:55:40.327,7.5445,0.1239,0.1026
2026-07-21T15:55:40.327,7.5445,0.1435,0.1026
2026-07-21T15:55:40.327,7.5605,0.1435,0.0634
2026-07-21T15:55:40.344,7.5605,0.1239,0.1613
2026-07-21T15:55:40.359,7.5605,0.1631,0.1222
2026-07-21T15:55:40.375,7.5923,0.0652,0.0634
2026-07-21T15:55:40.375,7.5923,0.1239,0.1222
2026-07-21T15:55:40.392,7.5923,0.1435,0.1418
2026-07-21T15:55:40.401,7.6292,0.2023,0.0634
2026-07-21T15:55:40.407,7.6292,0.0848,0.083
2026-07-21T15:55:40.422,7.6292,0.1239,0.0634
2026-07-21T15:55:40.439,7.6554,0.1827,0.0439
2026-07-21T15:55:40.439,7.6554,0.0848,0.083
2026-07-21T15:55:40.444,7.6554,0.1239,0.1222
2026-07-21T15:55:40.470,7.6716,0.1044,0.0634
2026-07-21T15:55:40.470,7.6716,0.2023,0.0439
2026-07-21T15:55:40.470,7.703,0.1044,0.0634
2026-07-21T15:55:40.486,7.703,0.1435,0.0634
2026-07-21T15:55:40.486,7.703,0.0848,0.0634
2026-07-21T15:55:40.501,7.7416,0.0848,0.0634
2026-07-21T15:55:40.518,7.7436,0.1435,0.0047
2026-07-21T15:55:40.518,7.7436,0.0848,0.0634
2026-07-21T15:55:40.534,7.7708,0.1435,0.083
2026-07-21T15:55:40.551,7.7728,0.1044,0.083
2026-07-21T15:55:40.558,7.7728,0.1631,0.0243
2026-07-21T15:55:40.583,7.7996,0.0848,0.0634
2026-07-21T15:55:40.583,7.7996,0.0848,0.0439
2026-07-21T15:55:40.587,7.7996,0.1435,0.0634
2026-07-21T15:55:40.602,7.8301,0.1239,0.083
2026-07-21T15:55:40.602,7.8301,0.1239,0.1026
2026-07-21T15:55:40.614,7.8301,0.1631,0.0634
2026-07-21T15:55:40.629,7.8562,0.1631,0.083
2026-07-21T15:55:40.629,7.8562,0.1044,0.0243
2026-07-21T15:55:40.645,7.8621,0.0848,0.1418
2026-07-21T15:55:40.670,7.8875,0.1044,0.0634
2026-07-21T15:55:40.671,7.8875,0.1044,0.083
2026-07-21T15:55:40.677,7.8935,0.1435,0.083
2026-07-21T15:55:40.694,7.9092,0.1239,0.083
2026-07-21T15:55:40.702,7.9092,0.1239,0.0634
2026-07-21T15:55:40.724,7.9409,0.1044,0.1026
2026-07-21T15:55:40.724,7.9409,0.1044,0.2005
2026-07-21T15:55:40.724,7.9409,0.1631,0.0439
2026-07-21T15:55:40.742,7.974,0.1044,0.1418
2026-07-21T15:55:40.755,7.974,0.1239,0.0634
2026-07-21T15:55:40.755,7.974,0.1239,0.1222
2026-07-21T15:55:40.771,7.9886,0.1239,0.0047
2026-07-21T15:55:40.789,8.0053,0.2219,0.1026
2026-07-21T15:55:40.789,8.0053,0.2023,0.083
2026-07-21T15:55:40.803,8.0307,0.1239,0.083
2026-07-21T15:55:40.803,8.0361,0.1435,0.2592
2026-07-21T15:55:40.820,8.0361,0.2023,0.0439
2026-07-21T15:55:40.845,8.0541,0.1239,0.0243
2026-07-21T15:55:40.845,8.0541,0.1239,0.0243
2026-07-21T15:55:40.851,8.0679,0.1435,0.1418
2026-07-21T15:55:40.851,8.0921,0.1827,0.083
2026-07-21T15:55:40.869,8.0921,0.1435,0.083
2026-07-21T15:55:40.882,8.0921,0.1435,0.1026
2026-07-21T15:55:40.901,8.1167,0.1239,0.1026
2026-07-21T15:55:40.901,8.1167,0.1631,0.0243
2026-07-21T15:55:40.912,8.1167,0.1435,0.0634
2026-07-21T15:55:40.931,8.1488,0.1239,0.083
2026-07-21T15:55:40.931,8.1488,0.1435,0.0634
2026-07-21T15:55:40.948,8.1643,0.0848,0.1222
2026-07-21T15:55:40.950,8.1643,0.1435,0.083
2026-07-21T15:55:40.950,8.1643,0.1631,0.083
2026-07-21T15:55:40.970,8.1953,0.1435,0.0634
2026-07-21T15:55:40.979,8.1953,0.2023,0.083
2026-07-21T15:55:40.979,8.1953,0.1239,0.0634
2026-07-21T15:55:41.010,8.234,0.1435,0.1026
2026-07-21T15:55:41.010,8.234,0.1435,0.1222
2026-07-21T15:55:41.010,8.236,0.1435,0.083
2026-07-21T15:55:41.041,8.2577,0.1239,0.083
2026-07-21T15:55:41.041,8.2577,0.1435,0.1026
2026-07-21T15:55:41.053,8.2577,0.2023,0.083
2026-07-21T15:55:41.058,8.2926,0.1435,0.0439
2026-07-21T15:55:41.072,8.2926,0.1044,0.0439
2026-07-21T15:55:41.072,8.2966,0.1044,0.0634
2026-07-21T15:55:41.105,8.3205,0.1044,0.083
2026-07-21T15:55:41.105,8.3205,0.1239,0.083
2026-07-21T15:55:41.109,8.3205,0.1631,0.0634
2026-07-21T15:55:41.134,8.3523,0.1435,0.1418
2026-07-21T15:55:41.135,8.3523,0.2023,0.0243
2026-07-21T15:55:41.135,8.3523,0.1435,0.1222
2026-07-21T15:55:41.155,8.3839,0.1239,0.083
2026-07-21T15:55:41.155,8.3849,0.1631,0.1222
2026-07-21T15:55:41.167,8.3849,0.1827,0.083
2026-07-21T15:55:41.183,8.414,0.1435,0.1418
2026-07-21T15:55:41.183,8.4146,0.1239,0.083
2026-07-21T15:55:41.200,8.4182,0.1435,0.083
2026-07-21T15:55:41.203,8.4442,0.1435,0.1809
2026-07-21T15:55:41.225,8.4479,0.1435,0.1222
2026-07-21T15:55:41.233,8.4532,0.1827,0.1222
2026-07-21T15:55:41.233,8.4777,0.1631,0.083
2026-07-21T15:55:41.259,8.4797,0.2023,0.0634
2026-07-21T15:55:41.266,8.4797,0.1631,0.0243
2026-07-21T15:55:41.270,8.4959,0.1435,0.1026
2026-07-21T15:55:41.279,8.5119,0.1827,0.1222
2026-07-21T15:55:41.279,8.5119,0.1827,0.1026
2026-07-21T15:55:41.294,8.5119,0.2219,0.1222
2026-07-21T15:55:41.311,8.5438,0.1631,0.1418
2026-07-21T15:55:41.311,8.5438,0.1827,0.1613
2026-07-21T15:55:41.327,8.5438,0.2219,0.1026
2026-07-21T15:55:41.358,8.5763,0.1435,0.1418
2026-07-21T15:55:41.358,8.5763,0.1631,0.083
2026-07-21T15:55:41.358,8.5763,0.2023,0.1613
2026-07-21T15:55:41.374,8.5919,0.1827,0.1613
2026-07-21T15:55:41.388,8.5919,0.2023,0.2201
2026-07-21T15:55:41.391,8.6077,0.2023,0.1418
2026-07-21T15:55:41.407,8.6339,0.2023,0.1613
2026-07-21T15:55:41.407,8.6339,0.1827,0.1222
2026-07-21T15:55:41.422,8.6339,0.1827,0.1222
2026-07-21T15:55:41.430,8.6565,0.1435,0.1026
2026-07-21T15:55:41.449,8.6565,0.1631,0.1418
2026-07-21T15:55:41.449,8.6565,0.2023,0.1809
2026-07-21T15:55:41.456,8.6918,0.2219,0.1418
2026-07-21T15:55:41.471,8.6918,0.2414,0.1809
2026-07-21T15:55:41.471,8.6997,0.2219,0.1809
2026-07-21T15:55:41.505,8.7262,0.1827,0.1418
2026-07-21T15:55:41.506,8.7262,0.2219,0.1613
2026-07-21T15:55:41.506,8.7262,0.2023,0.2005
2026-07-21T15:55:41.522,8.7502,0.2414,0.1222
2026-07-21T15:55:41.534,8.7502,0.2414,0.1418
2026-07-21T15:55:41.541,8.7502,0.2219,0.1418
2026-07-21T15:55:41.565,8.782,0.1827,0.083
2026-07-21T15:55:41.565,8.782,0.1631,0.1418
2026-07-21T15:55:41.565,8.7889,0.2023,0.2201
2026-07-21T15:55:41.581,8.8139,0.2219,0.2005
2026-07-21T15:55:41.581,8.8139,0.1827,0.1418
2026-07-21T15:55:41.597,8.8139,0.2414,0.1026
2026-07-21T15:55:41.613,8.8348,0.1239,0.1026
2026-07-21T15:55:41.613,8.8348,0.2219,0.1418
2026-07-21T15:55:41.629,8.8458,0.2023,0.2005
2026-07-21T15:55:41.629,8.8718,0.2023,0.1222
2026-07-21T15:55:41.649,8.8718,0.2023,0.1613
2026-07-21T15:55:41.660,8.8776,0.2414,0.1418
2026-07-21T15:55:41.676,8.8933,0.2219,0.1613
2026-07-21T15:55:41.676,8.8933,0.2414,0.083
2026-07-21T15:55:41.692,8.8933,0.2023,0.2397
2026-07-21T15:55:41.704,8.9269,0.2219,0.1026
2026-07-21T15:55:41.708,8.9353,0.2414,0.1809
2026-07-21T15:55:41.708,8.9353,0.1827,0.1809
2026-07-21T15:55:41.724,8.9569,0.2219,0.1809
2026-07-21T15:55:41.742,8.9569,0.1827,0.1026
2026-07-21T15:55:41.750,8.9569,0.1827,0.083
2026-07-21T15:55:41.771,8.9893,0.1631,0.1026
2026-07-21T15:55:41.771,8.9893,0.1435,0.1026
2026-07-21T15:55:41.771,8.9893,0.1631,0.083
2026-07-21T15:55:41.787,9.0197,0.1827,0.083
2026-07-21T15:55:41.804,9.0197,0.1827,0.1026
2026-07-21T15:55:41.804,9.0197,0.1239,0.083
2026-07-21T15:55:41.819,9.0516,0.1631,0.1418
2026-07-21T15:55:41.834,9.0516,0.1631,0.1026
2026-07-21T15:55:41.834,9.0516,0.2023,0.1026
2026-07-21T15:55:41.865,9.0833,0.1631,0.1222
2026-07-21T15:55:41.865,9.0833,0.1827,0.1026
2026-07-21T15:55:41.866,9.0833,0.2023,0.0634
2026-07-21T15:55:41.882,9.0992,0.2023,0.1222
2026-07-21T15:55:41.882,9.0992,0.2414,0.1418
2026-07-21T15:55:41.898,9.1151,0.1631,0.083
2026-07-21T15:55:41.904,9.1362,0.1631,0.0439
2026-07-21T15:55:41.914,9.1472,0.2023,0.083
2026-07-21T15:55:41.930,9.1485,0.1239,0.1222
2026-07-21T15:55:41.951,9.1724,0.2023,0.1026
2026-07-21T15:55:41.951,9.1724,0.1827,0.1222
2026-07-21T15:55:41.963,9.1791,0.1631,0.1026
2026-07-21T15:55:41.987,9.1958,0.1435,0.1418
2026-07-21T15:55:41.987,9.1958,0.261,0.1418
2026-07-21T15:55:41.987,9.1958,0.1827,0.1809
2026-07-21T15:55:42.010,9.2271,0.1631,0.1613
2026-07-21T15:55:42.010,9.2271,0.1631,0.1418
2026-07-21T15:55:42.010,9.2366,0.2219,0.1026
2026-07-21T15:55:42.042,9.2585,0.2219,0.083
2026-07-21T15:55:42.042,9.2585,0.1631,0.1613
2026-07-21T15:55:42.051,9.2585,0.2414,0.1222
2026-07-21T15:55:42.073,9.2906,0.1631,0.1026
2026-07-21T15:55:42.073,9.2906,0.2023,0.083
2026-07-21T15:55:42.073,9.2906,0.1239,0.1613
2026-07-21T15:55:42.090,9.3239,0.2414,0.1418
2026-07-21T15:55:42.104,9.3239,0.1827,0.0243
2026-07-21T15:55:42.105,9.3289,0.2023,0.1222
2026-07-21T15:55:42.122,9.3545,0.2023,0.083
2026-07-21T15:55:42.122,9.3556,0.1435,0.1026
2026-07-21T15:55:42.139,9.3562,0.1827,0.1222
2026-07-21T15:55:42.154,9.3764,0.2023,0.1418
2026-07-21T15:55:42.154,9.3764,0.2219,0.2005
2026-07-21T15:55:42.171,9.3863,0.1631,0.1222
2026-07-21T15:55:42.191,9.4101,0.2023,0.2005
2026-07-21T15:55:42.191,9.4101,0.2219,0.1026
2026-07-21T15:55:42.201,9.4199,0.261,0.1222
2026-07-21T15:55:42.212,9.4374,0.1827,0.1026
2026-07-21T15:55:42.225,9.4374,0.1239,0.083
2026-07-21T15:55:42.235,9.4497,0.1827,0.1026
2026-07-21T15:55:42.252,9.4771,0.2023,0.083
2026-07-21T15:55:42.252,9.4791,0.1435,0.1026
2026-07-21T15:55:42.252,9.4811,0.1435,0.1222
2026-07-21T15:55:42.264,9.5104,0.1239,0.1222
2026-07-21T15:55:42.290,9.5104,0.1631,0.0634
2026-07-21T15:55:42.292,9.5129,0.1435,0.1222
2026-07-21T15:55:42.296,9.5377,0.1631,0.083
2026-07-21T15:55:42.320,9.5448,0.1631,-0.0345
2026-07-21T15:55:42.320,9.5448,0.1827,0.1418
2026-07-21T15:55:42.334,9.5762,0.1631,0.1026
2026-07-21T15:55:42.352,9.5762,0.1435,0.1222
2026-07-21T15:55:42.352,9.5762,0.1239,0.1026
2026-07-21T15:55:42.359,9.5762,0.1631,0.1809
2026-07-21T15:55:42.375,9.6078,0.1435,0.083
2026-07-21T15:55:42.375,9.6078,0.2023,0.1418
2026-07-21T15:55:42.391,9.613,0.1435,0.083
2026-07-21T15:55:42.407,9.6399,0.2219,0.1222
2026-07-21T15:55:42.407,9.6399,0.1044,0.1222
2026-07-21T15:55:42.422,9.6399,0.1239,0.1026
2026-07-21T15:55:42.428,9.6399,0.1044,0.1418
2026-07-21T15:55:42.439,9.6715,0.1239,0.1026
2026-07-21T15:55:42.454,9.6715,0.2023,0.1613
2026-07-21T15:55:42.454,9.6715,0.1239,0.083
2026-07-21T15:55:42.470,9.7031,0.1435,0.083
2026-07-21T15:55:42.470,9.7031,0.1239,0.083
2026-07-21T15:55:42.486,9.7031,0.1631,0.1418
2026-07-21T15:55:42.505,9.719,0.0652,0.1418
2026-07-21T15:55:42.505,9.719,0.1435,0.1026
2026-07-21T15:55:42.518,9.7347,0.1044,0.083
2026-07-21T15:55:42.534,9.7565,0.1631,0.083
2026-07-21T15:55:42.534,9.7565,0.1631,0.083
2026-07-21T15:55:42.549,9.7662,0.0848,0.1809
2026-07-21T15:55:42.571,9.7904,0.2219,0.1418
2026-07-21T15:55:42.571,9.7904,0.0848,0.1026
2026-07-21T15:55:42.581,9.798,0.1435,0.1222
2026-07-21T15:55:42.598,9.8137,0.1435,0.0243
2026-07-21T15:55:42.598,9.8137,0.1239,0.1222
2026-07-21T15:55:42.605,9.8295,0.1631,0.083
2026-07-21T15:55:42.613,9.8456,0.1044,0.1026
2026-07-21T15:55:42.628,9.8456,0.0652,0.1418
2026-07-21T15:55:42.628,9.8456,0.1044,0.1026
2026-07-21T15:55:42.655,9.8905,0.0848,0.1613
2026-07-21T15:55:42.660,9.8905,0.1044,0.0634
2026-07-21T15:55:42.660,9.8925,0.0456,0.1026
2026-07-21T15:55:42.682,9.8981,0.1435,0.1026
2026-07-21T15:55:42.689,9.9242,0.2023,0.1418
2026-07-21T15:55:42.701,9.9242,0.0848,0.1026
2026-07-21T15:55:42.707,9.9242,0.1044,0.1809
2026-07-21T15:55:42.723,9.9562,0.1239,0.1613
2026-07-21T15:55:42.723,9.9598,0.2023,0.083
2026-07-21T15:55:42.739,9.9598,0.1044,0.0634
2026-07-21T15:55:42.755,9.988,0.0848,0.083
2026-07-21T15:55:42.755,9.9908,0.1239,0.1222
2026-07-21T15:55:42.771,9.9908,0.1044,0.1026
2026-07-21T15:55:42.774,9.9908,0.1435,0.1418
2026-07-21T15:55:42.800,10.0204,0.0848,0.1026
2026-07-21T15:55:42.805,10.0204,0.1631,0.1418
2026-07-21T15:55:42.805,10.0204,0.1044,0.0634
2026-07-21T15:55:42.818,10.0509,0.1631,0.1809
2026-07-21T15:55:42.835,10.0509,0.1239,0.1222
2026-07-21T15:55:42.835,10.0509,0.1435,0.1809
2026-07-21T15:55:42.850,10.0668,0.1239,0.1418
2026-07-21T15:55:42.865,10.0826,0.1827,0.1418
2026-07-21T15:55:42.865,10.0826,0.1827,0.1222
2026-07-21T15:55:42.881,10.1089,0.1239,0.1222
2026-07-21T15:55:42.881,10.1144,0.2219,0.1418
2026-07-21T15:55:42.897,10.1167,0.1239,0.1418
2026-07-21T15:55:42.924,10.1404,0.1239,0.1222
2026-07-21T15:55:42.924,10.1404,0.1631,0.1222
2026-07-21T15:55:42.931,10.1462,0.1435,0.1418
2026-07-21T15:55:42.945,10.162,0.1044,0.1418
2026-07-21T15:55:42.955,10.162,0.1631,0.1222
2026-07-21T15:55:42.961,10.178,0.2219,0.2005
2026-07-21T15:55:42.961,10.2008,0.1827,0.1222
2026-07-21T15:55:42.977,10.2008,0.1631,0.1809
2026-07-21T15:55:42.993,10.2097,0.1044,0.1026
2026-07-21T15:55:42.993,10.228,0.1435,0.1222
2026-07-21T15:55:43.015,10.228,0.0848,0.1418
2026-07-21T15:55:43.024,10.228,0.1239,0.1418
2026-07-21T15:55:43.024,10.2578,0.1044,0.1613
2026-07-21T15:55:43.043,10.2578,0.1435,0.1613
2026-07-21T15:55:43.043,10.2578,0.1827,0.2788
2026-07-21T15:55:43.072,10.2912,0.1239,0.1222
2026-07-21T15:55:43.072,10.2912,0.1827,0.1613
2026-07-21T15:55:43.072,10.2912,0.1239,0.1809
2026-07-21T15:55:43.104,10.3205,0.1435,0.2005
2026-07-21T15:55:43.104,10.3205,0.2219,0.1222
2026-07-21T15:55:43.106,10.3205,0.2023,0.1026
2026-07-21T15:55:43.121,10.3523,0.1631,0.2201
2026-07-21T15:55:43.121,10.3523,0.1239,0.1613
2026-07-21T15:55:43.135,10.3523,0.1435,0.1809
2026-07-21T15:55:43.162,10.3691,0.1631,0.2201
2026-07-21T15:55:43.162,10.3691,0.1827,0.1026
2026-07-21T15:55:43.167,10.3839,0.1044,0.1418
2026-07-21T15:55:43.183,10.4118,0.1435,0.1418
2026-07-21T15:55:43.184,10.4153,0.1827,0.1613
2026-07-21T15:55:43.199,10.4163,0.1239,0.1222
2026-07-21T15:55:43.218,10.4481,0.0456,0.2005
2026-07-21T15:55:43.224,10.4481,1.24,0.4551
2026-07-21T15:55:43.231,10.4763,5.2149,2.5306
2026-07-21T15:55:43.246,10.5104,12.0682,6.3293
2026-07-21T15:55:43.255,10.5104,20.0572,10.6175
2026-07-21T15:55:43.263,10.5325,27.302,15.4343
2026-07-21T15:55:43.280,10.5424,32.8826,19.7225
2026-07-21T15:55:43.291,10.5424,37.2882,22.875
2026-07-21T15:55:43.293,10.5424,40.8323,25.1268
2026-07-21T15:55:43.306,10.5775,43.5737,26.517
2026-07-21T15:55:43.309,10.5913,46.2366,28.3381
2026-07-21T15:55:43.325,10.5913,49.2717,30.4332
2026-07-21T15:55:43.325,10.5913,51.7192,32.6262
2026-07-21T15:55:43.347,10.6065,53.7948,34.9172
2026-07-21T15:55:43.357,10.6065,55.5375,36.4641
2026-07-21T15:55:43.357,10.6065,56.7319,37.3256
2026-07-21T15:55:43.373,10.6224,58.1613,37.9326
2026-07-21T15:55:43.387,10.6415,59.904,38.9117
2026-07-21T15:55:43.392,10.6415,61.2551,39.6557
2026-07-21T15:55:43.405,10.6543,62.195,40.0865
2026-07-21T15:55:43.406,10.6543,62.5082,40.3215
2026-07-21T15:55:43.421,10.6543,62.6845,40.3802
2026-07-21T15:55:43.421,10.6543,63.5656,40.4194
2026-07-21T15:55:43.437,10.6933,64.6034,40.4194
2026-07-21T15:55:43.456,10.6961,65.6412,40.439
2026-07-21T15:55:43.456,10.6969,66.5223,40.439
2026-07-21T15:55:43.469,10.7018,67.4426,40.2823
2026-07-21T15:55:43.469,10.7018,68.5,40.3606
2026-07-21T15:55:43.485,10.7347,69.479,40.576
2026-07-21T15:55:43.504,10.7347,69.9881,40.6739
2026-07-21T15:55:43.516,10.7416,70.3014,40.7131
2026-07-21T15:55:43.516,10.7416,70.7909,40.6935
2026-07-21T15:55:43.533,10.7659,71.2413,40.7523
2026-07-21T15:55:43.533,10.7659,71.7308,41.0068
2026-07-21T15:55:43.549,10.7659,71.8287,41.3005
2026-07-21T15:55:43.556,10.7832,71.672,41.4963
2026-07-21T15:55:43.566,10.806,71.2804,41.8879
2026-07-21T15:55:43.581,10.8128,71.3979,42.5929
2026-07-21T15:55:43.581,10.8128,71.7504,43.3565
2026-07-21T15:55:43.606,10.842,72.1811,43.8852
2026-07-21T15:55:43.618,10.8445,72.142,44.4922
2026-07-21T15:55:43.621,10.8445,72.3182,44.8838
2026-07-21T15:55:43.627,10.8445,72.4749,45.1775
2026-07-21T15:55:43.643,10.8806,72.3378,45.3146
2026-07-21T15:55:43.643,10.8806,71.9658,45.1188
2026-07-21T15:55:43.659,10.8806,71.9266,45.3733
2026-07-21T15:55:43.675,10.918,71.9462,45.902
2026-07-21T15:55:43.677,10.9205,71.9853,46.509
2026-07-21T15:55:43.695,10.9205,71.7308,47.0377
2026-07-21T15:55:43.695,10.9252,71.5937,47.2531
2026-07-21T15:55:43.726,10.9558,71.8091,47.4293
2026-07-21T15:55:43.728,10.9558,71.8874,47.351
2026-07-21T15:55:43.735,10.9558,71.5937,46.9202
2026-07-21T15:55:43.745,10.9644,71.1238,46.4307
2026-07-21T15:55:43.750,10.9925,70.8105,46.2936
2026-07-21T15:55:43.757,10.9925,70.9867,46.6461
2026-07-21T15:55:43.770,10.9925,71.3196,47.2335
2026-07-21T15:55:43.779,11.0029,71.3979,47.6447
2026-07-21T15:55:43.786,11.0361,71.5937,47.9776
2026-07-21T15:55:43.802,11.0361,72.0049,48.1342
2026-07-21T15:55:43.807,11.0428,72.1028,48.0755
2026-07-21T15:55:43.817,11.0503,71.907,47.8797
2026-07-21T15:55:43.834,11.066,71.8874,47.6055
2026-07-21T15:55:43.834,11.066,72.0637,47.5272
2026-07-21T15:55:43.851,11.066,72.0832,47.3901
2026-07-21T15:55:43.857,11.0818,71.9658,47.3314
2026-07-21T15:55:43.881,11.1073,71.9266,47.2139
2026-07-21T15:55:43.881,11.1073,72.0049,47.1552
2026-07-21T15:55:43.881,11.1136,71.7699,46.881
2026-07-21T15:55:43.907,11.1462,71.3,46.5286
2026-07-21T15:55:43.913,11.1462,71.1825,46.4894
2026-07-21T15:55:43.922,11.1462,71.3588,46.274
2026-07-21T15:55:43.928,11.1462,71.907,45.9803
2026-07-21T15:55:43.944,11.1834,72.377,45.8041
2026-07-21T15:55:43.944,11.1834,72.5336,45.8237
2026-07-21T15:55:43.961,11.1834,72.2595,45.6279
2026-07-21T15:55:43.961,11.1934,71.9853,45.3342
2026-07-21T15:55:43.993,11.2121,72.1028,45.1579
2026-07-21T15:55:43.993,11.2121,72.279,45.0796
2026-07-21T15:55:43.998,11.2259,72.4357,44.6293
2026-07-21T15:55:44.008,11.2435,72.6902,44.1985
2026-07-21T15:55:44.027,11.2435,72.8665,43.8852
2026-07-21T15:55:44.027,11.2577,73.0427,43.5131
2026-07-21T15:55:44.042,11.2577,72.7098,43.004
2026-07-21T15:55:44.058,11.2881,72.3182,42.5537
2026-07-21T15:55:44.058,11.2935,72.0441,41.8879
2026-07-21T15:55:44.072,11.2935,71.907,41.3984
2026-07-21T15:55:44.088,11.33,72.1224,40.9089
2026-07-21T15:55:44.103,11.33,72.0637,40.5956
2026-07-21T15:55:44.103,11.33,72.1811,40.3215
2026-07-21T15:55:44.108,11.3369,72.0441,40.204
2026-07-21T15:55:44.119,11.3676,71.7112,40.204
2026-07-21T15:55:44.136,11.3676,71.6525,40.4781
2026-07-21T15:55:44.145,11.3676,71.8091,40.6152
2026-07-21T15:55:44.151,11.3676,71.9462,40.8697
2026-07-21T15:55:44.168,11.4075,71.9658,40.8306
2026-07-21T15:55:44.168,11.4084,72.1616,40.6348
2026-07-21T15:55:44.182,11.4117,72.0637,40.5369
2026-07-21T15:55:44.182,11.4145,71.672,40.2823
2026-07-21T15:55:44.198,11.4306,71.1434,40.3019
2026-07-21T15:55:44.217,11.4306,70.693,40.3411
2026-07-21T15:55:44.222,11.4441,70.5559,40.6348
2026-07-21T15:55:44.240,11.4628,70.5364,40.6544
2026-07-21T15:55:44.245,11.4628,70.5951,40.4977
2026-07-21T15:55:44.245,11.4794,70.6538,40.439
2026-07-21T15:55:44.261,11.4814,70.8105,40.2432
2026-07-21T15:55:44.277,11.5099,70.6147,40.3019
2026-07-21T15:55:44.277,11.5099,70.4189,40.6348
2026-07-21T15:55:44.293,11.5099,70.0664,41.0264
2026-07-21T15:55:44.296,11.5261,70.1252,41.2809
2026-07-21T15:55:44.309,11.5447,70.3014,41.6334
2026-07-21T15:55:44.325,11.5579,70.5168,41.79
2026-07-21T15:55:44.325,11.5579,70.7713,41.8292
2026-07-21T15:55:44.341,11.5738,71.065,41.79
2026-07-21T15:55:44.357,11.5946,70.9476,41.79
2026-07-21T15:55:44.359,11.5946,70.6343,41.8096
2026-07-21T15:55:44.373,11.6057,70.3014,41.7117
2026-07-21T15:55:44.373,11.6057,69.851,41.653
2026-07-21T15:55:44.404,11.6218,69.4594,41.5355
2026-07-21T15:55:44.409,11.6218,69.1853,41.4376
2026-07-21T15:55:44.409,11.6379,69.1657,41.3397
2026-07-21T15:55:44.423,11.6452,69.0874,41.4963
2026-07-21T15:55:44.436,11.67,68.8524,41.5747
2026-07-21T15:55:44.436,11.67,68.872,41.7509
2026-07-21T15:55:44.453,11.67,68.6762,41.8879
2026-07-21T15:55:44.460,11.702,68.2062,41.9467
2026-07-21T15:55:44.468,11.702,67.7755,41.8488
2026-07-21T15:55:44.485,11.702,67.5797,41.6921
2026-07-21T15:55:44.485,11.7181,67.423,41.5942
2026-07-21T15:55:44.501,11.7455,66.9727,41.5551
2026-07-21T15:55:44.517,11.7502,66.816,41.3005
2026-07-21T15:55:44.517,11.7502,66.6789,41.1635
2026-07-21T15:55:44.533,11.7502,66.7181,40.9676
2026-07-21T15:55:44.533,11.7822,66.5223,40.7914
2026-07-21T15:55:44.549,11.7822,66.1894,40.6739
2026-07-21T15:55:44.565,11.7822,65.8174,40.6544
2026-07-21T15:55:44.565,11.795,65.5041,40.7327
2026-07-21T15:55:44.586,11.8151,65.367,40.7718
2026-07-21T15:55:44.586,11.8151,65.23,40.8697
2026-07-21T15:55:44.597,11.8151,65.367,40.811
2026-07-21T15:55:44.613,11.8458,65.4062,40.6544
2026-07-21T15:55:44.630,11.8458,65.4258,40.3998
2026-07-21T15:55:44.630,11.8617,65.0733,40.0474
2026-07-21T15:55:44.644,11.8617,64.8384,39.9299
2026-07-21T15:55:44.644,11.8617,64.7405,39.9494
2026-07-21T15:55:44.660,11.8939,64.76,40.0082
2026-07-21T15:55:44.660,11.895,64.7013,40.1257
2026-07-21T15:55:44.676,11.895,64.5838,40.1453
2026-07-21T15:55:44.692,11.9101,64.5642,40.1453
2026-07-21T15:55:44.692,11.927,64.4467,40.1844
2026-07-21T15:55:44.710,11.9321,64.2705,40.0669
2026-07-21T15:55:44.725,11.9462,64.0943,40.0669
2026-07-21T15:55:44.725,11.9462,64.0747,40.2627
2026-07-21T15:55:44.742,11.9584,64.2118,40.2236
2026-07-21T15:55:44.757,11.9837,64.153,40.1648
2026-07-21T15:55:44.761,11.9879,64.2901,40.2236
2026-07-21T15:55:44.773,11.9921,64.2118,40.1061
2026-07-21T15:55:44.773,12.0058,64.0551,39.9299
2026-07-21T15:55:44.790,12.0219,63.6244,39.5187
2026-07-21T15:55:44.805,12.0219,63.0565,39.0096
2026-07-21T15:55:44.812,12.0465,62.4299,38.618
2026-07-21T15:55:44.820,12.0465,62.1754,38.3242
2026-07-21T15:55:44.820,12.0541,62.4691,38.383
2026-07-21T15:55:44.837,12.0711,62.5082,38.4026
2026-07-21T15:55:44.853,12.0711,62.5278,38.1089
2026-07-21T15:55:44.861,12.0857,62.332,37.8739
2026-07-21T15:55:44.869,12.0867,62.0775,37.541
2026-07-21T15:55:44.886,12.1016,61.8033,37.3452
2026-07-21T15:55:44.886,12.1132,61.725,37.2277
2026-07-21T15:55:44.901,12.1195,61.4509,37.2473
2026-07-21T15:55:44.916,12.1427,61.0789,37.1102
2026-07-21T15:55:44.916,12.1471,60.7264,36.9928
2026-07-21T15:55:44.934,12.1492,60.3935,36.562
2026-07-21T15:55:44.954,12.1653,60.1977,36.1312
2026-07-21T15:55:44.957,12.1811,60.0019,35.8571
2026-07-21T15:55:44.964,12.1811,59.9823,35.7983
2026-07-21T15:55:44.980,12.197,60.1194,35.8767
2026-07-21T15:55:44.980,12.2129,60.3544,36.092
2026-07-21T15:55:44.980,12.2135,60.3544,36.4837
2026-07-21T15:55:45.005,12.2159,60.3152,36.6795
2026-07-21T15:55:45.012,12.2484,60.4131,36.699
2026-07-21T15:55:45.012,12.2507,60.3152,36.6011
2026-07-21T15:55:45.030,12.2529,60.2173,36.6403
2026-07-21T15:55:45.045,12.2776,60.1977,37.0123
2026-07-21T15:55:45.045,12.2776,60.3348,37.2277
2026-07-21T15:55:45.066,12.2776,60.6481,37.5606
2026-07-21T15:55:45.067,12.2931,60.883,37.8739
2026-07-21T15:55:45.092,12.3084,60.6677,37.9914
2026-07-21T15:55:45.092,12.3212,60.3348,37.8935
2026-07-21T15:55:45.092,12.3243,60.0215,37.8739
2026-07-21T15:55:45.110,12.3477,59.8844,37.9326
2026-07-21T15:55:45.123,12.3477,60.0019,37.9522
2026-07-21T15:55:45.136,12.3573,60.139,38.011
2026-07-21T15:55:45.142,12.3573,60.0802,37.9914
2026-07-21T15:55:45.162,12.3721,59.7669,37.7564
2026-07-21T15:55:45.162,12.3721,59.4732,37.6193
2026-07-21T15:55:45.172,12.3878,59.1404,37.5606
2026-07-21T15:55:45.181,12.4036,59.062,37.7564
2026-07-21T15:55:45.187,12.4208,58.9445,37.8739
2026-07-21T15:55:45.202,12.4208,58.9445,37.9914
2026-07-21T15:55:45.210,12.4354,58.8075,37.9914
2026-07-21T15:55:45.218,12.4483,58.6508,37.9718
2026-07-21T15:55:45.218,12.4522,58.4354,37.9131
2026-07-21T15:55:45.235,12.4522,58.4354,37.9131
2026-07-21T15:55:45.250,12.4674,58.5334,37.9718
2026-07-21T15:55:45.263,12.4674,58.6704,37.8347
2026-07-21T15:55:45.282,12.4995,58.8271,37.9326
2026-07-21T15:55:45.282,12.4995,58.8466,37.8151
2026-07-21T15:55:45.282,12.4995,58.8662,37.8151
2026-07-21T15:55:45.299,12.5153,58.5334,37.7956
2026-07-21T15:55:45.314,12.5311,58.083,37.6977
2026-07-21T15:55:45.314,12.5311,58.1613,37.6781
2026-07-21T15:55:45.330,12.5474,58.3767,37.8543
2026-07-21T15:55:45.346,12.5633,58.5529,37.9718
2026-07-21T15:55:45.346,12.5736,58.5334,37.9718
2026-07-21T15:55:45.364,12.5796,58.455,37.7564
2026-07-21T15:55:45.364,12.6007,58.2788,37.5214
2026-07-21T15:55:45.378,12.6007,57.8872,37.1886
2026-07-21T15:55:45.394,12.6007,57.5739,36.8557
2026-07-21T15:55:45.410,12.6277,57.5935,36.8753
2026-07-21T15:55:45.410,12.6277,57.8676,36.8753
2026-07-21T15:55:45.415,12.6277,58.1809,36.7969
2026-07-21T15:55:45.432,12.6595,58.318,36.7774
2026-07-21T15:55:45.442,12.6595,58.2396,36.7578
2026-07-21T15:55:45.442,12.6754,57.9459,36.7382
2026-07-21T15:55:45.464,12.6754,57.6914,36.6795
2026-07-21T15:55:45.474,12.6913,57.2802,36.8361
2026-07-21T15:55:45.474,12.7071,57.104,36.8753
2026-07-21T15:55:45.490,12.7071,57.1627,37.0319
2026-07-21T15:55:45.490,12.7071,57.4368,36.9928
2026-07-21T15:55:45.510,12.7392,57.6131,36.9536
2026-07-21T15:55:45.522,12.7392,57.4564,36.7578
2026-07-21T15:55:45.522,12.7504,57.104,36.5032
2026-07-21T15:55:45.538,12.7713,56.6928,36.4053
2026-07-21T15:55:45.554,12.7713,56.4186,36.3466
2026-07-21T15:55:45.565,12.7713,56.2032,36.2683
2026-07-21T15:55:45.570,12.8038,56.1641,36.3466
2026-07-21T15:55:45.586,12.8038,56.1641,36.3466
2026-07-21T15:55:45.586,12.8038,56.1249,36.327
2026-07-21T15:55:45.605,12.8355,56.1445,36.2291
2026-07-21T15:55:45.617,12.8355,56.0662,36.2487
2026-07-21T15:55:45.618,12.8355,55.6746,36.092
2026-07-21T15:55:45.633,12.8663,55.4004,35.8767
2026-07-21T15:55:45.633,12.8736,55.3025,35.8375
2026-07-21T15:55:45.650,12.8736,55.3025,35.9158
2026-07-21T15:55:45.650,12.8822,55.3809,36.0529
2026-07-21T15:55:45.681,12.9068,55.3417,36.0529
2026-07-21T15:55:45.681,12.9068,55.1263,35.8375
2026-07-21T15:55:45.688,12.9142,54.6564,35.4459
2026-07-21T15:55:45.710,12.9465,54.2452,35.1913
2026-07-21T15:55:45.713,12.948,53.9123,34.9759
2026-07-21T15:55:45.721,12.9548,53.7752,34.9759
2026-07-21T15:55:45.734,12.9621,53.7556,35.0347
2026-07-21T15:55:45.759,12.9883,53.6382,35.0934
2026-07-21T15:55:45.759,12.9883,53.6382,35.1326
2026-07-21T15:55:45.766,12.9883,53.5794,34.878
2026-07-21T15:55:45.774,12.9957,53.5598,34.8585
2026-07-21T15:55:45.784,13.0209,53.6186,34.7997
2026-07-21T15:55:45.793,13.0209,53.7361,35.0151
2026-07-21T15:55:45.803,13.0257,53.7948,35.1326
2026-07-21T15:55:45.810,13.0257,53.9123,35.2501
2026-07-21T15:55:45.824,13.0574,53.9515,35.2696
2026-07-21T15:55:45.835,13.0574,53.9515,35.2892
2026-07-21T15:55:45.840,13.0574,53.9319,35.2501
2026-07-21T15:55:45.856,13.0961,53.9906,35.3088
2026-07-21T15:55:45.872,13.0961,53.9906,35.4067
2026-07-21T15:55:45.872,13.0961,54.0494,35.3284
2026-07-21T15:55:45.872,13.1053,54.0298,35.2892
2026-07-21T15:55:45.888,13.1366,54.1081,35.1522
2026-07-21T15:55:45.908,13.1374,54.0298,35.0934
2026-07-21T15:55:45.911,13.1374,53.971,34.9564
2026-07-21T15:55:45.920,13.1374,53.7948,34.7214
2026-07-21T15:55:45.935,13.1739,53.5011,34.5647
2026-07-21T15:55:45.935,13.1751,53.3249,34.3689
2026-07-21T15:55:45.952,13.1751,53.2857,34.3689
2026-07-21T15:55:45.952,13.1842,53.4228,34.3494
2026-07-21T15:55:45.984,13.2001,53.4619,34.3494
2026-07-21T15:55:45.984,13.2001,53.4032,34.271
2026-07-21T15:55:45.990,13.2161,53.3053,34.0948
2026-07-21T15:55:45.999,13.232,53.2074,33.9186
2026-07-21T15:55:46.015,13.232,53.0312,33.9186
2026-07-21T15:55:46.015,13.2477,52.8941,33.9773
2026-07-21T15:55:46.031,13.2519,53.0312,34.2514
2026-07-21T15:55:46.047,13.2662,53.364,34.5256
2026-07-21T15:55:46.047,13.2662,53.6969,34.5452
2026-07-21T15:55:46.067,13.2805,53.7165,34.4473
2026-07-21T15:55:46.081,13.2971,53.5011,34.1927
2026-07-21T15:55:46.081,13.2971,53.1486,33.8598
2026-07-21T15:55:46.095,13.3124,52.8354,33.664
2026-07-21T15:55:46.095,13.3273,52.8745,33.5661
2026-07-21T15:55:46.112,13.343,52.992,33.7032
2026-07-21T15:55:46.112,13.343,53.3836,33.9773
2026-07-21T15:55:46.127,13.3589,53.7361,34.2906
2026-07-21T15:55:46.142,13.3755,53.971,34.4277
2026-07-21T15:55:46.142,13.3755,54.0102,34.4081
2026-07-21T15:55:46.158,13.3755,53.6773,34.2319
2026-07-21T15:55:46.174,13.4082,53.2857,34.0948
2026-07-21T15:55:46.174,13.4082,53.3053,34.2123
2026-07-21T15:55:46.190,13.4082,53.4619,34.4473
2026-07-21T15:55:46.211,13.4387,53.6969,34.5452
2026-07-21T15:55:46.220,13.4387,53.7361,34.506
2026-07-21T15:55:46.223,13.4387,53.5403,34.2319
2026-07-21T15:55:46.223,13.4543,53.0312,33.9969
2026-07-21T15:55:46.253,13.47,52.7374,33.8598
2026-07-21T15:55:46.253,13.47,52.6591,33.8794
2026-07-21T15:55:46.253,13.4861,52.7179,34.1731
2026-07-21T15:55:46.269,13.5024,52.6004,34.3298
2026-07-21T15:55:46.285,13.5024,52.4242,34.6822
2026-07-21T15:55:46.285,13.5024,52.0717,34.7018
2026-07-21T15:55:46.301,13.5184,51.543,34.6235
2026-07-21T15:55:46.317,13.5384,50.7794,34.4473
2026-07-21T15:55:46.317,13.5384,50.6227,34.6235
2026-07-21T15:55:46.333,13.5564,50.7794,34.878
2026-07-21T15:55:46.353,13.5817,51.2101,35.1717
2026-07-21T15:55:46.353,13.5817,51.7388,35.2501
2026-07-21T15:55:46.367,13.5817,51.7192,35.1522
2026-07-21T15:55:46.380,13.6128,51.543,34.8389
2026-07-21T15:55:46.387,13.6128,51.2493,34.4668
2026-07-21T15:55:46.387,13.6128,51.1906,34.4668
2026-07-21T15:55:46.396,13.6128,51.4843,34.741
2026-07-21T15:55:46.413,13.6481,51.8172,34.9368
2026-07-21T15:55:46.413,13.653,52.0913,35.0934
2026-07-21T15:55:46.427,13.653,52.2283,35.3088
2026-07-21T15:55:46.443,13.6758,52.0913,35.3284
2026-07-21T15:55:46.463,13.6758,51.778,35.1717
2026-07-21T15:55:46.463,13.6914,51.6997,35.1913
2026-07-21T15:55:46.475,13.6914,51.7584,35.1522
2026-07-21T15:55:46.475,13.7232,51.6801,35.1522
2026-07-21T15:55:46.490,13.7232,51.6213,35.113
2026-07-21T15:55:46.490,13.7232,51.543,35.1326
2026-07-21T15:55:46.512,13.7232,51.4843,35.0738
2026-07-21T15:55:46.522,13.756,51.1318,34.9172
2026-07-21T15:55:46.522,13.756,50.8773,34.6626
2026-07-21T15:55:46.538,13.756,50.6227,34.5256
2026-07-21T15:55:46.570,13.7877,50.3878,34.4081
2026-07-21T15:55:46.570,13.7877,50.2507,34.3298
2026-07-21T15:55:46.571,13.7974,50.1136,34.2319
2026-07-21T15:55:46.571,13.8026,49.8199,34.1535
2026-07-21T15:55:46.586,13.8187,49.3304,33.9773
2026-07-21T15:55:46.602,13.8346,48.9975,33.8011
2026-07-21T15:55:46.612,13.8346,48.7821,33.664
2026-07-21T15:55:46.617,13.8534,48.7821,33.5465
2026-07-21T15:55:46.633,13.8674,48.7821,33.7423
2026-07-21T15:55:46.633,13.8674,48.8213,33.7619
2026-07-21T15:55:46.649,13.8674,48.8017,33.8207
2026-07-21T15:55:46.665,13.8976,48.7038,33.664
2026-07-21T15:55:46.668,13.8976,48.2926,33.4878
2026-07-21T15:55:46.682,13.8976,48.136,33.3312
2026-07-21T15:55:46.697,13.9292,47.9597,33.3312
2026-07-21T15:55:46.697,13.9292,48.0576,33.4486
2026-07-21T15:55:46.712,13.9292,48.136,33.3116
2026-07-21T15:55:46.712,13.9449,48.2143,33.3312
2026-07-21T15:55:46.744,13.9609,48.0381,33.0766
2026-07-21T15:55:46.744,13.9609,47.7052,32.7046
2026-07-21T15:55:46.744,13.9769,47.3332,32.2346
2026-07-21T15:55:46.759,13.9769,47.1374,32.0388
2026-07-21T15:55:46.775,14.0088,47.294,32.0584
2026-07-21T15:55:46.775,14.0088,47.4702,32.3717
2026-07-21T15:55:46.792,14.0088,47.5877,32.5675
2026-07-21T15:55:46.807,14.0468,47.6465,32.7241
2026-07-21T15:55:46.818,14.0542,47.6269,32.7829
2026-07-21T15:55:46.823,14.0566,47.5681,32.8808
2026-07-21T15:55:46.823,14.0566,47.666,32.9004
2026-07-21T15:55:46.860,14.0843,47.8031,32.8612
2026-07-21T15:55:46.861,14.0843,47.9206,32.8416
2026-07-21T15:55:46.861,14.0863,48.136,32.7829
2026-07-21T15:55:46.876,14.0901,47.8618,32.8612
2026-07-21T15:55:46.887,14.1148,47.8227,32.8416
2026-07-21T15:55:46.897,14.1209,47.901,32.9004
2026-07-21T15:55:46.905,14.1209,48.1751,32.92
2026-07-21T15:55:46.927,14.1519,48.3905,32.8612
2026-07-21T15:55:46.927,14.1519,48.3318,32.7046
2026-07-21T15:55:46.929,14.1548,48.0772,32.5871
2026-07-21T15:55:46.952,14.1841,47.8814,32.5088
2026-07-21T15:55:46.952,14.1841,47.8814,32.5675
2026-07-21T15:55:46.964,14.1841,47.8031,32.6654
2026-07-21T15:55:46.969,14.2167,47.7639,32.5479
2026-07-21T15:55:46.983,14.2167,47.8031,32.4892
2026-07-21T15:55:46.983,14.2167,47.8814,32.3913
2026-07-21T15:55:46.999,14.228,47.901,32.2934
2026-07-21T15:55:47.015,14.2552,47.9989,32.3325
2026-07-21T15:55:47.030,14.2552,48.2926,32.6067
2026-07-21T15:55:47.031,14.2631,48.7821,32.9591
2026-07-21T15:55:47.046,14.2631,49.1346,33.1353
2026-07-21T15:55:47.053,14.2949,49.1346,32.9983
2026-07-21T15:55:47.068,14.298,48.8017,32.6654
2026-07-21T15:55:47.070,14.298,48.4688,32.4696
2026-07-21T15:55:47.084,14.306,48.4297,32.6067
2026-07-21T15:55:47.095,14.3273,48.6451,32.8221
2026-07-21T15:55:47.095,14.3273,49.0758,33.2137
2026-07-21T15:55:47.113,14.3273,49.3108,33.6053
2026-07-21T15:55:47.125,14.3606,49.487,33.7032
2026-07-21T15:55:47.142,14.3606,49.2325,33.5074
2026-07-21T15:55:47.142,14.3606,48.8409,33.057
2026-07-21T15:55:47.158,14.3753,48.4688,32.7437
2026-07-21T15:55:47.175,14.4026,48.4101,32.6458
2026-07-21T15:55:47.175,14.4033,48.6255,32.8612
2026-07-21T15:55:47.175,14.4087,48.9388,33.0374
2026-07-21T15:55:47.208,14.4372,49.0367,33.1158
2026-07-21T15:55:47.208,14.4372,48.9388,32.8221
2026-07-21T15:55:47.213,14.4372,48.4884,32.5675
2026-07-21T15:55:47.225,14.4372,47.8227,32.1955
2026-07-21T15:55:47.249,14.4703,47.4898,32.0584
2026-07-21T15:55:47.249,14.4703,47.4115,32.078
2026-07-21T15:55:47.252,14.4703,47.5485,32.2738
2026-07-21T15:55:47.252,14.5012,47.666,32.3913
2026-07-21T15:55:47.285,14.5012,47.7248,32.2934
2026-07-21T15:55:47.285,14.5012,47.6073,32.2346
2026-07-21T15:55:47.285,14.5174,47.2744,32.0192
2026-07-21T15:55:47.316,14.549,47.1374,31.9018
2026-07-21T15:55:47.316,14.549,46.9807,31.9213
2026-07-21T15:55:47.316,14.549,47.0786,31.9997
2026-07-21T15:55:47.332,14.5565,47.294,32.1367
2026-07-21T15:55:47.344,14.5809,47.3919,32.1955
2026-07-21T15:55:47.348,14.5809,47.3332,32.1759
2026-07-21T15:55:47.364,14.5809,47.294,32.1367
2026-07-21T15:55:47.371,14.5809,47.2548,32.1759
2026-07-21T15:55:47.380,14.6123,47.294,32.1171
2026-07-21T15:55:47.396,14.6123,47.4311,32.1367
2026-07-21T15:55:47.396,14.6284,47.5485,32.078
2026-07-21T15:55:47.417,14.6567,47.666,32.2542
2026-07-21T15:55:47.427,14.6613,47.8227,32.2934
2026-07-21T15:55:47.427,14.6613,47.9597,32.2542
2026-07-21T15:55:47.443,14.6613,47.8423,32.2346
2026-07-21T15:55:47.459,14.6914,47.8031,32.1367
2026-07-21T15:55:47.459,14.6982,47.7248,32.0584
2026-07-21T15:55:47.476,14.7006,48.0381,32.45
2026-07-21T15:55:47.476,14.7071,48.4493,32.92
2026-07-21T15:55:47.506,14.7232,48.9192,33.2137
2026-07-21T15:55:47.506,14.7232,49.115,33.3312
2026-07-21T15:55:47.515,14.739,48.9779,33.1549
2026-07-21T15:55:47.522,14.757,48.5667,32.9591
2026-07-21T15:55:47.522,14.757,48.2535,32.6654
2026-07-21T15:55:47.538,14.7706,48.0772,32.6262
2026-07-21T15:55:47.554,14.7706,48.2926,32.7241
2026-07-21T15:55:47.572,14.7983,48.8213,33.0766
2026-07-21T15:55:47.572,14.8027,49.1738,33.4291
2026-07-21T15:55:47.572,14.8027,49.3696,33.5661
2026-07-21T15:55:47.601,14.8342,49.1542,33.4682
2026-07-21T15:55:47.601,14.8342,48.7234,33.4682
2026-07-21T15:55:47.617,14.8416,48.4297,33.6053
2026-07-21T15:55:47.617,14.8502,48.3905,33.9382
2026-07-21T15:55:47.640,14.8658,48.4688,34.3102
2026-07-21T15:55:47.640,14.8658,48.6059,34.6822
2026-07-21T15:55:47.656,14.8801,48.7234,34.9172
2026-07-21T15:55:47.665,14.9046,48.7234,35.0151
2026-07-21T15:55:47.680,14.9046,48.8213,35.1326
2026-07-21T15:55:47.680,14.9046,48.7234,35.0934
2026-07-21T15:55:47.696,14.9136,48.8409,35.1522
2026-07-21T15:55:47.696,14.9416,48.9192,35.4263
2026-07-21T15:55:47.719,14.9452,49.1542,35.8375
2026-07-21T15:55:47.719,14.9452,49.3891,36.2878
2026-07-21T15:55:47.728,14.9573,49.6437,36.4641
2026-07-21T15:55:47.753,14.9777,49.8003,36.5424
2026-07-21T15:55:47.756,14.9777,49.6633,36.1704
2026-07-21T15:55:47.760,14.993,49.2912,35.6417
2026-07-21T15:55:47.783,15.0171,48.743,35.113
2026-07-21T15:55:47.792,15.0171,48.7038,35.0738
2026-07-21T15:55:47.792,15.0171,48.8996,35.2501
2026-07-21T15:55:47.792,15.027,49.3696,35.5634
2026-07-21T15:55:47.814,15.058,49.8395,35.7396
2026-07-21T15:55:47.832,15.058,50.2507,35.7592
2026-07-21T15:55:47.832,15.058,50.329,35.6417
2026-07-21T15:55:47.846,15.0632,49.7416,35.2892
2026-07-21T15:55:47.859,15.0886,49.0758,34.9368
2026-07-21T15:55:47.859,15.0886,48.6255,34.7214
2026-07-21T15:55:47.873,15.0886,48.6647,34.7997
2026-07-21T15:55:47.878,15.0992,48.9388,34.9759
2026-07-21T15:55:47.903,15.1243,49.2717,35.0934
2026-07-21T15:55:47.903,15.1259,49.2717,35.0347
2026-07-21T15:55:47.914,15.1279,49.2325,34.878
2026-07-21T15:55:47.920,15.1616,49.2325,34.741
2026-07-21T15:55:47.937,15.1616,49.5262,34.8389
2026-07-21T15:55:47.943,15.1616,49.9961,35.1326
2026-07-21T15:55:47.956,15.193,50.5248,35.5438
2026-07-21T15:55:47.973,15.1995,51.0143,35.955
2026-07-21T15:55:47.974,15.1995,51.1318,35.8375
2026-07-21T15:55:47.984,15.1995,50.6815,35.3284
2026-07-21T15:55:48.008,15.2289,50.1332,34.7801
2026-07-21T15:55:48.008,15.2289,49.6045,34.4473
2026-07-21T15:55:48.014,15.2314,49.5654,34.506
2026-07-21T15:55:48.030,15.2585,49.957,34.6822
2026-07-21T15:55:48.030,15.2585,50.2703,35.0738
2026-07-21T15:55:48.046,15.2639,50.5052,35.2892
2026-07-21T15:55:48.046,15.2792,50.5836,35.2305
2026-07-21T15:55:48.063,15.295,50.2115,34.7997
2026-07-21T15:55:48.079,15.2998,49.9178,34.5256
2026-07-21T15:55:48.094,15.3273,49.8787,34.5452
2026-07-21T15:55:48.094,15.3278,50.1919,34.6822
2026-07-21T15:55:48.094,15.3278,51.1514,35.2109
2026-07-21T15:55:48.114,15.3278,52.1304,35.8962
2026-07-21T15:55:48.126,15.361,52.6787,36.3858
2026-07-21T15:55:48.138,15.361,52.7766,36.4445
2026-07-21T15:55:48.142,15.361,52.0913,36.1116
2026-07-21T15:55:48.142,15.361,51.2689,35.6808
2026-07-21T15:55:48.173,15.4001,50.8381,35.5438
2026-07-21T15:55:48.173,15.4001,50.9164,35.5829
2026-07-21T15:55:48.176,15.4064,51.3472,35.7787
2026-07-21T15:55:48.193,15.4264,51.6605,36.1116
2026-07-21T15:55:48.205,15.4264,51.5626,36.3662
2026-07-21T15:55:48.215,15.4388,50.9556,35.9354
2026-07-21T15:55:48.221,15.4711,50.3486,35.5438
2026-07-21T15:55:48.241,15.4711,50.0745,35.4655
2026-07-21T15:55:48.241,15.4711,50.3878,35.7787
2026-07-21T15:55:48.253,15.4711,51.1318,36.2487
2026-07-21T15:55:48.269,15.5019,51.6409,36.3858
2026-07-21T15:55:48.274,15.5019,51.7388,36.3074
2026-07-21T15:55:48.286,15.5019,50.9948,35.72
2026-07-21T15:55:48.286,15.5363,49.5262,34.5452
2026-07-21T15:55:48.315,15.5363,47.5681,32.9787
2026-07-21T15:55:48.317,15.5363,44.6506,30.6878
2026-07-21T15:55:48.317,15.5494,39.9708,27.0066
2026-07-21T15:55:48.351,15.5918,33.8616,22.8359
2026-07-21T15:55:48.351,15.5958,27.1258,18.8218
2026-07-21T15:55:48.351,15.6003,20.3509,15.0036
2026-07-21T15:55:48.364,15.6003,14.1634,11.0678
2026-07-21T15:55:48.375,15.6429,9.0919,7.6608
2026-07-21T15:55:48.396,15.6564,5.0975,5.0174
2026-07-21T15:55:48.397,15.6571,1.7687,2.9418
2026-07-21T15:55:48.408,15.6647,-0.3656,1.6886
2026-07-21T15:55:48.415,15.6812,-1.0313,0.4942
2026-07-21T15:55:48.415,15.6812,-0.9922,0.0634
2026-07-21T15:55:48.452,15.7119,-0.6789,0.1809
2026-07-21T15:55:48.452,15.7119,-0.4831,0.2788
2026-07-21T15:55:48.458,15.7241,-0.346,0.4159
2026-07-21T15:55:48.469,15.7266,-0.111,0.4355
2026-07-21T15:55:48.479,15.7266,-0.0131,0.5334
2026-07-21T15:55:48.491,15.7266,0.026,0.5921
2026-07-21T15:55:48.496,15.7399,0.1239,0.7879
2026-07-21T15:55:48.507,15.7611,0.1827,0.925
2026-07-21T15:55:48.515,15.7611,0.2414,0.9837
2026-07-21T15:55:48.527,15.7719,0.3198,0.9837
2026-07-21T15:55:48.535,15.7719,0.261,0.9446
2026-07-21T15:55:48.541,15.7719,0.1827,0.8075
2026-07-21T15:55:48.555,15.7719,0.1631,0.7879
2026-07-21T15:55:48.576,15.8048,0.2219,0.7879
2026-07-21T15:55:48.576,15.8048,0.0456,0.7879
2026-07-21T15:55:48.587,15.8068,0.2023,0.8663
2026-07-21T15:55:48.587,15.8095,0.3002,0.7879
2026-07-21T15:55:48.604,15.8196,0.2219,0.8075
2026-07-21T15:55:48.615,15.8196,0.1631,0.7488
2026-07-21T15:55:48.624,15.8356,0.1631,0.7096
2026-07-21T15:55:48.634,15.8517,0.1827,0.7488
2026-07-21T15:55:48.634,15.8612,0.0848,0.6704
2026-07-21T15:55:48.650,15.8833,0.1044,0.7096
2026-07-21T15:55:48.666,15.8833,0.2414,0.7292
2026-07-21T15:55:48.676,15.8833,0.2023,0.8271
2026-07-21T15:55:48.682,15.9062,0.2023,0.8075
2026-07-21T15:55:48.698,15.912,0.1435,0.7683
2026-07-21T15:55:48.721,15.9327,0.1435,0.7683
2026-07-21T15:55:48.721,15.9327,0.1631,0.7683
2026-07-21T15:55:48.727,15.9327,0.1239,0.7096
2026-07-21T15:55:48.736,15.9471,0.1435,0.8075
2026-07-21T15:55:48.747,15.9471,0.1435,0.7292
2026-07-21T15:55:48.747,15.9798,0.2414,0.8467
2026-07-21T15:55:48.762,15.9798,0.1827,0.7683
2026-07-21T15:55:48.776,16.0047,0.1239,0.7292
2026-07-21T15:55:48.793,16.0107,0.1239,0.7488
2026-07-21T15:55:48.794,16.0107,0.1631,0.7488
2026-07-21T15:55:48.809,16.0267,0.1631,0.69
2026-07-21T15:55:48.819,16.0267,0.0652,0.69
2026-07-21T15:55:48.825,16.0267,0.2414,0.6704
2026-07-21T15:55:48.841,16.0627,0.2023,0.7292
2026-07-21T15:55:48.841,16.0653,0.1239,0.69
2026-07-21T15:55:48.841,16.0673,0.1827,0.6704
2026-07-21T15:55:48.874,16.0903,0.2414,0.6509
2026-07-21T15:55:48.875,16.0903,0.1631,0.6704
2026-07-21T15:55:48.891,16.1188,0.1044,0.6704
2026-07-21T15:55:48.905,16.1208,0.1827,0.6704
2026-07-21T15:55:48.905,16.1218,0.2219,0.7096
2026-07-21T15:55:48.915,16.1452,0.1631,0.7879
2026-07-21T15:55:48.931,16.1452,0.2023,0.7488
2026-07-21T15:55:48.936,16.1518,0.0652,0.7292
2026-07-21T15:55:48.940,16.1749,0.0456,0.6509
2026-07-21T15:55:48.959,16.1769,0.1239,0.6117
2026-07-21T15:55:48.966,16.1789,0.1827,0.6509
2026-07-21T15:55:48.988,16.2052,0.1239,0.6704
2026-07-21T15:55:48.989,16.2052,0.1239,0.69
2026-07-21T15:55:48.996,16.2219,0.1827,0.7292
2026-07-21T15:55:49.005,16.2334,0.2806,0.69
2026-07-21T15:55:49.016,16.2334,0.1631,0.7292
2026-07-21T15:55:49.033,16.2626,0.1435,0.69
2026-07-21T15:55:49.037,16.2626,0.1239,0.6704
2026-07-21T15:55:49.047,16.2641,0.0848,0.6509
2026-07-21T15:55:49.048,16.283,0.0652,0.6704
2026-07-21T15:55:49.066,16.283,0.1631,0.6313
2026-07-21T15:55:49.075,16.283,0.1435,0.7292
2026-07-21T15:55:49.079,16.3124,0.1044,0.7096
2026-07-21T15:55:49.098,16.3124,0.0652,0.6313
2026-07-21T15:55:49.098,16.3124,0.1239,0.6704
2026-07-21T15:55:49.127,16.3441,0.1435,0.69
2026-07-21T15:55:49.127,16.3441,0.1435,0.7292
2026-07-21T15:55:49.127,16.3441,0.0652,0.6117
2026-07-21T15:55:49.159,16.3756,0.1435,0.69
2026-07-21T15:55:49.159,16.3756,0.1239,0.6509
2026-07-21T15:55:49.159,16.3756,0.0848,0.6704
2026-07-21T15:55:49.189,16.4082,0.1827,0.5921
2026-07-21T15:55:49.189,16.4082,0.1239,0.69
2026-07-21T15:55:49.198,16.4082,0.1435,0.6313
2026-07-21T15:55:49.222,16.4377,0.1239,0.6704
2026-07-21T15:55:49.222,16.4377,0.026,0.69
2026-07-21T15:55:49.223,16.4377,0.1435,0.6117
2026-07-21T15:55:49.236,16.4716,0.2023,0.6509
2026-07-21T15:55:49.252,16.4716,0.0456,0.6704
2026-07-21T15:55:49.252,16.4716,0.0848,0.69
2026-07-21T15:55:49.269,16.5031,0.1044,0.5725
2026-07-21T15:55:49.286,16.5087,0.1044,0.6704
2026-07-21T15:55:49.286,16.5087,0.1044,0.6509
2026-07-21T15:55:49.295,16.5383,0.1044,0.6313
2026-07-21T15:55:49.318,16.5403,0.0848,0.7096
2026-07-21T15:55:49.318,16.5423,0.1435,0.7096
2026-07-21T15:55:49.323,16.5444,0.0848,0.6509
2026-07-21T15:55:49.332,16.5722,0.0848,0.6313
2026-07-21T15:55:49.353,16.5742,0.0848,0.8663
2026-07-21T15:55:49.359,16.5762,0.1239,0.6704
2026-07-21T15:55:49.372,16.6049,0.1435,0.7488
2026-07-21T15:55:49.384,16.6049,0.0848,0.6704
2026-07-21T15:55:49.387,16.607,0.2414,0.6313
2026-07-21T15:55:49.402,16.6266,0.1631,0.6509
2026-07-21T15:55:49.416,16.6266,0.0652,0.69
2026-07-21T15:55:49.416,16.6266,0.026,0.6509
2026-07-21T15:55:49.425,16.6426,0.1239,0.6509
2026-07-21T15:55:49.441,16.6711,0.0848,0.7096
2026-07-21T15:55:49.441,16.6711,0.1044,0.7096
2026-07-21T15:55:49.457,16.6744,0.1631,0.6704
2026-07-21T15:55:49.483,16.7062,0.1044,0.5921
2026-07-21T15:55:49.483,16.7062,0.1631,0.6117
2026-07-21T15:55:49.489,16.7062,0.0652,0.6313
2026-07-21T15:55:49.516,16.738,0.1631,0.6509
2026-07-21T15:55:49.516,16.738,0.1239,0.5921
2026-07-21T15:55:49.516,16.738,0.0848,0.6117
2026-07-21T15:55:49.526,16.7697,0.026,0.7096
2026-07-21T15:55:49.543,16.7697,0.0848,0.6313
2026-07-21T15:55:49.543,16.7697,0.1044,0.6313
2026-07-21T15:55:49.557,16.7697,0.1044,0.6509
2026-07-21T15:55:49.569,16.8012,0.0848,0.69
2026-07-21T15:55:49.584,16.8012,0.1435,0.7292
2026-07-21T15:55:49.584,16.8012,0.1827,0.6313
2026-07-21T15:55:49.584,16.8012,0.1044,0.5921
2026-07-21T15:55:49.616,16.8364,0.0848,0.7096
2026-07-21T15:55:49.616,16.8364,0.1044,0.6704
2026-07-21T15:55:49.616,16.8486,0.1239,0.6117
2026-07-21T15:55:49.632,16.8646,0.026,0.6313
2026-07-21T15:55:49.651,16.8646,0.0456,0.7292
2026-07-21T15:55:49.651,16.8803,0.1044,0.69
2026-07-21T15:55:49.667,16.8803,0.1239,0.7292
2026-07-21T15:55:49.679,16.9123,0.0652,0.7096
2026-07-21T15:55:49.679,16.9123,0.1044,0.5921
2026-07-21T15:55:49.695,16.9123,0.0456,0.6704
2026-07-21T15:55:49.711,16.9432,0.0848,0.6509
2026-07-21T15:55:49.716,16.9442,0.0848,0.6704
2026-07-21T15:55:49.725,16.9463,0.2219,0.6509
2026-07-21T15:55:49.727,16.9762,0.1044,0.8075
2026-07-21T15:55:49.744,16.9762,0.1239,0.6117
2026-07-21T15:55:49.744,16.9762,0.2023,0.6509
2026-07-21T15:55:49.786,17.0086,-0.0131,0.6704
2026-07-21T15:55:49.786,17.0098,0.0848,0.6704
2026-07-21T15:55:49.786,17.0098,0.1044,0.7292
2026-07-21T15:55:49.791,17.0098,0.0848,0.69
2026-07-21T15:55:49.816,17.0396,0.1239,0.7683
2026-07-21T15:55:49.816,17.0396,0.1044,0.6509
2026-07-21T15:55:49.824,17.0396,0.1435,0.5725
2026-07-21T15:55:49.839,17.0711,0.1239,0.69
2026-07-21T15:55:49.843,17.0711,0.0848,0.7292
2026-07-21T15:55:49.854,17.0711,0.1239,0.6509
2026-07-21T15:55:49.870,17.1067,0.1435,0.5921
2026-07-21T15:55:49.882,17.1087,0.0848,0.6509
2026-07-21T15:55:49.886,17.1107,0.0456,0.6117
2026-07-21T15:55:49.906,17.1348,0.0652,0.6509
2026-07-21T15:55:49.919,17.1348,0.1827,0.7096
2026-07-21T15:55:49.919,17.1348,0.1631,0.7683
2026-07-21T15:55:49.927,17.1348,0.0848,0.6509
2026-07-21T15:55:49.936,17.1716,0.1435,0.6704
2026-07-21T15:55:49.949,17.1716,0.0652,0.7488
2026-07-21T15:55:49.949,17.1716,0.1435,0.6117
2026-07-21T15:55:49.965,17.2015,0.0848,0.69
2026-07-21T15:55:49.986,17.2015,0.1435,0.6704
2026-07-21T15:55:49.986,17.2015,0.1044,0.6313
2026-07-21T15:55:49.996,17.2159,0.0456,0.6509
2026-07-21T15:55:50.016,17.232,0.1631,0.69
2026-07-21T15:55:50.016,17.244,0.026,0.6704
2026-07-21T15:55:50.016,17.244,0.0848,0.6313
2026-07-21T15:55:50.043,17.2662,0.0652,0.6704
2026-07-21T15:55:50.047,17.2755,0.1239,0.69
2026-07-21T15:55:50.047,17.2755,0.1044,0.6704
2026-07-21T15:55:50.081,17.3073,0.1239,0.69
2026-07-21T15:55:50.081,17.3073,0.1239,0.6704
2026-07-21T15:55:50.081,17.3093,0.1044,0.6704
2026-07-21T15:55:50.096,17.3114,0.0652,0.6704
2026-07-21T15:55:50.116,17.3384,0.1044,0.6117
2026-07-21T15:55:50.116,17.3384,0.1239,0.69
2026-07-21T15:55:50.128,17.3384,0.1631,0.7096
2026-07-21T15:55:50.138,17.371,0.1239,0.6313
2026-07-21T15:55:50.153,17.371,0.1044,0.7096
2026-07-21T15:55:50.153,17.371,0.1827,0.69
2026-07-21T15:55:50.185,17.4087,0.0456,0.7292
2026-07-21T15:55:50.186,17.4094,0.2023,0.69
2026-07-21T15:55:50.186,17.4094,0.1044,0.6509
2026-07-21T15:55:50.186,17.4335,0.1435,0.6704
2026-07-21T15:55:50.220,17.4335,0.0652,0.7488
2026-07-21T15:55:50.220,17.4335,0.0456,0.7683
2026-07-21T15:55:50.227,17.4335,0.1044,0.6704
2026-07-21T15:55:50.248,17.474,0.1044,0.6313
2026-07-21T15:55:50.248,17.476,0.1044,0.7096
2026-07-21T15:55:50.248,17.48,0.1239,0.6509
2026-07-21T15:55:50.285,17.5018,0.2023,0.69
2026-07-21T15:55:50.285,17.5018,0.1044,0.6509
2026-07-21T15:55:50.290,17.5018,0.0848,0.7096
2026-07-21T15:55:50.296,17.5129,0.1239,0.69
2026-07-21T15:55:50.312,17.5323,0.0456,0.7096
2026-07-21T15:55:50.316,17.5323,0.1827,0.7488
2026-07-21T15:55:50.328,17.5323,0.1239,0.6704
2026-07-21T15:55:50.347,17.5673,0.1239,0.69
2026-07-21T15:55:50.347,17.5673,0.1239,0.6704
2026-07-21T15:55:50.347,17.5673,0.1044,0.69
2026-07-21T15:55:50.359,17.5922,0.0652,0.7096
2026-07-21T15:55:50.382,17.6017,0.1044,0.7096
2026-07-21T15:55:50.382,17.6017,0.1435,0.6704
2026-07-21T15:55:50.407,17.6234,0.1827,0.7879
2026-07-21T15:55:50.407,17.6234,0.0848,0.6509
2026-07-21T15:55:50.416,17.6234,0.0652,0.69
2026-07-21T15:55:50.438,17.6548,0.1044,0.6704
2026-07-21T15:55:50.438,17.6548,0.1631,0.7096
2026-07-21T15:55:50.438,17.6603,0.1044,0.6704
2026-07-21T15:55:50.454,17.6705,0.1631,0.6313
2026-07-21T15:55:50.454,17.6875,0.1827,0.69
2026-07-21T15:55:50.475,17.6896,0.0848,0.69
2026-07-21T15:55:50.485,17.7139,0.1044,0.7096
2026-07-21T15:55:50.485,17.7139,0.1435,0.7096
2026-07-21T15:55:50.508,17.7419,0.1435,0.7879
2026-07-21T15:55:50.516,17.7439,0.1631,0.6509
2026-07-21T15:55:50.516,17.7439,0.1435,0.69
2026-07-21T15:55:50.556,17.7684,0.1631,0.7096
2026-07-21T15:55:50.556,17.7684,0.2414,0.6509
2026-07-21T15:55:50.559,17.7684,0.1239,0.69
2026-07-21T15:55:50.583,17.7979,0.1044,0.7683
2026-07-21T15:55:50.583,17.7979,0.0848,0.6313
2026-07-21T15:55:50.583,17.8022,0.1435,0.6117
2026-07-21T15:55:50.596,17.8287,0.1435,0.6509
2026-07-21T15:55:50.596,17.8293,0.1239,0.69
2026-07-21T15:55:50.612,17.8293,0.1239,0.7096
2026-07-21T15:55:50.628,17.8561,0.0848,0.6313
2026-07-21T15:55:50.628,17.8561,0.1435,0.69
2026-07-21T15:55:50.649,17.861,0.1631,0.7292
2026-07-21T15:55:50.659,17.8769,0.2023,0.69
2026-07-21T15:55:50.659,17.8769,0.1239,0.7292
2026-07-21T15:55:50.676,17.8769,0.2023,0.6704
2026-07-21T15:55:50.692,17.9088,0.1435,0.6704
2026-07-21T15:55:50.692,17.9088,0.1827,0.7096
2026-07-21T15:55:50.692,17.9252,0.0456,0.69
2026-07-21T15:55:50.723,17.9405,0.0848,0.6117
2026-07-21T15:55:50.723,17.9405,0.0652,0.7683
2026-07-21T15:55:50.739,17.9571,0.1631,0.7292
2026-07-21T15:55:50.740,17.9571,0.1435,0.7683
2026-07-21T15:55:50.755,17.9891,0.1239,0.69
2026-07-21T15:55:50.772,17.9891,0.1435,0.69
2026-07-21T15:55:50.772,17.9891,0.1631,0.6313
2026-07-21T15:55:50.804,18.0195,0.0848,0.7292
2026-07-21T15:55:50.804,18.0205,0.1044,0.7292
2026-07-21T15:55:50.804,18.0216,0.1239,0.69
2026-07-21T15:55:50.818,18.0401,0.261,0.7096
2026-07-21T15:55:50.826,18.0401,0.1239,0.6509
2026-07-21T15:55:50.837,18.0401,0.1239,0.7292
2026-07-21T15:55:50.855,18.0698,0.0848,0.69
2026-07-21T15:55:50.855,18.0698,0.0848,0.7096
2026-07-21T15:55:50.866,18.1022,0.1631,0.7292
2026-07-21T15:55:50.884,18.1022,0.1827,0.8075
2026-07-21T15:55:50.884,18.1022,0.1044,0.69
2026-07-21T15:55:50.913,18.1306,0.1827,0.7096
2026-07-21T15:55:50.913,18.1306,0.1239,0.6704
2026-07-21T15:55:50.917,18.1355,0.1435,0.7292
2026-07-21T15:55:50.928,18.1609,0.0848,0.6704
2026-07-21T15:55:50.944,18.1629,0.2219,0.7096
2026-07-21T15:55:50.945,18.1629,0.1827,0.7292
2026-07-21T15:55:50.961,18.1779,0.1827,0.7096
2026-07-21T15:55:50.974,18.1927,0.1435,0.6509
2026-07-21T15:55:50.978,18.1927,0.2219,0.69
2026-07-21T15:55:50.985,18.2084,0.0848,0.6704
2026-07-21T15:55:50.992,18.2084,0.1239,0.69
2026-07-21T15:55:51.007,18.2084,0.2219,0.7292
2026-07-21T15:55:51.023,18.2482,0.1631,0.6704
2026-07-21T15:55:51.023,18.2482,0.2219,0.69
2026-07-21T15:55:51.023,18.2519,0.1435,0.6704
2026-07-21T15:55:51.055,18.2716,0.1631,0.69
2026-07-21T15:55:51.059,18.2716,0.1631,0.6509
2026-07-21T15:55:51.066,18.2716,0.1631,0.8271
2026-07-21T15:55:51.086,18.3034,0.0652,0.69
2026-07-21T15:55:51.086,18.3034,0.1435,0.7096
2026-07-21T15:55:51.102,18.3195,0.1631,0.7292
2026-07-21T15:55:51.118,18.3195,0.1239,0.6704
2026-07-21T15:55:51.118,18.3354,0.1239,0.69
2026-07-21T15:55:51.118,18.3523,0.2023,0.6509
2026-07-21T15:55:51.134,18.3523,0.1239,0.7292
2026-07-21T15:55:51.134,18.3632,0.1631,0.69
2026-07-21T15:55:51.150,18.3842,0.1044,0.7096
2026-07-21T15:55:51.167,18.3889,0.1435,0.6704
2026-07-21T15:55:51.178,18.3889,0.1631,0.7292
2026-07-21T15:55:51.199,18.4155,0.1435,0.6704
2026-07-21T15:55:51.199,18.4197,0.1239,0.6313
2026-07-21T15:55:51.203,18.4473,0.1239,0.69
2026-07-21T15:55:51.217,18.4473,0.1239,0.7683
2026-07-21T15:55:51.230,18.4473,0.1239,0.69
2026-07-21T15:55:51.234,18.4473,0.2023,0.7096
2026-07-21T15:55:51.246,18.4773,0.1044,0.7292
2026-07-21T15:55:51.247,18.4773,0.1435,0.6313
2026-07-21T15:55:51.262,18.4773,0.1631,0.69
2026-07-21T15:55:51.286,18.5098,0.1827,0.7683
2026-07-21T15:55:51.286,18.5098,0.1631,0.6509
2026-07-21T15:55:51.292,18.5098,0.1435,0.6704
2026-07-21T15:55:51.308,18.5255,0.1435,0.8271
2026-07-21T15:55:51.323,18.5255,0.0652,0.69
2026-07-21T15:55:51.324,18.5401,0.2219,0.7292
2026-07-21T15:55:51.340,18.5557,0.1631,0.69
2026-07-21T15:55:51.340,18.5557,0.1827,0.7683
2026-07-21T15:55:51.355,18.5557,0.1631,0.6509
2026-07-21T15:55:51.370,18.5873,0.1827,0.7488
2026-07-21T15:55:51.370,18.5873,0.1827,0.7096
2026-07-21T15:55:51.386,18.6149,0.1631,0.7096
2026-07-21T15:55:51.402,18.6149,0.1435,0.69
2026-07-21T15:55:51.402,18.6189,0.1631,0.7096
2026-07-21T15:55:51.417,18.6415,0.1435,0.7096
2026-07-21T15:55:51.417,18.6415,0.2219,0.6509
2026-07-21T15:55:51.433,18.6721,0.1239,0.69
2026-07-21T15:55:51.433,18.6721,0.1827,0.6704
2026-07-21T15:55:51.456,18.6721,0.1435,0.7683
2026-07-21T15:55:51.466,18.6982,0.1239,0.7488
2026-07-21T15:55:51.481,18.7032,0.1827,0.7096
2026-07-21T15:55:51.487,18.7032,0.2023,0.6704
2026-07-21T15:55:51.497,18.728,0.2414,0.6704
2026-07-21T15:55:51.513,18.728,-0.0327,0.8075
2026-07-21T15:55:51.513,18.7306,0.1631,0.7096
2026-07-21T15:55:51.529,18.7459,0.1435,0.69
2026-07-21T15:55:51.529,18.7459,0.1827,0.7292
2026-07-21T15:55:51.545,18.7459,0.1631,0.69
2026-07-21T15:55:51.561,18.7773,0.1435,0.69
2026-07-21T15:55:51.561,18.7773,0.1239,0.7292
2026-07-21T15:55:51.592,18.8091,0.2219,0.7488
2026-07-21T15:55:51.592,18.8091,0.1631,0.7879
2026-07-21T15:55:51.592,18.8091,0.1044,0.69
2026-07-21T15:55:51.608,18.8249,0.2414,0.69
2026-07-21T15:55:51.618,18.8249,0.1435,0.6704
2026-07-21T15:55:51.624,18.8409,0.1239,0.7488
2026-07-21T15:55:51.640,18.8592,0.1239,0.69
2026-07-21T15:55:51.640,18.8592,0.2023,0.69
2026-07-21T15:55:51.655,18.8888,0.1827,0.7292
2026-07-21T15:55:51.674,18.8888,0.1435,0.7096
2026-07-21T15:55:51.674,18.8888,0.2414,0.6117
2026-07-21T15:55:51.688,18.9207,0.2023,0.7683
2026-07-21T15:55:51.703,18.9207,0.1435,0.7683
2026-07-21T15:55:51.703,18.9207,0.1827,0.7096
2026-07-21T15:55:51.720,18.9365,0.1239,0.7683
2026-07-21T15:55:51.720,18.9365,0.1631,0.7292
2026-07-21T15:55:51.735,18.9365,0.2023,0.69
2026-07-21T15:55:51.751,18.9682,0.1827,0.6704
2026-07-21T15:55:51.751,18.9735,0.1827,0.7488
2026-07-21T15:55:51.751,18.9735,0.1435,0.6704
2026-07-21T15:55:51.783,18.9846,0.1631,0.7488
2026-07-21T15:55:51.783,18.9998,0.1239,0.69
2026-07-21T15:55:51.799,19.0163,0.0848,0.7683
2026-07-21T15:55:51.799,19.0163,0.1239,0.69
2026-07-21T15:55:51.818,19.0163,0.2023,0.7096
2026-07-21T15:55:51.831,19.0528,0.1239,0.7292
2026-07-21T15:55:51.831,19.0538,0.2023,0.7096
2026-07-21T15:55:51.846,19.0789,0.261,0.7292
2026-07-21T15:55:51.864,19.0789,0.1631,0.7292
2026-07-21T15:55:51.869,19.0789,0.1435,0.69
2026-07-21T15:55:51.879,19.1112,0.2023,0.69
2026-07-21T15:55:51.892,19.1112,0.1239,0.7488
2026-07-21T15:55:51.894,19.1195,0.1239,0.6704
2026-07-21T15:55:51.910,19.1431,0.1827,0.6509
2026-07-21T15:55:51.926,19.1465,0.2023,0.7488
2026-07-21T15:55:51.926,19.1465,0.2023,0.7683
2026-07-21T15:55:51.934,19.1612,0.2023,0.69
2026-07-21T15:55:51.957,19.1748,0.261,0.6509
2026-07-21T15:55:51.958,19.1758,0.2414,0.7292
2026-07-21T15:55:51.961,19.2001,0.1827,0.69
2026-07-21T15:55:51.976,19.2022,0.2219,0.7096
2026-07-21T15:55:51.976,19.2037,0.1631,0.7292
2026-07-21T15:55:52.002,19.2218,0.1827,0.7683
2026-07-21T15:55:52.005,19.2218,0.1827,0.7292
2026-07-21T15:55:52.018,19.2218,0.1631,0.7292
2026-07-21T15:55:52.036,19.2378,0.1827,0.7096
2026-07-21T15:55:52.036,19.2378,0.0848,0.7096
2026-07-21T15:55:52.052,19.2748,0.1239,0.7096
2026-07-21T15:55:52.052,19.2748,0.1435,0.7292
2026-07-21T15:55:52.069,19.2748,0.2219,0.69
2026-07-21T15:55:52.069,19.3039,0.1827,0.7292
2026-07-21T15:55:52.089,19.3039,0.1435,0.7292
2026-07-21T15:55:52.089,19.3039,0.1631,0.7879
2026-07-21T15:55:52.116,19.3311,0.1827,0.7292
2026-07-21T15:55:52.119,19.3346,0.1435,0.6704
2026-07-21T15:55:52.119,19.3497,0.1435,0.6313
2026-07-21T15:55:52.141,19.3497,0.1435,0.7292
2026-07-21T15:55:52.148,19.3497,0.1435,0.7488
2026-07-21T15:55:52.164,19.3845,0.1827,0.69
2026-07-21T15:55:52.164,19.3845,0.1827,0.7292
2026-07-21T15:55:52.179,19.4047,0.2023,0.7488
2026-07-21T15:55:52.196,19.4047,0.1631,0.7292
2026-07-21T15:55:52.199,19.4047,0.1827,0.7096
2026-07-21T15:55:52.219,19.4373,0.2219,0.8075
2026-07-21T15:55:52.219,19.4373,0.1631,0.69
2026-07-21T15:55:52.227,19.4619,0.1827,0.7096
2026-07-21T15:55:52.227,19.4639,0.2023,0.6704
2026-07-21T15:55:52.249,19.4659,0.2219,0.6313
2026-07-21T15:55:52.252,19.4915,0.1631,0.7683
2026-07-21T15:55:52.276,19.4961,0.2219,0.6313
2026-07-21T15:55:52.276,19.4961,0.2023,0.7292
2026-07-21T15:55:52.287,19.5002,0.1435,0.7096
2026-07-21T15:55:52.306,19.524,0.2023,0.7096
2026-07-21T15:55:52.306,19.524,0.3002,0.7683
2026-07-21T15:55:52.319,19.5451,0.261,0.7292
2026-07-21T15:55:52.323,19.5575,0.1239,0.6704
2026-07-21T15:55:52.339,19.5575,0.1239,0.69
2026-07-21T15:55:52.339,19.576,0.1044,0.7488
2026-07-21T15:55:52.360,19.5863,0.1827,0.7292
2026-07-21T15:55:52.370,19.5863,0.1631,0.7292
2026-07-21T15:55:52.374,19.5863,0.1827,0.7096
2026-07-21T15:55:52.391,19.6045,0.1435,0.6509
2026-07-21T15:55:52.391,19.6045,0.1827,0.7292
2026-07-21T15:55:52.419,19.6337,0.1239,0.7488
2026-07-21T15:55:52.419,19.6337,0.1631,0.6704
2026-07-21T15:55:52.419,19.6337,0.261,0.8271
2026-07-21T15:55:52.448,19.6653,0.2023,0.7096
2026-07-21T15:55:52.448,19.6653,0.1435,0.69
2026-07-21T15:55:52.448,19.6653,0.1631,0.7292
2026-07-21T15:55:52.474,19.6812,0.1631,0.7292
2026-07-21T15:55:52.480,19.6812,0.1239,0.7096
2026-07-21T15:55:52.480,19.6969,0.1631,0.7292
2026-07-21T15:55:52.496,19.7152,0.1239,0.7292
2026-07-21T15:55:52.496,19.7152,0.2023,0.7292
2026-07-21T15:55:52.519,19.745,0.1044,0.7488
2026-07-21T15:55:52.530,19.745,0.1631,0.7683
2026-07-21T15:55:52.530,19.745,0.1435,0.7292
2026-07-21T15:55:52.560,19.7599,0.1827,0.7096
2026-07-21T15:55:52.560,19.7599,0.1827,0.7683
2026-07-21T15:55:52.575,19.7949,0.1827,0.7879
2026-07-21T15:55:52.575,19.7949,0.2219,0.7683
2026-07-21T15:55:52.591,19.7949,0.2023,0.69
2026-07-21T15:55:52.610,19.8237,0.2414,0.7096
2026-07-21T15:55:52.610,19.8237,0.1239,0.7096
2026-07-21T15:55:52.622,19.8502,0.0848,0.69
2026-07-21T15:55:52.622,19.8531,0.1435,0.7683
2026-07-21T15:55:52.638,19.8548,0.1827,0.7683
2026-07-21T15:55:52.654,19.8769,0.1827,0.7096
2026-07-21T15:55:52.660,19.8769,0.2414,0.7292
2026-07-21T15:55:52.667,19.8769,0.2414,0.7292
2026-07-21T15:55:52.686,19.9048,0.1827,0.7096
2026-07-21T15:55:52.692,19.9048,0.2023,0.7096
2026-07-21T15:55:52.692,19.9048,0.1631,0.7096
2026-07-21T15:55:52.717,19.9339,0.2023,0.69
2026-07-21T15:55:52.719,19.9339,0.2023,0.69
2026-07-21T15:55:52.719,19.9497,0.1631,0.69
2026-07-21T15:55:52.748,19.9654,0.2219,0.7096
2026-07-21T15:55:52.748,19.9654,0.1631,0.6704
2026-07-21T15:55:52.748,19.9813,0.1631,0.69
2026-07-21T15:55:52.764,19.9813,0.1631,0.7292
2026-07-21T15:55:52.764,19.9813,0.2023,0.7292
2026-07-21T15:55:52.792,20.0135,0.1827,0.7488
2026-07-21T15:55:52.796,20.0135,0.261,0.7488
2026-07-21T15:55:52.796,20.0213,0.2023,0.7292
2026-07-21T15:55:52.820,20.0295,0.2219,0.7488
2026-07-21T15:55:52.820,20.0295,0.1827,0.7292
2026-07-21T15:55:52.844,20.0614,0.1631,0.7292
2026-07-21T15:55:52.844,20.0614,0.1827,0.8271
2026-07-21T15:55:52.860,20.0614,0.1435,0.7292
2026-07-21T15:55:52.876,20.0949,0.1239,0.7488
2026-07-21T15:55:52.876,20.0949,0.1827,0.7488
2026-07-21T15:55:52.876,20.0949,0.1631,0.69
2026-07-21T15:55:52.893,20.1095,0.1827,0.7879
2026-07-21T15:55:52.909,20.1253,0.2219,0.7488
2026-07-21T15:55:52.920,20.1444,0.2023,0.7292
2026-07-21T15:55:52.924,20.1444,0.1631,0.7292
2026-07-21T15:55:52.924,20.1533,0.1827,0.7292
2026-07-21T15:55:52.959,20.1786,0.1631,0.7292
2026-07-21T15:55:52.959,20.1786,0.2806,0.7292
2026-07-21T15:55:52.971,20.1834,0.1631,0.69
2026-07-21T15:55:52.972,20.2083,0.1827,0.7292
2026-07-21T15:55:52.989,20.2128,0.0848,0.6509
2026-07-21T15:55:52.998,20.218,0.1631,0.69
2026-07-21T15:55:53.023,20.2367,0.1435,0.6509
2026-07-21T15:55:53.023,20.2367,0.2023,0.7292
2026-07-21T15:55:53.027,20.2367,0.2023,0.7096
2026-07-21T15:55:53.051,20.2675,0.261,0.7096
2026-07-21T15:55:53.051,20.2675,0.1827,0.7096
2026-07-21T15:55:53.051,20.2675,0.2219,0.7096
2026-07-21T15:55:53.082,20.3055,0.1239,0.7879
2026-07-21T15:55:53.082,20.3055,0.1827,0.7879
2026-07-21T15:55:53.082,20.3055,0.2023,0.6704
2026-07-21T15:55:53.098,20.3146,0.2414,0.7292
2026-07-21T15:55:53.120,20.3313,0.1435,0.7292
2026-07-21T15:55:53.120,20.3313,0.1239,0.7488
2026-07-21T15:55:53.129,20.3471,0.1631,0.7488
2026-07-21T15:55:53.129,20.3731,0.1631,0.8075
2026-07-21T15:55:53.146,20.3751,0.1827,0.7292
2026-07-21T15:55:53.146,20.3798,0.2414,0.69
2026-07-21T15:55:53.162,20.4088,0.2023,0.7488
2026-07-21T15:55:53.185,20.412,0.1631,0.7683
2026-07-21T15:55:53.188,20.4126,0.2023,0.7096
2026-07-21T15:55:53.194,20.4169,0.1631,0.69
2026-07-21T15:55:53.221,20.4411,0.1827,0.7096
2026-07-21T15:55:53.222,20.4452,0.1044,0.7096
2026-07-21T15:55:53.230,20.4493,0.1827,0.6704
2026-07-21T15:55:53.242,20.4736,0.2023,0.69
2026-07-21T15:55:53.248,20.4736,0.2414,0.7292
2026-07-21T15:55:53.256,20.4736,0.1631,0.7292
2026-07-21T15:55:53.272,20.5057,0.1631,0.69
2026-07-21T15:55:53.287,20.5057,0.2219,0.69
2026-07-21T15:55:53.288,20.5057,0.2023,0.6704
2026-07-21T15:55:53.295,20.5057,0.2219,0.7488
2026-07-21T15:55:53.318,20.5371,0.2219,0.7683
2026-07-21T15:55:53.318,20.5371,0.1631,0.7096
2026-07-21T15:55:53.335,20.5528,0.1827,0.7292
2026-07-21T15:55:53.335,20.5528,0.1435,0.7683
2026-07-21T15:55:53.335,20.5675,0.1827,0.69
2026-07-21T15:55:53.352,20.5858,0.1827,0.7683
2026-07-21T15:55:53.367,20.5858,0.1435,0.6704
2026-07-21T15:55:53.367,20.5993,0.0848,0.6704
2026-07-21T15:55:53.384,20.6233,0.1044,0.7096
2026-07-21T15:55:53.400,20.6233,0.1044,0.6704
2026-07-21T15:55:53.400,20.6301,0.0848,0.69
2026-07-21T15:55:53.421,20.6475,-0.0719,0.5725
2026-07-21T15:55:53.430,20.6475,-0.3264,0.1613
2026-07-21T15:55:53.430,20.6637,-0.2285,-0.0736
2026-07-21T15:55:53.446,20.6719,-0.1698,0.0047
2026-07-21T15:55:53.462,20.7033,-0.2285,-0.054
2026-07-21T15:55:53.462,20.7033,0.7897,0.1222
2026-07-21T15:55:53.478,20.7113,3.6681,1.9432
2026-07-21T15:55:53.487,20.7342,8.8374,7.2692
2026-07-21T15:55:53.510,20.7608,14.2808,13.6525
2026-07-21T15:55:53.512,20.7762,19.0194,20.3491
2026-07-21T15:55:53.518,20.7762,23.9537,28.3381
2026-07-21T15:55:53.526,20.7816,28.2811,34.9564
2026-07-21T15:55:53.549,20.791,31.8644,40.2823
2026-07-21T15:55:53.549,20.791,34.9973,44.5118
2026-07-21T15:55:53.559,20.8222,37.6407,47.8797
2026-07-21T15:55:53.574,20.8222,40.7932,50.7384
2026-07-21T15:55:53.575,20.8222,43.652,53.186
2026-07-21T15:55:53.590,20.8222,45.7863,55.3791
2026-07-21T15:55:53.606,20.8381,47.5877,57.0239
2026-07-21T15:55:53.606,20.8381,48.508,58.2379
2026-07-21T15:55:53.606,20.8381,48.7821,59.3344
2026-07-21T15:55:53.621,20.8563,49.7024,60.5288
2026-07-21T15:55:53.637,20.87,50.6031,61.6841
2026-07-21T15:55:53.653,20.87,50.8969,62.6827
2026-07-21T15:55:53.653,20.8823,51.2493,63.4072
2026-07-21T15:55:53.671,20.902,51.2297,63.5638
2026-07-21T15:55:53.671,20.9068,51.1122,63.4855
2026-07-21T15:55:53.685,20.9068,51.2297,63.603
2026-07-21T15:55:53.697,20.918,51.3276,63.7597
2026-07-21T15:55:53.701,20.9342,51.8759,64.4058
2026-07-21T15:55:53.721,20.9342,52.5416,64.8758
2026-07-21T15:55:53.721,20.9502,52.9528,64.9345
2026-07-21T15:55:53.733,20.9664,53.1878,65.189
2026-07-21T15:55:53.749,20.9664,53.3836,65.5023
2026-07-21T15:55:53.765,20.9829,53.5794,65.5415
2026-07-21T15:55:53.765,20.9829,53.364,65.424
2026-07-21T15:55:53.781,20.9984,52.757,65.0911
2026-07-21T15:55:53.781,21.0146,52.3263,64.8562
2026-07-21T15:55:53.798,21.0146,52.3067,65.189
2026-07-21T15:55:53.798,21.0305,52.4046,65.7177
2026-07-21T15:55:53.813,21.0305,52.6983,65.8548
2026-07-21T15:55:53.829,21.0697,52.8941,65.7373
2026-07-21T15:55:53.829,21.0697,52.757,65.2478
2026-07-21T15:55:53.845,21.0777,52.8354,65.0128
2026-07-21T15:55:53.866,21.1089,52.9528,65.052
2026-07-21T15:55:53.878,21.1089,53.0703,65.189
2026-07-21T15:55:53.884,21.113,52.9528,64.9541
2026-07-21T15:55:53.892,21.119,52.8158,64.5233
2026-07-21T15:55:53.918,21.1529,52.757,64.0338
2026-07-21T15:55:53.920,21.1529,52.6004,63.9163
2026-07-21T15:55:53.922,21.1549,52.3654,64.3471
2026-07-21T15:55:53.928,21.163,52.2871,64.6212
2026-07-21T15:55:53.946,21.1938,52.3654,64.7387
2026-07-21T15:55:53.959,21.1978,52.385,64.7779
2026-07-21T15:55:53.962,21.2019,52.6004,64.4646
2026-07-21T15:55:53.970,21.2045,52.9137,63.838
2026-07-21T15:55:53.982,21.2072,52.992,62.9764
2026-07-21T15:55:53.987,21.2407,52.8745,62.3498
2026-07-21T15:55:54.006,21.2427,52.9528,62.0757
2026-07-21T15:55:54.010,21.2447,52.7179,61.9191
2026-07-21T15:55:54.020,21.2487,52.3654,61.782
2026-07-21T15:55:54.035,21.2814,52.1696,61.3904
2026-07-21T15:55:54.050,21.2839,52.1892,61.0771
2026-07-21T15:55:54.050,21.2859,52.4437,60.803
2026-07-21T15:55:54.063,21.2899,52.6004,60.4505
2026-07-21T15:55:54.067,21.2939,52.6591,60.1568
2026-07-21T15:55:54.092,21.3233,52.2479,59.7456
2026-07-21T15:55:54.092,21.3233,51.7584,59.3344
2026-07-21T15:55:54.101,21.3233,51.3081,59.0407
2026-07-21T15:55:54.109,21.3359,51.2297,59.0799
2026-07-21T15:55:54.122,21.3676,51.2297,59.2169
2026-07-21T15:55:54.131,21.3716,51.1906,59.3148
2026-07-21T15:55:54.138,21.3716,51.2885,59.2365
2026-07-21T15:55:54.153,21.383,51.2885,59.2169
2026-07-21T15:55:54.163,21.4113,51.3668,59.0211
2026-07-21T15:55:54.178,21.4113,51.3081,58.8057
2026-07-21T15:55:54.184,21.4113,51.0731,58.6491
2026-07-21T15:55:54.192,21.4113,50.9556,58.747
2026-07-21T15:55:54.199,21.4266,50.8773,58.9036
2026-07-21T15:55:54.222,21.4623,51.0143,58.8645
2026-07-21T15:55:54.222,21.4623,51.0339,58.6491
2026-07-21T15:55:54.226,21.4683,51.1318,58.2183
2026-07-21T15:55:54.226,21.4723,51.2885,57.6113
2026-07-21T15:55:54.241,21.5078,51.3276,57.1414
2026-07-21T15:55:54.269,21.5098,51.1906,56.7497
2026-07-21T15:55:54.269,21.5098,50.9164,56.319
2026-07-21T15:55:54.281,21.5179,50.5052,55.5749
2026-07-21T15:55:54.289,21.526,50.0353,54.6938
2026-07-21T15:55:54.300,21.5522,49.6241,53.8322
2026-07-21T15:55:54.318,21.5522,49.6045,53.049
2026-07-21T15:55:54.318,21.5522,49.7416,52.0308
2026-07-21T15:55:54.331,21.5703,49.6828,50.8364
2026-07-21T15:55:54.339,21.5743,49.6633,49.5244
2026-07-21T15:55:54.367,21.6079,49.487,48.565
2026-07-21T15:55:54.367,21.6099,49.3696,48.1929
2026-07-21T15:55:54.367,21.6119,49.4283,48.4083
2026-07-21T15:55:54.367,21.6182,49.5066,48.4671
2026-07-21T15:55:54.391,21.6222,49.5654,48.3496
2026-07-21T15:55:54.402,21.648,49.722,47.7622
2026-07-21T15:55:54.415,21.648,49.4087,47.1748
2026-07-21T15:55:54.420,21.648,48.8996,46.274
2026-07-21T15:55:54.433,21.6635,48.5276,45.6083
2026-07-21T15:55:54.448,21.6973,48.4688,45.5495
2026-07-21T15:55:54.463,21.6973,48.2535,45.902
2026-07-21T15:55:54.463,21.6973,48.0576,46.2349
2026-07-21T15:55:54.463,21.7081,48.0185,46.1566
2026-07-21T15:55:54.482,21.7111,47.9793,45.8628
2026-07-21T15:55:54.489,21.7463,47.8814,45.3537
2026-07-21T15:55:54.510,21.7503,47.7639,44.923
2026-07-21T15:55:54.510,21.7503,47.6856,44.9621
2026-07-21T15:55:54.512,21.7577,47.666,45.2167
2026-07-21T15:55:54.526,21.7637,47.7248,45.4125
2026-07-21T15:55:54.542,21.7941,47.6073,45.6475
2026-07-21T15:55:54.557,21.7961,47.7639,45.8433
2026-07-21T15:55:54.561,21.7981,47.8423,46.0391
2026-07-21T15:55:54.572,21.8053,47.9206,46.1761
2026-07-21T15:55:54.580,21.8143,47.8423,46.2936
2026-07-21T15:55:54.601,21.8467,47.7639,46.3132
2026-07-21T15:55:54.604,21.8467,47.6465,46.5286
2026-07-21T15:55:54.609,21.8527,47.7835,46.7048
2026-07-21T15:55:54.620,21.8568,47.6856,46.8027
2026-07-21T15:55:54.631,21.8628,47.7835,46.8223
2026-07-21T15:55:54.655,21.893,47.7835,46.7636
2026-07-21T15:55:54.655,21.893,47.7639,46.3328
2026-07-21T15:55:54.661,21.8991,47.6073,45.9607
2026-07-21T15:55:54.671,21.9022,47.4115,45.902
2026-07-21T15:55:54.677,21.9022,47.2157,46.1761
2026-07-21T15:55:54.702,21.9319,47.0786,46.6265
2026-07-21T15:55:54.702,21.9319,46.9415,46.7048
2026-07-21T15:55:54.710,21.9319,46.6283,46.5873
2026-07-21T15:55:54.723,21.9483,46.3933,46.3719
2026-07-21T15:55:54.730,21.9642,46.1975,46.2545
2026-07-21T15:55:54.746,21.9786,46.1192,46.3328
2026-07-21T15:55:54.746,21.9786,46.2366,46.7048
2026-07-21T15:55:54.763,21.987,46.2954,46.9789
2026-07-21T15:55:54.763,22.0103,46.3541,47.1748
2026-07-21T15:55:54.779,22.0103,46.2562,47.0181
2026-07-21T15:55:54.779,22.0259,46.0408,46.7244
2026-07-21T15:55:54.802,22.0259,45.7863,46.4894
2026-07-21T15:55:54.825,22.0577,45.7471,46.4111
2026-07-21T15:55:54.825,22.0577,45.7275,46.3524
2026-07-21T15:55:54.825,22.0577,45.5513,46.5873
2026-07-21T15:55:54.825,22.0743,45.238,46.5873
2026-07-21T15:55:54.841,22.0763,45.0226,46.8027
2026-07-21T15:55:54.872,22.1081,44.7681,46.509
2026-07-21T15:55:54.872,22.1081,44.6702,46.2545
2026-07-21T15:55:54.872,22.1081,44.5527,46.0391
2026-07-21T15:55:54.891,22.1081,44.5919,45.9803
2026-07-21T15:55:54.902,22.1467,44.6114,46.0782
2026-07-21T15:55:54.907,22.1467,44.5723,46.0391
2026-07-21T15:55:54.921,22.1531,44.5723,45.902
2026-07-21T15:55:54.923,22.1531,44.4939,45.8628
2026-07-21T15:55:54.935,22.1881,44.7093,45.8237
2026-07-21T15:55:54.961,22.1881,44.866,45.8237
2026-07-21T15:55:54.961,22.1881,44.8464,45.902
2026-07-21T15:55:54.968,22.2003,44.631,45.8237
2026-07-21T15:55:54.968,22.2283,44.5135,45.7062
2026-07-21T15:55:55.003,22.2341,44.4548,45.7454
2026-07-21T15:55:55.003,22.2361,44.5331,45.9803
2026-07-21T15:55:55.003,22.2402,44.5135,46.274
2026-07-21T15:55:55.015,22.2422,44.5527,46.4503
2026-07-21T15:55:55.031,22.2707,44.3765,46.4111
2026-07-21T15:55:55.043,22.2707,44.2002,46.0195
2026-07-21T15:55:55.053,22.2798,44.1023,45.7649
2026-07-21T15:55:55.059,22.2798,44.1219,45.6083
2026-07-21T15:55:55.078,22.3113,44.3765,45.9607
2026-07-21T15:55:55.081,22.3113,44.6114,45.8237
2026-07-21T15:55:55.085,22.3208,44.5527,45.8628
2026-07-21T15:55:55.094,22.3284,44.396,45.5495
2026-07-21T15:55:55.123,22.3438,44.1219,45.1188
2026-07-21T15:55:55.123,22.3438,43.8086,44.8446
2026-07-21T15:55:55.126,22.3597,43.8086,44.8251
2026-07-21T15:55:55.143,22.3597,43.8869,45.0404
2026-07-21T15:55:55.153,22.391,44.1023,45.3537
2026-07-21T15:55:55.158,22.391,44.1611,45.5495
2026-07-21T15:55:55.158,22.391,44.1023,45.4516
2026-07-21T15:55:55.174,22.4084,43.9261,45.1971
2026-07-21T15:55:55.206,22.4368,43.8086,44.8446
2026-07-21T15:55:55.206,22.4368,43.9065,44.6293
2026-07-21T15:55:55.206,22.4368,43.6911,44.6097
2026-07-21T15:55:55.206,22.4527,43.6911,44.7076
2026-07-21T15:55:55.231,22.4527,43.5932,44.8642
2026-07-21T15:55:55.236,22.4894,43.6128,44.8642
2026-07-21T15:55:55.251,22.4894,43.4562,44.5313
2026-07-21T15:55:55.251,22.4894,43.3583,44.2572
2026-07-21T15:55:55.267,22.4999,43.2604,44.0418
2026-07-21T15:55:55.267,22.5257,43.1233,43.8264
2026-07-21T15:55:55.300,22.5328,42.9862,43.8656
2026-07-21T15:55:55.300,22.5328,42.9862,43.8656
2026-07-21T15:55:55.304,22.5423,42.9275,44.081
2026-07-21T15:55:55.340,22.5635,42.8687,44.1202
2026-07-21T15:55:55.340,22.5635,42.8492,43.9635
2026-07-21T15:55:55.340,22.5635,42.6925,43.5131
2026-07-21T15:55:55.347,22.5795,42.6142,43.3957
2026-07-21T15:55:55.362,22.6114,42.7317,43.4936
2026-07-21T15:55:55.378,22.613,42.7904,43.7481
2026-07-21T15:55:55.378,22.6165,42.9666,43.9243
2026-07-21T15:55:55.394,22.6165,42.8883,43.9831
2026-07-21T15:55:55.394,22.6165,42.6338,43.6502
2026-07-21T15:55:55.414,22.6448,42.3988,43.3761
2026-07-21T15:55:55.414,22.6448,42.203,43.1607
2026-07-21T15:55:55.431,22.659,42.1834,43.2978
2026-07-21T15:55:55.431,22.6646,41.9484,43.5327
2026-07-21T15:55:55.459,22.691,41.8897,43.5523
2026-07-21T15:55:55.459,22.691,41.831,43.5719
2026-07-21T15:55:55.459,22.691,41.6547,43.474
2026-07-21T15:55:55.479,22.7069,41.2435,43.1999
2026-07-21T15:55:55.490,22.7232,40.8323,42.8866
2026-07-21T15:55:55.490,22.7232,40.5386,42.7691
2026-07-21T15:55:55.506,22.7341,40.7149,43.0824
2026-07-21T15:55:55.521,22.7383,41.0673,43.474
2026-07-21T15:55:55.538,22.7542,41.2827,43.7285
2026-07-21T15:55:55.538,22.7699,41.4002,43.7481
2026-07-21T15:55:55.549,22.7699,41.0869,43.4348
2026-07-21T15:55:55.553,22.7699,41.0477,43.0824
2026-07-21T15:55:55.569,22.7977,40.7932,43.0236
2026-07-21T15:55:55.585,22.8025,40.8519,43.1215
2026-07-21T15:55:55.585,22.8339,40.8911,43.2782
2026-07-21T15:55:55.605,22.8339,40.9303,43.2782
2026-07-21T15:55:55.612,22.8339,41.1065,43.3957
2026-07-21T15:55:55.617,22.8339,41.2631,43.1411
2026-07-21T15:55:55.633,22.866,40.9694,42.8278
2026-07-21T15:55:55.649,22.866,40.7932,42.6124
2026-07-21T15:55:55.649,22.866,40.7344,42.5929
2026-07-21T15:55:55.649,22.882,40.7149,42.6712
2026-07-21T15:55:55.681,22.9065,40.6757,42.8082
2026-07-21T15:55:55.681,22.9095,40.6561,42.867
2026-07-21T15:55:55.681,22.9137,40.6953,42.6516
2026-07-21T15:55:55.705,22.9298,40.4212,42.3383
2026-07-21T15:55:55.719,22.9298,40.2841,42.0642
2026-07-21T15:55:55.721,22.9298,40.4016,42.1229
2026-07-21T15:55:55.728,22.9459,40.4603,42.1229
2026-07-21T15:55:55.744,22.97,40.4212,42.1033
2026-07-21T15:55:55.744,22.9781,40.1862,41.8096
2026-07-21T15:55:55.761,22.9803,39.8925,41.4963
2026-07-21T15:55:55.761,23.0078,39.6967,41.2614
2026-07-21T15:55:55.785,23.0099,39.6575,41.2809
2026-07-21T15:55:55.793,23.0099,39.6575,41.3397
2026-07-21T15:55:55.795,23.0099,39.6771,41.4376
2026-07-21T15:55:55.809,23.0413,39.5792,41.4572
2026-07-21T15:55:55.809,23.0413,39.4813,41.418
2026-07-21T15:55:55.825,23.0413,39.2659,41.418
2026-07-21T15:55:55.840,23.0731,39.0701,41.3397
2026-07-21T15:55:55.856,23.0731,38.9526,41.3201
2026-07-21T15:55:55.856,23.0731,38.8155,41.2418
2026-07-21T15:55:55.856,23.0914,38.561,41.0851
2026-07-21T15:55:55.888,23.1102,38.4043,40.811
2026-07-21T15:55:55.888,23.1209,38.3064,40.7327
2026-07-21T15:55:55.888,23.1209,38.2673,40.5956
2026-07-21T15:55:55.906,23.1209,38.2477,40.4977
2026-07-21T15:55:55.922,23.1526,37.9736,40.3215
2026-07-21T15:55:55.936,23.1526,37.7777,40.0669
2026-07-21T15:55:55.936,23.1526,37.6211,39.9494
2026-07-21T15:55:55.953,23.1856,37.5624,39.832
2026-07-21T15:55:55.967,23.192,37.3274,39.7145
2026-07-21T15:55:55.967,23.192,36.877,39.4991
2026-07-21T15:55:55.967,23.1999,36.4463,39.2445
2026-07-21T15:55:55.983,23.2167,36.0742,39.0487
2026-07-21T15:55:56.000,23.2167,35.8588,38.99
2026-07-21T15:55:56.007,23.2167,35.8197,38.9508
2026-07-21T15:55:56.025,23.2518,35.8001,38.9117
2026-07-21T15:55:56.031,23.2518,35.7609,38.8333
2026-07-21T15:55:56.031,23.2641,35.7218,38.7746
2026-07-21T15:55:56.047,23.2925,35.7609,38.6375
2026-07-21T15:55:56.066,23.2962,35.7022,38.6767
2026-07-21T15:55:56.066,23.2984,35.7218,38.755
2026-07-21T15:55:56.079,23.2984,35.8784,38.8921
2026-07-21T15:55:56.079,23.3281,35.9372,38.9313
2026-07-21T15:55:56.095,23.3281,36.0546,38.99
2026-07-21T15:55:56.113,23.3377,35.9959,38.8921
2026-07-21T15:55:56.113,23.3409,36.0155,38.8529
2026-07-21T15:55:56.127,23.3678,35.9959,38.8333
2026-07-21T15:55:56.138,23.3705,36.1721,38.99
2026-07-21T15:55:56.154,23.3705,36.4658,39.1466
2026-07-21T15:55:56.159,23.393,36.6029,39.4208
2026-07-21T15:55:56.178,23.4047,36.7008,39.3424
2026-07-21T15:55:56.182,23.4062,36.505,39.2837
2026-07-21T15:55:56.185,23.4107,36.4267,38.6375
2026-07-21T15:55:56.203,23.4284,36.2309,38.4613
2026-07-21T15:55:56.208,23.4393,36.4071,38.5201
2026-07-21T15:55:56.223,23.4393,36.5833,38.755
2026-07-21T15:55:56.231,23.4393,36.7595,38.9508
2026-07-21T15:55:56.243,23.4732,36.7791,39.0683
2026-07-21T15:55:56.243,23.4732,36.7204,38.99
2026-07-21T15:55:56.254,23.4868,36.6421,38.8138
2026-07-21T15:55:56.270,23.5115,36.6225,38.7942
2026-07-21T15:55:56.288,23.5183,36.6225,38.6767
2026-07-21T15:55:56.288,23.5229,36.6812,38.8921
2026-07-21T15:55:56.301,23.5287,36.7791,39.0879
2026-07-21T15:55:56.308,23.5521,36.9945,39.1271
2026-07-21T15:55:56.326,23.5521,37.2295,39.225
2026-07-21T15:55:56.333,23.5521,37.2686,39.1858
2026-07-21T15:55:56.343,23.5521,37.1512,38.9704
2026-07-21T15:55:56.352,23.5893,36.9554,38.8138
2026-07-21T15:55:56.366,23.5893,36.9358,38.8725
2026-07-21T15:55:56.367,23.5936,37.112,39.0683
2026-07-21T15:55:56.382,23.598,37.3861,39.3816
2026-07-21T15:55:56.390,23.6147,37.954,39.8515
2026-07-21T15:55:56.402,23.6147,38.3456,39.8711
2026-07-21T15:55:56.413,23.6305,38.2281,39.7145
2026-07-21T15:55:56.429,23.6462,37.8757,39.3816
2026-07-21T15:55:56.429,23.6462,37.5232,39.0292
2026-07-21T15:55:56.429,23.6462,37.484,39.1466
2026-07-21T15:55:56.457,23.6774,37.5428,39.5187
2026-07-21T15:55:56.461,23.6941,37.7777,39.9103
2026-07-21T15:55:56.461,23.6941,37.8365,39.969
2026-07-21T15:55:56.477,23.6941,37.7777,39.7536
2026-07-21T15:55:56.492,23.7254,37.5819,39.3033
2026-07-21T15:55:56.492,23.7254,37.3078,38.99
2026-07-21T15:55:56.509,23.7254,37.3274,39.1271
2026-07-21T15:55:56.524,23.7568,37.484,39.4795
2026-07-21T15:55:56.526,23.7568,37.7777,39.7928
2026-07-21T15:55:56.540,23.7568,37.9736,39.8907
2026-07-21T15:55:56.540,23.7568,37.8952,39.7536
2026-07-21T15:55:56.556,23.7964,37.6015,39.3424
2026-07-21T15:55:56.571,23.7964,37.1316,38.8333
2026-07-21T15:55:56.571,23.8044,36.8575,38.5201
2026-07-21T15:55:56.587,23.8201,36.7204,38.5592
2026-07-21T15:55:56.603,23.8201,36.6616,38.618
2026-07-21T15:55:56.611,23.8201,36.74,38.755
2026-07-21T15:55:56.619,23.836,36.6421,38.5592
2026-07-21T15:55:56.635,23.8528,36.3679,38.2068
2026-07-21T15:55:56.635,23.8528,35.7609,37.9914
2026-07-21T15:55:56.651,23.868,35.4476,37.5802
2026-07-21T15:55:56.651,23.884,35.2714,37.6585
2026-07-21T15:55:56.667,23.8948,35.291,37.776
2026-07-21T15:55:56.683,23.8999,35.4476,37.9326
2026-07-21T15:55:56.699,23.9161,35.663,38.1284
2026-07-21T15:55:56.699,23.9161,35.6043,38.148
2026-07-21T15:55:56.715,23.9322,35.4672,38.011
2026-07-21T15:55:56.729,23.9485,35.3497,37.8935
2026-07-21T15:55:56.731,23.9485,35.2127,37.7564
2026-07-21T15:55:56.747,23.9485,35.1735,37.6977
2026-07-21T15:55:56.747,23.9646,35.2322,37.8739
2026-07-21T15:55:56.763,23.9813,35.4085,38.1872
2026-07-21T15:55:56.763,23.9813,35.6043,38.4026
2026-07-21T15:55:56.779,23.9951,35.6239,38.4026
2026-07-21T15:55:56.796,24.0123,35.5064,38.3047
2026-07-21T15:55:56.796,24.0123,35.2714,37.9522
2026-07-21T15:55:56.811,24.0439,35.0756,37.8151
2026-07-21T15:55:56.811,24.0439,35.0756,37.7172
2026-07-21T15:55:56.827,24.0558,35.1148,37.8543
2026-07-21T15:55:56.827,24.0599,35.2322,37.8739
2026-07-21T15:55:56.859,24.076,35.2127,38.0501
2026-07-21T15:55:56.859,24.076,35.3106,37.9326
2026-07-21T15:55:56.870,24.091,35.2127,37.9131
2026-07-21T15:55:56.877,24.1156,35.0364,37.7956
2026-07-21T15:55:56.891,24.1156,34.9777,37.6977
2026-07-21T15:55:56.891,24.1254,34.8602,37.776
2026-07-21T15:55:56.910,24.1274,34.9777,37.8151
2026-07-21T15:55:56.922,24.1489,34.9777,37.9326
2026-07-21T15:55:56.930,24.1558,35.056,37.8543
2026-07-21T15:55:56.942,24.1558,34.8211,37.7368
2026-07-21T15:55:56.963,24.1862,34.684,37.5998
2026-07-21T15:55:56.963,24.1862,34.5469,37.4627
2026-07-21T15:55:56.970,24.1862,34.3903,37.2277
2026-07-21T15:55:56.970,24.1959,34.2924,37.2865
2026-07-21T15:55:56.985,24.2178,34.4882,37.4431
2026-07-21T15:55:57.001,24.2178,34.4882,37.6977
2026-07-21T15:55:57.011,24.2178,34.4294,37.7956
2026-07-21T15:55:57.017,24.2497,34.3511,37.7172
2026-07-21T15:55:57.032,24.2497,34.2532,37.5019
2026-07-21T15:55:57.032,24.2497,34.214,37.3452
2026-07-21T15:55:57.048,24.2659,34.0182,37.2473
2026-07-21T15:55:57.048,24.2818,33.9399,37.2277
2026-07-21T15:55:57.064,24.2818,33.9791,37.3648
2026-07-21T15:55:57.081,24.298,33.9791,37.4235
2026-07-21T15:55:57.081,24.298,33.9987,37.4235
2026-07-21T15:55:57.096,24.3139,33.9008,37.2081
2026-07-21T15:55:57.111,24.3298,33.9008,37.0515
2026-07-21T15:55:57.113,24.3298,33.8029,36.8753
2026-07-21T15:55:57.129,24.3458,33.8224,36.7774
2026-07-21T15:55:57.129,24.362,33.7245,36.8165
2026-07-21T15:55:57.144,24.362,33.7637,36.9732
2026-07-21T15:55:57.160,24.3779,33.6658,36.9928
2026-07-21T15:55:57.160,24.4027,33.607,36.8557
2026-07-21T15:55:57.177,24.4038,33.5287,36.8557
2026-07-21T15:55:57.193,24.4102,33.6462,36.7774
2026-07-21T15:55:57.214,24.433,33.5679,36.9144
2026-07-21T15:55:57.214,24.433,33.5875,36.8557
2026-07-21T15:55:57.221,24.433,33.5875,36.8949
2026-07-21T15:55:57.241,24.4579,33.5287,36.8557
2026-07-21T15:55:57.241,24.4579,33.4504,36.8165
2026-07-21T15:55:57.248,24.474,33.3133,36.6403
2026-07-21T15:55:57.272,24.4973,33.2938,36.4641
2026-07-21T15:55:57.272,24.4973,33.1958,36.4445
2026-07-21T15:55:57.272,24.4973,33.3133,36.5228
2026-07-21T15:55:57.294,24.5059,33.2938,36.6011
2026-07-21T15:55:57.312,24.5228,33.3329,36.5424
2026-07-21T15:55:57.312,24.5228,33.2546,36.6011
2026-07-21T15:55:57.321,24.5392,33.1371,36.2878
2026-07-21T15:55:57.336,24.555,33.1371,36.2487
2026-07-21T15:55:57.337,24.555,33.2938,36.3074
2026-07-21T15:55:57.352,24.5708,33.4112,36.5228
2026-07-21T15:55:57.370,24.5908,33.47,36.6207
2026-07-21T15:55:57.370,24.5978,33.5287,36.6403
2026-07-21T15:55:57.370,24.6014,33.4896,36.6795
2026-07-21T15:55:57.397,24.621,33.5679,36.6795
2026-07-21T15:55:57.405,24.621,33.607,36.7774
2026-07-21T15:55:57.412,24.6338,33.8029,36.934
2026-07-21T15:55:57.428,24.6534,34.0182,37.0711
2026-07-21T15:55:57.436,24.6534,34.1749,37.2081
2026-07-21T15:55:57.436,24.6647,34.2336,37.1886
2026-07-21T15:55:57.451,24.6647,34.1357,37.0711
2026-07-21T15:55:57.468,24.6966,34.0182,37.1886
2026-07-21T15:55:57.468,24.6966,34.0182,37.2669
2026-07-21T15:55:57.479,24.698,33.9399,37.3256
2026-07-21T15:55:57.496,24.7133,33.8224,37.1886
2026-07-21T15:55:57.496,24.728,33.7441,37.0123
2026-07-21T15:55:57.513,24.728,33.607,36.7774
2026-07-21T15:55:57.527,24.754,33.7245,36.7186
2026-07-21T15:55:57.528,24.7597,33.8224,36.9144
2026-07-21T15:55:57.528,24.7597,33.9595,36.8949
2026-07-21T15:55:57.543,24.7756,33.9203,36.699
2026-07-21T15:55:57.569,24.7914,33.9008,36.6599
2026-07-21T15:55:57.569,24.7914,33.8224,36.6599
2026-07-21T15:55:57.574,24.7985,33.7245,36.6599
2026-07-21T15:55:57.590,24.8136,33.9791,36.7578
2026-07-21T15:55:57.590,24.8234,34.1945,36.9144
2026-07-21T15:55:57.606,24.8234,34.3511,37.2081
2026-07-21T15:55:57.628,24.8395,34.4686,37.3844
2026-07-21T15:55:57.628,24.8395,34.4099,37.4235
2026-07-21T15:55:57.638,24.8612,34.2532,37.306
2026-07-21T15:55:57.654,24.888,34.1945,36.934
2026-07-21T15:55:57.654,24.888,34.214,36.8165
2026-07-21T15:55:57.670,24.8968,34.0966,36.6599
2026-07-21T15:55:57.676,24.8988,34.1161,36.6795
2026-07-21T15:55:57.702,24.9223,34.077,36.7578
2026-07-21T15:55:57.702,24.9223,34.1357,37.0711
2026-07-21T15:55:57.713,24.9223,34.4686,37.3844
2026-07-21T15:55:57.737,24.9508,34.7427,37.5802
2026-07-21T15:55:57.737,24.9508,34.8406,37.6585
2026-07-21T15:55:57.737,24.9508,34.7036,37.6389
2026-07-21T15:55:57.749,24.9666,34.5273,37.4235
2026-07-21T15:55:57.765,24.9837,34.2924,37.1886
2026-07-21T15:55:57.765,24.9915,34.214,37.404
2026-07-21T15:55:57.781,25.0009,34.2532,37.541
2026-07-21T15:55:57.781,25.0142,34.2336,37.776
2026-07-21T15:55:57.798,25.0142,34.1749,37.6977
2026-07-21T15:55:57.814,25.0142,33.9399,37.4235
2026-07-21T15:55:57.829,25.0458,33.6854,37.1494
2026-07-21T15:55:57.829,25.0458,33.5483,36.7969
2026-07-21T15:55:57.829,25.0458,33.5679,36.8165
2026-07-21T15:55:57.845,25.0775,33.6266,36.9144
2026-07-21T15:55:57.860,25.0775,33.5287,37.0123
2026-07-21T15:55:57.860,25.0775,33.5091,37.0319
2026-07-21T15:55:57.876,25.1143,33.3917,36.8753
2026-07-21T15:55:57.892,25.1143,33.2546,36.7969
2026-07-21T15:55:57.892,25.1175,33.0196,36.8753
2026-07-21T15:55:57.914,25.1425,32.9805,36.9928
2026-07-21T15:55:57.924,25.1425,32.9805,37.0711
2026-07-21T15:55:57.932,25.1425,32.9413,37.2277
2026-07-21T15:55:57.941,25.1809,32.9609,37.1886
2026-07-21T15:55:57.957,25.1809,32.9609,37.1298
2026-07-21T15:55:57.957,25.1892,32.863,36.7774
2026-07-21T15:55:57.972,25.1892,32.9413,36.7186
