6.1431885 -2.3162842 -1.4099121 14.199829 13.293457 50.454712 84.2926 70.59631 69.488525 90.63721 85.29968 86.8103 109.26819 115.41138 91.241455 61.935425 45.822144 31.82373 16.113281 -36.557007 -61.23047 -52.468872 -55.993652 -66.970825 -69.488525 -95.97473 -117.82837 -88.82446 -76.33667 -60.525513 -59.21631 -52.468872 -63.848877 -84.09119 -69.992065 -59.820557 -46.92993 -25.982666 -12.789917 13.394165 20.645142 16.415405 19.23523 27.996826 40.786743 81.37207 112.18872 75.93384 54.885864 64.65454 71.20056 76.94092 98.291016 106.34766 81.37207 61.12976 29.910278 15.911865 11.984253 -17.422485 -22.558594 1.3092041 4.5318604 3.3233643 -8.660889 -63.64746 -102.11792 -98.0896 -92.34924 -77.84729 -84.99756 -99.19739 -105.23987 -124.17297 -114.20288 -96.37756 -70.3949 -45.52002 -31.219482 8.358765 24.069214 24.169922 23.26355 25.78125 26.78833 64.05029 89.02588 72.509766 66.6687 76.538086 64.956665 60.021973 74.82605 74.2218 54.483032 39.276123 24.975586 26.78833 31.723022 -8.056641 -8.056641 -8.056641 -8.056641 -8.056641 -8.056641 -8.056641 -8.056641 -8.056641 -8.056641 -8.056641 -8.056641 -8.056641 -8.056641 -8.056641 -8.056641 -8.056641 -8.056641 -8.056641 -8.056641 -8.056641 13.796997 19.638062 14.703369 24.572754 29.910278 61.12976 95.67261 82.37915 89.93225 107.25403 103.02429 99.49951 126.589966 131.22253 98.59314 75.4303 53.17383 37.36267 21.551514 -19.436646 -41.793823 -35.85205 -55.389404 -64.151 -77.948 -114.80713 -133.84094 -91.241455 -79.559326 -59.921265 -39.276123 -29.708862 -31.521606 -57.403564 -57.504272 -57.70569 -54.986572 -45.92285 -39.47754 -8.963013 4.9346924 -4.4311523 3.9276123 0.40283203 2.5177002 50.152588 82.88269 63.345337 55.08728 64.05029 51.5625 55.59082 83.99048 97.48535 78.95508 69.28711 54.986572 53.17383 44.613647 -6.0424805 -23.364258 -33.737183 -51.763916 -56.69861 -60.021973 -85.60181 -90.43579 -69.79065 -64.75525 -49.246216 -27.191162 -24.371338 -39.578247 -56.19507 -39.88037 -10.977173 0.40283203 15.408325 21.652222 36.758423 39.175415 29.910278 15.509033 17.926025 8.963013 53.57666 98.49243 89.730835 68.17932 57.20215 36.053467 25.78125 47.232056 63.446045 56.09436 43.707275 35.751343 24.874878 16.415405 -34.44214 
-87.11243 -64.05029 -53.17383 -39.88037 -18.22815 -44.91577 -60.324097 -12.890625 7.7545166 11.077881 34.94568 35.95276 24.975586 38.269043 65.460205 85.09827 97.18323 101.312256 98.19031 126.48926 113.1958 80.06287 65.25879 53.475952 33.83789 40.283203 37.261963 -0.60424805 -21.148682 -36.758423 -49.145508 -47.332764 -47.735596 -41.592407 -69.488525 -79.96216 -84.2926 -82.27844 -69.28711 -95.5719 -89.42871 -72.9126 -64.453125 -56.295776 -35.95276 -39.678955 -32.93152 12.789917 24.472046 26.184082 33.9386 42.196655 33.132935 35.650635 76.43738 97.88818 107.05261 101.01013 98.59314 102.420044 85.40039 64.75525 59.1156 52.468872 47.232056 54.382324 42.700195 3.7261963 -6.3446045 -29.708862 -45.721436 -49.346924 -48.641968 -40.88745 -66.467285 -83.08411 -94.86694 -96.47827 -92.04712 -96.276855 -88.82446 -66.970825 -50.857544 -45.01648 -30.111694 -49.145508 -48.843384 -5.5389404 6.6467285 11.883545 34.744263 36.758423 26.889038 29.30603 57.907104 74.2218 88.92517 90.737915 88.0188 110.87952 97.98889 72.006226 67.17224 58.813477 47.232056 47.131348 41.592407 -1.0070801 -15.509033 -36.657715 -50.253296 -55.993652 -53.878784 -40.182495 -56.497192 -72.006226 -78.75366 -84.99756 -87.81738 -101.51367 -87.81738 -74.12109 -53.57666 -47.43347 -27.694702 -49.0448 -51.05896 -4.2297363 10.775757 18.22815 42.196655 44.815063 35.95276 50.354004 81.27136 88.32092 97.88818 93.255615 91.64429 112.08801 103.62854 71.80481 56.900024 45.822144 38.772583 52.166748 47.634888 6.3446045 -12.286377 -36.657715 -46.627808 -40.88745 -50.857544 -39.678955 -60.021973 -81.170654 -76.43738 -75.93384 -77.34375 -85.90393 -70.09277 -52.56958 -47.43347 -41.4917 -34.744263 -62.13684 -67.27295 -20.040894 -15.710449 1.7120361 19.436646 8.761597 4.7332764 29.104614 73.61755 104.333496 111.78589 101.916504 98.89526 129.40979 115.10925 95.87402 70.69702 58.511353 41.189575 43.807983 37.664795 5.0354004 12.487793 -10.675049 -44.311523 -43.304443 -41.693115 -28.701782 -54.986572 -83.28552 -94.16199 -94.56482 -93.65845 -105.340576 -94.46411 -66.36658 -59.417725 -57.000732 -58.007812 -66.26587 -49.54834 -3.1219482 7.8552246 13.595581 30.917358 25.881958 18.933105 29.608154 64.25171 90.93933 97.787476 96.67969 91.44287 125.582886 
-2788.3025 3211.0747 3227.6917 3245.114 3261.731 3278.1462 3294.5618 -3289.224 -3273.1108 -3256.9976 -3241.0857 -3225.3752 -3209.7656 -3194.3572 -3179.0496 -3163.9434 -3148.938 -3134.1338 -3119.5312 -3105.0293 -773.84033 3299.8992 3299.8992 3299.8992 3299.8992 3299.8992 3299.8992 3299.8992 3299.8992 3299.8992 3299.8992 3299.8992 3299.8992 3296.7773 3280.664 3264.7522 3249.0417 3233.3313 3217.8223 3201.9104 -3057.495 3212.1826 3229.7058 3246.222 3262.8386 3279.657 3296.173 -3287.4114 -3271.1975 -3255.2856 -3239.3738 -3223.5625 -3208.0535 -3192.5444 -3177.3376 -3162.332 -3147.3267 -3132.5225 -3117.92 -3103.5186 -1232.3639 3299.8992 3299.8992 3299.8992 3299.8992 3299.8992 3299.8992 3299.8992 3299.8992 3299.8992 3299.8992 3299.8992 3299.8992 3299.8992 3284.1887 3268.1763 3252.365 3236.6545 3221.045 3205.133 -3002.1057 3215.9087 3232.5256 3249.8474 3266.565 3282.8796 3299.1943 -3284.5916 -3268.3777 -3252.4658 -3236.554 -3220.8435 -3205.2336 -3189.8254 -3174.6184 -3159.5122 -3144.5068 -3129.904 -3115.3015 -3100.7996 -1268.9209 3299.8992 3299.8992 3299.8992 3299.8992 3299.8992 3299.8992 3299.8992 3299.8992 3299.8992 3299.8992 3299.8992 3299.8992 3299.8992 3286.908 3270.996 3255.1848 3239.4744 3223.8647 3207.953 3202.5146 3219.635 3237.0574 3253.8757 3270.1904 3287.0085 3299.8992 -3280.2612 -3264.148 -3248.236 -3232.3242 -3216.6138 -3201.1047 -3185.6963 -3170.4895 -3155.484 -3140.579 -3125.8757 -3111.3738 -3096.9727 -879.68445 3299.8992 3299.8992 3299.8992 3299.8992 3299.8992 3299.8992 3299.8992 3299.8992 3299.8992 3299.8992 3299.8992 3299.8992 3299.8992 3289.1235 3273.1108 3257.0984 3241.4885 3225.879 3209.8662 3207.4492 3221.045 3237.9639 3255.2856 3272.0032 3288.3179 3299.8992 -3279.1533 -3263.04 -3247.1282 -3231.2163 -3215.6067 -3200.0977 -3184.6892 -3169.4824 -3154.4768 -3139.6729 -3124.9695 -3110.3667 -3096.0662 -535.4645 3299.8992 3299.8992 3299.8992 3299.8992 3299.8992 3299.8992 3299.8992 3299.8992 3299.8992 3299.8992 3299.8992 3299.8992 3299.8992 3288.3179 3272.3052 3256.3933 3240.6829 3225.1738 3209.0605 3203.9246 3221.7498 3238.7695 3255.2856 3272.1038 3288.7207 3299.8992 -3278.4485 -3262.3352 -3246.222 -3230.5115 -3215.0024 -3199.3926 -3184.085 -3168.8782 -3153.8726 -3138.9678 -3124.1638 -3109.6619 -3095.462 
3154.074 3170.1873 3186.6028 3202.3132 3218.1243 3233.9355 3249.0417 3264.5508 3279.7576 3294.9646 -3290.0298 -3275.0244 -3260.2202 -3245.5168 -3230.9143 -3216.4124 -3202.1118 -3187.9119 -3173.9136 -3160.0159 3299.8992 3299.8992 3299.8992 3299.8992 3299.8992 3299.8992 3299.8992 3299.8992 3299.8992 3299.8992 3286.3037 3271.4995 3256.4941 3241.69 3226.9866 3212.384 3198.0835 3183.783 3169.6838 3154.9805 3155.9875 3172 3188.3147 3204.2266 3219.937 3235.6475 3250.8545 3266.2627 3281.5703 3296.7773 -3288.217 -3273.2117 -3258.4075 -3243.805 -3229.2021 -3214.7002 -3200.3997 -3186.3005 -3172.2014 -3158.4045 3299.8992 3299.8992 3299.8992 3299.8992 3299.8992 3299.8992 3299.8992 3299.8992 3299.8992 3299.8992 3286.908 3271.9023 3256.897 3242.0928 3227.4902 3212.9883 3198.587 3184.2864 3170.1873 3155.3833 3157.2966 3173.3093 3189.624 3205.435 3221.1455 3236.856 3252.063 3267.2698 3282.7788 3297.885 -3287.0085 -3272.2046 -3257.2998 -3242.5964 -3227.9937 -3213.5925 -3199.292 -3185.092 -3171.1943 -3157.2966 3299.8992 3299.8992 3299.8992 3299.8992 3299.8992 3299.8992 3299.8992 3299.8992 3299.8992 3299.8992 3288.7207 3273.715 3258.8103 3244.0063 3229.303 3214.7002 3200.299 3186.099 3172 3157.196 3159.2102 3175.122 3191.5374 3207.2478 3222.9583 3238.6687 3253.9763 3269.3848 3284.5916 3299.7986 -3285.1958 -3270.291 -3255.487 -3240.6829 -3226.2817 -3211.7798 -3197.5798 -3183.2793 -3169.3816 -3155.5847 3299.8992 3299.8992 3299.8992 3299.8992 3299.8992 3299.8992 3299.8992 3299.8992 3299.8992 3299.8992 3289.325 3274.4202 3259.4146 3244.6106 3229.8064 3215.3044 3200.9033 3186.7034 3172.5037 3157.6995 3160.2173 3176.3306 3192.6453 3208.3557 3224.0662 3239.3738 3254.9834 3270.3918 3285.6995 3299.8992 -3284.0881 -3269.284 -3254.3792 -3239.7766 -3225.2747 -3210.7727 -3196.5728 -3182.373 -3168.3745 -3154.5776 3299.8992 3299.8992 3299.8992 3299.8992 3299.8992 3299.8992 3299.8992 3299.8992 3299.8992 3299.8992 3289.5264 3274.6216 3259.7168 3244.9126 3230.1086 3215.6067 3201.1047 3186.9048 3172.9065 3157.901 3160.922 3176.9348 3193.1487 3208.96 3224.6704 3239.978 3255.6885 3270.996 3286.3037 3299.8992 -3283.5845 -3268.579 -3253.775 -3239.273 -3224.6704 -3210.269 -3195.9685 -3181.8694 -3167.871 -3153.9734 
-2402.6917 1949.8077 3299.8992 3299.8992 3299.8992 3299.8992 3298.892 3283.2825 3277.0386 3292.749 -3291.641 -3276.233 -3260.8245 -3245.7183 -3230.8135 -3216.0095 -3201.4067 -3187.0056 -3172.9065 -2024.231 3299.8992 3299.8992 3299.8992 3299.8992 3299.8992 3299.8992 3299.8992 3299.8992 3299.8992 3291.742 3276.0315 3259.4146 -1563.9954 3269.284 3284.793 3299.8992 -3284.0881 -3268.881 -3253.775 -3238.7695 -2308.731 2208.5266 3299.8992 3299.8992 3299.8992 3299.8992 3297.6836 3281.6711 3275.2258 3291.1377 3299.8992 -3277.7434 -3262.5366 -3247.1282 -3232.3242 -3217.6208 -3203.018 -3188.516 -3174.3164 -1813.0463 3299.8992 3299.8992 3299.8992 3299.8992 3299.8992 3299.8992 3299.8992 3299.8992 3299.8992 3289.627 3273.9165 3257.5012 -1403.3661 3266.6655 3282.2754 3297.9858 -3286.8071 -3271.399 -3256.2927 -3241.388 -2034.906 2364.5232 3299.8992 3299.8992 3299.8992 3299.8992 3293.4539 3277.8442 3272.406 3288.1165 3299.8992 -3280.7646 -3265.3564 -3250.2502 -3235.2446 -3220.3398 -3205.7373 -3191.2354 -3177.0354 -1772.2595 3299.8992 3299.8992 3299.8992 3299.8992 3299.8992 3299.8992 3299.8992 3299.8992 3299.8992 3286.8071 3270.996 3251.056 -1823.4192 3265.5579 3281.1675 3296.6765 -3287.8142 -3272.9094 -3257.5012 -3242.4956 -2012.9517 2548.3154 3299.8992 3299.8992 3299.8992 3299.8992 3291.9434 3276.0315 3270.7947 3286.8071 3299.8992 -3282.376 -3266.7664 -3251.5593 -3236.7554 -3221.9512 -3207.2478 -3192.8467 -3178.5461 -1534.5886 3299.8992 3299.8992 3299.8992 3299.8992 3299.8992 3299.8992 3299.8992 3299.8992 3299.6978 3284.491 3268.982 3248.639 -2023.0225 3264.148 3279.7576 3295.3674 -3289.4255 -3274.0173 -3258.8103 -3243.9055 -2041.0492 2470.166 3299.8992 3299.8992 3299.8992 3299.8992 3290.634 3275.0244 3270.291 3286.3037 3299.8992 -3282.6782 -3267.3706 -3252.1636 -3237.2588 -3222.2534 -3207.7515 -3193.1487 -3179.0496 -1538.3148 3299.8992 3299.8992 3299.8992 3299.8992 3299.8992 3299.8992 3299.8992 3299.8992 3299.3958 3284.1887 3268.579 3248.3367 -1965.2161 3263.6443 3279.2542 3294.5618 -3290.1306 -3274.5208 -3259.4146 -3244.3083 -1798.1415 2835.2324 3299.8992 3299.8992 3299.8992 3299.8992 3288.1165 3272.3052 3267.572 3283.786 3299.1943 -3285.3972 -3269.989 -3254.8828 -3239.8772 -3224.9724 -3210.3699 -3195.868 -3181.5674 -1203.0579 
1977.8046 33.83789 -1970.05 2988.0066 3005.5298 3022.5493 3039.4683 3056.1858 3072.702 3089.218 3105.4321 3121.5454 3137.6587 3153.5706 3169.4824 3185.1929 3200.9033 3216.513 3231.9214 3247.229 -80.36499 3243.6035 3228.296 3213.794 3199.292 3184.6892 3170.0867 3155.5847 3140.3777 3125.8757 3111.3738 3096.8718 3082.672 3068.2708 3054.1716 3039.972 3025.9734 3011.975 2997.876 2981.4604 1994.4214 104.937744 -1906.2012 2987.7043 3005.0261 3022.046 3039.0654 3055.5815 3072.299 3088.7146 3104.9285 3121.1426 3137.2559 3153.1677 3168.9788 3184.79 3200.3997 3216.0095 3231.4177 3246.7253 18.22815 3242.7979 3227.9937 3213.2903 3198.4863 3183.8835 3169.3816 3154.779 3139.572 3125.2715 3110.669 3096.167 3081.7656 3067.566 3053.4668 3039.3677 3025.1677 3011.1694 2997.171 2981.0576 2075.1892 244.11621 -1723.3154 2985.1868 3001.9043 3019.1252 3036.0442 3052.7617 3069.2778 3085.794 3102.1086 3118.222 3134.2346 3150.348 3166.159 3181.9702 3197.6807 3213.2903 3228.6987 3244.0063 -146.73157 3240.7837 3226.181 3211.377 3196.5728 3181.9702 3167.6697 3152.9663 3137.7593 3123.3582 3108.9568 3094.4548 3080.0537 3065.7532 3051.654 3037.6555 3023.355 3009.4573 2995.459 2977.9358 1834.6985 -166.16821 -2125.3418 2988.7114 3006.3354 3023.355 3040.274 3056.79 3073.5076 3089.7217 3106.0364 3122.1497 3138.3635 3154.2754 3170.0867 3185.797 3201.6082 3217.1172 3232.5256 3247.8333 125.079346 3243.2007 3227.7922 3213.391 3198.7883 3184.3872 3169.8853 3155.2825 3140.0757 3125.473 3111.0718 3096.6704 3082.0679 3067.868 3053.6682 3039.6697 3025.5706 3011.5723 2997.4731 2980.6548 2001.9745 101.412964 -1867.4286 2986.798 3004.3213 3021.3408 3038.2598 3054.9773 3071.3928 3088.0095 3104.2236 3120.4375 3136.5508 3152.4626 3168.3745 3184.1858 3199.8962 3215.5059 3230.8135 3246.121 371.31042 3239.7766 3224.3682 3209.967 3195.2637 3180.8623 3166.4612 3151.8584 3136.7522 3122.2502 3107.7483 3093.4478 3078.9458 3064.6453 3050.4456 3036.447 3022.348 3008.3496 2994.351 2976.6265 1816.4703 -39.47754 -1962.6984 2985.9924 3003.2134 3020.3337 3037.2527 3053.9702 3070.5872 3087.0024 3103.3171 3119.5312 3135.5437 3151.4556 3167.3674 3183.078 3198.7883 3214.3982 3229.8064 3245.114 
-1639.4257 2112.4512 3299.8992 3299.8992 3295.8708 3280.1604 3264.2485 3248.1353 -1759.9731 3255.789 3272.5066 3289.224 3299.8992 -3278.247 -3262.033 -3246.121 -3230.31 -3214.7002 -3199.3926 -2155.0505 3299.8992 3299.8992 3299.8992 3299.8992 3299.8992 3299.8992 3299.8992 3292.044 3275.9307 3258.8103 3242.395 3214.3982 -889.85596 3234.5398 3251.1565 3267.7734 3284.491 3299.8992 -3282.9802 -3266.867 -1666.8182 2068.2402 3299.8992 3299.8992 3294.9646 3279.3547 3263.4429 3247.4304 -1981.43 3255.5876 3272.406 3288.922 3299.8992 -3278.3477 -3262.3352 -3246.3225 -3230.5115 -3215.0024 -3199.6948 -2106.1064 3299.8992 3299.8992 3299.8992 3299.8992 3299.8992 3299.8992 3299.8992 3291.742 3275.5278 3258.4075 3241.9922 3210.974 -901.9409 3234.137 3250.8545 3267.572 3284.0881 3299.8992 -3283.383 -3267.0684 -1600.0488 2072.168 3299.8992 3299.8992 3294.461 3278.65 3262.8386 3246.8262 -2205.4045 3255.3862 3272.2046 3288.7207 3299.8992 -3278.65 -3262.5366 -3246.524 -3230.612 -3215.103 -3199.6948 -1808.2123 3299.8992 3299.8992 3299.8992 3299.8992 3299.8992 3299.8992 3299.8992 3290.332 3274.118 3256.9976 3240.4814 3211.7798 -875.5554 3232.727 3249.3438 3266.162 3282.5774 3298.892 -3284.9944 -3268.881 -1366.4062 2332.901 3299.8992 3299.8992 3290.8354 3275.125 3259.1125 3243.2007 -2604.309 3252.8687 3269.6868 3286.203 3299.8992 -3281.1675 -3264.9536 -3248.8403 -3233.13 -3217.6208 -3202.2124 -1720.0928 3299.8992 3299.8992 3299.8992 3299.8992 3299.8992 3299.8992 3299.8992 3287.5122 3271.4995 3254.3792 3237.863 3144.3054 -1152.0996 3231.72 3248.4375 3265.0542 3281.6711 3297.9858 -3285.5986 -3269.6868 -1483.6304 2208.6272 3299.8992 3299.8992 3290.7349 3275.2258 3259.2131 3243.2007 -2459.5916 3252.5664 3269.3848 3285.901 3299.8992 -3281.2683 -3264.9536 -3249.1423 -3233.3313 -3217.9229 -3202.5146 -1748.291 3299.8992 3299.8992 3299.8992 3299.8992 3299.8992 3299.8992 3299.8992 3287.5122 3271.298 3254.2786 3237.6616 3126.178 -1189.3616 3231.8206 3248.7395 3265.2556 3281.7717 3298.0864 -3285.5986 -3269.3848 -1352.8107 2331.189 3299.8992 3299.8992 3289.8284 3274.3193 3258.307 3242.2942 -2609.143 3252.1636 3268.881 3285.498 3299.8992 -3281.7717 -3265.6584 -3249.646 -3233.9355 -3218.225 -3203.018 -1669.6381 
2923.9563 -190.64026 3080.3557 3097.0732 3113.6902 3130.1055 3146.4202 3162.5334 3178.6467 3194.5586 3210.5713 3226.3823 3241.9922 3257.7026 3273.3123 3288.8213 3299.8992 -3280.5632 -3265.2556 -3250.0488 -2050.6165 2630.0903 3299.8992 3299.8992 3299.8992 3297.3816 3282.2754 3266.9678 3251.6602 3236.2517 3220.4407 3205.6365 3190.8325 3176.1292 3161.6272 3147.0244 3132.5225 3118.0205 3103.418 3088.7146 2954.9744 -144.31458 3080.0537 3096.8718 3113.388 3129.904 3146.1182 3162.332 3178.3447 3194.3572 3210.1685 3225.9795 3241.7908 3257.2998 3272.8088 3288.4185 3299.8992 -3280.8655 -3265.6584 -3250.5522 -2107.4158 2344.583 3299.8992 3299.8992 3299.8992 3298.3887 3283.2825 3268.0754 3252.6672 3237.4602 3221.6492 3206.6436 3191.7388 3177.1362 3162.5334 3147.931 3133.429 3118.8262 3104.425 3089.6208 2867.459 -321.7621 3082.4707 3099.2888 3115.805 3132.2205 3148.4343 3164.5476 3180.661 3196.5728 3212.5854 3228.296 3244.0063 3259.616 3275.2258 3290.634 -3293.9575 -3278.65 -3263.3423 -3248.1353 -1862.5946 2833.621 3299.8992 3299.8992 3299.8992 3297.7844 3282.6782 3267.3706 3252.1636 3236.9568 3221.1455 3206.1401 3191.4368 3176.6326 3161.9292 3147.3267 3132.8247 3118.5242 3103.9214 3089.1174 2790.0146 -427.7069 3082.672 3099.591 3116.3086 3132.6233 3148.7366 3164.9504 3180.9631 3196.875 3212.8875 3228.598 3244.4092 3260.0188 3275.5278 3291.0369 -3293.5547 -3278.3477 -3263.1409 -3247.9338 -1869.6442 2672.992 3299.8992 3299.8992 3299.8992 3298.892 3283.786 3268.579 3253.1707 3237.7625 3221.8506 3207.1472 3192.2424 3177.539 3162.9363 3148.4343 3133.731 3119.229 3104.727 3089.923 2879.8462 -302.22473 3082.4707 3099.1882 3115.805 3132.2205 3148.4343 3164.6484 3180.661 3196.5728 3212.5854 3228.296 3244.107 3259.616 3275.3264 3290.7349 -3293.8567 -3278.4485 -3263.2415 -3248.1353 -1718.7836 2945.3064 3299.8992 3299.8992 3299.8992 3297.1802 3282.1746 3266.7664 3251.358 3236.2517 3220.3398 3205.6365 3190.8325 3176.1292 3161.5264 3146.823 3132.2205 3117.819 3103.3171 3088.5132 2587.4907 -861.85913 3085.391 3102.2095 3118.7256 3135.1409 3151.4556 3167.4683 3183.6821 3199.3926 3215.4053 3231.2163 3246.7253 3262.4358 3277.9448 3293.4539 -3291.1377 -3275.9307 -3260.623 -3245.5168 

100.20447 96.276855 69.58923 45.721436 20.544434 5.8410645 -9.869385 -57.403564 -74.2218 -85.09827 -81.37207 -72.61047 -75.32959 -88.52234 -110.77881 -88.92517 -70.3949 -64.453125 -67.57507 -64.75525 -63.345337 -70.999146 -46.728516 -23.464966 -22.76001 -23.666382 -4.3304443 19.436646 18.22815 27.090454 43.00232 59.921265 68.28003 97.98889 124.072266 94.262695 93.0542 107.958984 96.57898 114.70642 135.95581 132.83386 100.70801 75.32959 49.246216 35.44922 0 -70.69702 -94.766235 -85.198975 -69.68994 -60.424805 -55.389404 -71.90552 -81.87561 -61.935425 -59.317017 -70.79773 -89.83154 -110.37598 -113.1958 -116.21704 -82.78198 -57.20215 -38.87329 -19.839478 -9.265137 24.371338 30.413818 30.81665 32.025146 37.664795 40.786743 78.45154 94.16199 72.40906 73.013306 81.47278 69.79065 81.57349 99.90234 94.06128 55.59082 35.85205 23.76709 13.394165 4.9346924 -37.060547 -46.829224 -44.51294 -47.93701 -61.6333 -71.20056 -107.455444 -109.973145 -79.055786 -82.27844 -69.79065 -51.864624 -54.18091 -50.857544 -62.942505 -48.641968 -28.097534 -11.682129 -6.4453125 3.6254883 31.622314 33.233643 29.104614 35.751343 34.643555 27.090454 55.792236 67.67578 38.36975 38.571167 54.483032 60.928345 78.048706 104.03137 110.77881 77.645874 57.302856 23.666382 0 -22.659302 -68.58215 
17.523193 36.557007 71.60339 82.37915 96.07544 113.09509 116.31775 144.01245 124.97864 93.45703 66.970825 62.64038 64.55383 72.81189 62.13684 12.387085 -4.3304443 -33.83789 -78.552246 -88.92517 -74.92676 -43.103027 -58.511353 -66.16516 -58.61206 -65.963745 -77.84729 -94.66553 -78.45154 -61.12976 -56.799316 -54.785156 -53.778076 -70.495605 -62.841797 -24.371338 -3.9276123 -1.1077881 14.300537 15.710449 14.199829 35.34851 68.07861 83.58765 87.61597 82.37915 87.61597 118.13049 103.22571 82.681274 66.06445 52.468872 40.081787 46.124268 38.87329 -5.3375244 -17.72461 -36.154175 -49.95117 -43.606567 -48.339844 -40.98816 -62.64038 -73.013306 -77.948 -81.47278 -83.38623 -99.60022 -81.87561 -64.956665 -58.914185 -49.0448 -40.182495 -63.446045 -56.5979 -10.876465 4.0283203 13.092041 35.650635 36.35559 29.507446 43.90869 82.27844 87.213135 90.63721 83.688354 84.695435 111.38306 94.16199 73.013306 65.15808 45.620728 40.38391 47.93701 37.564087 -1.2084961 -23.364258 -38.36975 -59.014893 -52.06604 -61.12976 -48.03772 -73.41614 -90.83862 -90.63721 -94.16199 -90.03296 -100.808716 -85.702515 -68.68286 -58.511353 -47.43347 -43.40515 -58.20923 -55.69153 -12.991333 2.0141602 2.9205322 20.947266 25.982666 24.069214 38.571167 80.667114 94.86694 111.987305 117.32483 112.28943 140.8905 
-3196.4722 -3181.0637 -3165.857 -3150.8513 -3136.0474 -3121.344 -3106.842 -3092.642 -219.84558 3299.8992 3299.8992 3299.8992 3299.8992 3299.8992 3299.8992 3299.8992 3299.8992 3299.8992 3299.8992 3299.8992 3299.8992 3299.8992 3290.332 3274.3193 3258.609 3242.7979 3227.2888 3211.0747 3206.543 3224.469 3241.5894 3258.0046 3274.6216 3291.339 -3292.1448 -3275.7292 -3259.8174 -3243.805 -3227.9937 -3212.384 -3196.875 -3181.5674 -3166.3604 -3151.355 -3136.5508 -3121.7468 -3107.2449 -3093.045 88.82446 3299.8992 3299.8992 3299.8992 3299.8992 3299.8992 3299.8992 3299.8992 3299.8992 3299.8992 3299.8992 3299.8992 3299.8992 3299.8992 3288.5193 3272.5066 3256.7961 3240.985 3225.476 3209.1614 3207.55 3224.6704 3241.5894 3258.8103 3275.4272 3291.742 -3291.9434 -3275.6287 -3259.616 -3243.6035 -3227.893 -3212.1826 -3196.875 -3181.4666 -3166.3604 -3151.1536 -3136.4502 -3121.7468 -3107.3455 -3092.8435 440.094 3299.8992 3299.8992 3299.8992 3299.8992 3299.8992 3299.8992 3299.8992 3299.8992 3299.8992 3299.8992 3299.8992 3299.8992 3299.8992 3287.3108 3271.399 3255.487 3239.7766 3224.1667 3208.0535 3205.0322 3222.7568 3239.978 3256.3933 3273.1108 3289.7278 -3293.756 -3277.4414 -3261.3281 -3245.4163 -3229.5044 -3213.8945 -3198.3855 -3183.078 -3167.871 -3152.8655 -3137.9607 -3123.2573 -3108.8562 -3094.5557 
-3251.4587 -3236.856 -3222.354 -3207.953 -3193.753 -3179.5532 -3165.5547 -3151.7578 3299.8992 3299.8992 3299.8992 3299.8992 3299.8992 3299.8992 3299.8992 3299.8992 3299.8992 3299.8992 3290.5334 3275.5278 3260.5225 3245.819 3231.015 3216.513 3202.011 3187.8113 3173.7122 3158.8074 3162.5334 3179.0496 3194.8608 3210.5713 3226.3823 3241.5894 3257.2998 3272.6074 3287.915 3299.8992 -3281.9731 -3267.0684 -3252.1636 -3237.561 -3223.059 -3208.6577 -3194.3572 -3180.359 -3166.3604 -3152.5635 3299.8992 3299.8992 3299.8992 3299.8992 3299.8992 3299.8992 3299.8992 3299.8992 3299.8992 3299.8992 3289.627 3274.7222 3259.8174 3244.812 3230.1086 3215.6067 3201.3062 3187.1062 3172.8057 3157.8003 3162.03 3178.6467 3194.3572 3210.1685 3225.879 3241.5894 3256.897 3272.1038 3287.4114 3299.8992 -3282.376 -3267.4712 -3252.6672 -3238.0645 -3223.5625 -3209.0605 -3194.8608 -3180.661 -3166.7632 -3152.9663 3299.8992 3299.8992 3299.8992 3299.8992 3299.8992 3299.8992 3299.8992 3299.8992 3299.8992 3299.8992 3289.0227 3274.0173 3259.2131 3244.2078 3229.5044 3215.0024 3200.601 3186.4014 3172.2014 3157.0952 3162.4329 3178.4453 3194.76 3210.4705 3226.181 3241.8914 3257.199 3272.406 3287.7136 3299.8992 -3282.074 -3267.1692 -3252.4658 -3237.6616 -3223.2605 -3208.7585 -3194.5586 -3180.359 -3166.4612 -3152.664 
-3271.9023 -3256.6956 -3241.69 -3226.886 -3212.1826 -3197.6807 -3183.3801 -607.0679 3299.8992 3299.8992 3299.8992 3299.8992 3299.8992 3299.8992 3299.8992 3299.8992 3292.6482 3277.4414 3261.9324 3232.727 -2394.2322 3259.0117 3274.4202 3289.8284 3299.8992 -3279.5562 -3264.2485 -3248.941 -2044.4733 2509.845 3299.8992 3299.8992 3299.8992 3299.8992 3285.3972 3269.7876 3267.6726 3283.5845 3299.295 -3285.3972 -3270.0896 -3254.782 -3239.7766 -3224.8718 -3210.1685 -3195.868 -3181.4666 -879.0802 3299.8992 3299.8992 3299.8992 3299.8992 3299.8992 3299.8992 3299.8992 3299.8992 3295.166 3279.959 3264.45 3192.041 -2657.382 3262.1338 3277.8442 3293.3533 -3291.339 -3276.0315 -3260.8245 -3246.0205 -1970.755 2419.0063 3299.8992 3299.8992 3299.8992 3299.8992 3288.8213 3272.8088 3271.0967 3286.908 3299.8992 -3281.8726 -3266.6655 -3251.5593 -3236.554 -3221.7498 -3207.2478 -3192.7458 -3178.5461 -559.5337 3299.8992 3299.8992 3299.8992 3299.8992 3299.8992 3299.8992 3299.8992 3299.8992 3297.2808 3282.1746 3266.7664 3193.6523 -2577.3193 3264.047 3279.657 3295.0652 -3289.4255 -3274.3193 -3259.0117 -3244.0063 -1712.7411 2856.5825 3299.8992 3299.8992 3299.8992 3299.8992 3288.6199 3272.6074 3270.7947 3286.8071 3299.8992 -3282.376 -3267.0684 -3251.9622 -3236.9568 -3221.8506 -3207.3486 -3192.9473 -3178.7476 -195.37354 
3134.1338 3150.0457 3165.9575 3181.668 3197.4792 3212.9883 3228.3965 3245.7183 616.0309 3235.8489 3220.642 3206.2407 3191.6382 3177.0354 3162.6343 3148.1323 3133.0261 3118.4233 3104.0222 3089.7217 3075.2197 3061.0198 3046.9207 3032.9224 3018.7224 3004.8247 2990.927 2972.7996 1772.3602 -182.88574 -2145.7854 2984.4817 3002.005 3019.1252 3035.9436 3052.7617 3069.1772 3085.5925 3102.008 3118.0205 3134.2346 3150.1465 3165.9575 3181.8694 3197.4792 3213.0889 3228.598 3260.8245 590.0482 3235.9497 3220.642 3206.1401 3191.6382 3177.2368 3162.7349 3148.233 3133.1267 3118.6248 3104.1228 3089.6208 3075.2197 3061.1206 3047.0215 3033.023 3018.9238 3004.8247 2990.927 2972.9004 1812.2406 -154.98962 -2088.3818 2983.9783 3001.1992 3018.3196 3035.2385 3051.956 3068.4722 3084.9883 3101.2024 3117.517 3133.5295 3149.4414 3165.3533 3181.1646 3196.7742 3212.384 3227.893 3248.0347 599.7162 3235.2446 3220.4407 3205.7373 3190.933 3176.4312 3162.03 3147.4272 3132.321 3117.819 3103.418 3088.916 3074.6155 3060.5164 3046.3164 3032.2173 3018.1182 3004.2205 2990.2222 2971.4905 1687.6648 -278.45764 -2222.223 2985.4888 3002.71 3019.629 3036.6484 3053.2654 3069.882 3086.3982 3102.6123 3118.7256 3134.8389 3150.7507 3166.6626 3182.373 3198.0835 3213.693 3229.1016 3251.358 
3299.5972 -3283.9873 -3268.0754 -3251.9622 -3236.1511 -3220.642 -3205.133 -685.01587 3299.8992 3299.8992 3299.8992 3299.8992 3299.8992 3299.8992 3297.885 3281.6711 3265.457 3248.639 3232.1228 2841.275 -1185.3333 3227.2888 3244.0063 3260.623 3277.1392 3293.4539 -3290.332 -3164.9504 -1758.8654 1405.1788 3299.8992 3299.8992 3292.1448 3276.535 3260.8245 3244.812 3242.395 3259.5154 3276.233 3292.6482 -3290.9363 -3274.6216 -3258.609 -3242.697 -3226.9866 -3211.4775 -3196.2708 -1610.9253 3299.8992 3299.8992 3299.8992 3299.8992 3299.8992 3299.8992 3299.8992 3293.5547 3277.3406 3260.1196 3243.6035 3111.0718 -1294.6014 3237.863 3254.6814 3271.1975 3287.8142 3299.8992 -3279.657 -3263.5437 -934.7717 2766.751 3299.8992 3299.8992 3292.4468 3276.9377 3260.8245 3244.7112 3249.646 3256.3933 3273.1108 3289.627 3299.8992 -3277.542 -3261.5295 -3245.7183 -3229.9072 -3214.1968 -3198.9897 -897.30835 3299.8992 3299.8992 3299.8992 3299.8992 3299.8992 3299.8992 3299.8992 3287.7136 3271.6003 3254.3792 3237.9639 2988.9128 -1672.2565 3234.6404 3251.4587 3268.0754 3284.491 3299.8992 -3282.8796 -3266.867 -971.228 2675.308 3299.8992 3299.8992 3289.5264 3273.715 3257.8032 3241.7908 3238.0645 3254.8828 3271.701 3288.217 3299.8992 -3279.1533 -3262.9395 -3247.1282 -3231.4177 -3215.7073 -3200.3997 -872.5342 
3247.9338 3263.5437 3279.1533 3294.5618 -3290.2312 -3274.9236 -3259.7168 -3244.5098 -1423.407 3180.9631 3299.8992 3299.8992 3299.8992 3299.0935 3283.8867 3268.579 3253.1707 3238.0645 3222.2534 3207.2478 3192.4438 3177.7405 3163.037 3148.4343 3133.9324 3119.4304 3104.9285 3090.1245 2678.2288 -795.7947 3086.499 3103.2166 3119.7327 3136.148 3152.4626 3168.576 3184.5886 3200.5005 3216.513 3232.2234 3247.8333 3263.4429 3278.952 3294.461 -3290.1306 -3274.9236 -3259.616 -3244.5098 -1492.5934 3212.1826 3299.8992 3299.8992 3299.8992 3299.1943 3283.9873 3268.7805 3253.372 3238.2659 3222.354 3207.3486 3192.5444 3177.841 3163.2385 3148.6357 3134.1338 3119.6318 3105.13 3090.225 2704.9163 -622.6776 3085.492 3102.2095 3118.8262 3135.1409 3151.4556 3167.5688 3183.6821 3199.4934 3215.4053 3231.2163 3246.9268 3262.6372 3278.1462 3293.6553 -3291.0369 -3275.83 -3260.623 -3245.5168 -1450.4974 3262.033 3299.8992 3299.8992 3299.8992 3298.0864 3283.081 3267.7734 3252.4658 3236.9568 3221.2463 3206.3416 3191.6382 3176.9348 3162.332 3147.6287 3133.1267 3118.5242 3104.2236 3089.3188 2691.8242 -742.62085 3085.1897 3101.8066 3118.4233 3134.8389 3151.0527 3167.166 3183.2793 3199.1912 3215.103 3230.9143 3246.6248 3262.2344 3277.8442 3293.3533 -3291.339 -3276.132 -3260.9253 -3245.819 

-69.992065 -60.827637 -51.763916 -46.42639 -64.55383 -103.22571 -117.12341 -86.40747 -69.1864 -51.05896 -30.615234 -24.77417 -32.629395 -55.59082 -26.687622 -6.7474365 -2.7191162 -4.3304443 2.7191162 47.53418 38.067627 26.083374 13.696289 8.963013 8.459473 39.678955 57.000732 37.86621 42.700195 61.834717 53.57666 85.702515 104.53491 102.319336 75.631714 61.6333 38.87329 20.74585 3.2226562 -44.714355 -58.410645 -60.928345 -66.26587 -50.55542 -50.55542 -80.86853 -100.10376 -86.40747 -82.27844 -70.89844 -60.827637 -67.67578 -70.89844 -96.57898 -76.33667 -53.979492 -33.132935 -24.572754 -8.459473 25.680542 22.961426 21.047974 27.996826 30.31311 34.643555 73.81897 103.930664 66.87012 65.15808 71.502686 62.539673 80.26428 100.6073 89.52942 61.431885 44.815063 35.44922 29.708862 18.832397 -19.033813 -19.436646 -21.954346 -39.578247 -47.232056 -53.475952 -87.11243 -99.298096 -78.149414 -81.06995 -63.043213 -50.253296 -50.05188 -56.396484 -78.45154 -65.963745 -55.59082 -36.154175 -20.24231 -11.178589 18.530273 25.982666 14.602661 29.205322 37.765503 50.354004 89.02588 105.74341 82.07703 75.631714 94.46411 90.737915 102.11792 128.60413 123.065186 91.94641 78.45154 43.807983 38.87329 16.818237 -27.996826 -34.240723 -39.98108 -38.47046 -55.59082 -73.013306 -103.22571 -124.77722 -108.05969 -118.73474 -98.794556 -80.4657 -80.4657 -84.39331 -92.44995 -80.96924 -59.317017 -39.88037 -24.975586 -13.796997 9.667969 8.358765 8.258057 23.666382 25.579834 30.31311 80.96924 98.0896 67.17224 60.525513 81.47278 75.631714 85.29968 100.70801 86.60889 61.935425 58.410645 46.02356 50.656128 32.025146 -39.175415 -53.07312 -38.671875 -34.744263 -50.454712 -70.495605 -102.923584 -116.519165 -83.08411 -77.645874 -58.20923 -35.44922 -39.88037 -48.138428 -67.77649 -54.58374 -27.493286 -26.78833 -25.177002 -7.8552246 28.198242 24.472046 23.364258 16.012573 15.206909 26.184082 75.93384 96.67969 78.652954 75.73242 74.92676 58.511353 68.68286 94.06128 91.34216 65.963745 37.261963 15.710449 -0.40283203 -6.2438965 -46.829224 
114.10217 80.06287 64.85596 53.67737 47.53418 53.475952 41.99524 -5.8410645 -26.989746 -49.850464 -63.64746 -58.71277 -66.06445 -59.820557 -80.4657 -96.57898 -95.67261 -95.16907 -99.09668 -119.13757 -103.427124 -87.31384 -64.85596 -50.857544 -37.86621 -59.518433 -54.986572 -19.638062 -12.084961 5.8410645 54.68445 50.253296 17.422485 16.21399 62.036133 78.149414 82.58057 79.559326 74.12109 109.77173 90.43579 76.034546 62.942505 37.060547 37.060547 42.095947 25.579834 -11.077881 -28.198242 -43.50586 -59.71985 -58.20923 -61.532593 -38.671875 -58.511353 -73.81897 -75.531006 -78.45154 -88.42163 -102.319336 -81.87561 -60.827637 -48.742676 -46.829224 -37.261963 -52.368164 -45.620728 -2.0141602 4.5318604 3.6254883 17.120361 9.667969 3.3233643 25.78125 61.029053 79.2572 86.30676 87.61597 90.63721 118.43262 101.01013 78.75366 66.56799 53.17383 56.396484 61.23047 40.686035 -3.1219482 -24.472046 -45.117188 -62.338257 -53.475952 -54.885864 -54.986572 -75.83313 -90.03296 -99.801636 -92.752075 -93.255615 -108.462524 -84.695435 -66.16516 -61.6333 -47.836304 -46.728516 -63.546753 -47.131348 -3.2226562 3.2226562 6.6467285 29.104614 20.74585 13.494873 39.678955 78.85437 77.041626 98.794556 104.03137 103.22571 133.74023 110.37598 87.61597 76.84021 66.76941 67.67578 70.19348 37.161255 -7.3516846 -17.926025 -41.793823 -56.799316 -48.641968 -39.074707 -34.34143 -66.6687 -84.2926 -86.40747 -83.48694 -84.191895 -94.06128 -74.72534 -49.649048 -29.30603 -22.860718 -11.279297 -37.564087 -26.78833 3.1219482 8.660889 18.832397 36.557007 35.147095 29.608154 40.786743 72.71118 84.99756 92.85278 89.02588 95.269775 126.89209 112.39014 89.42871 77.948 67.57507 49.95117 39.276123 21.551514 -13.394165 -24.27063 -32.32727 -38.571167 -41.99524 -58.61206 -49.54834 -76.7395 -92.14783 -87.61597 -85.90393 -77.041626 -95.269775 -79.156494 -60.827637 -44.51294 -32.32727 -30.514526 -53.979492 -41.189575 -0.80566406 5.1361084 16.314697 38.36975 37.96692 32.42798 45.217896 73.61755 87.11243 98.89526 112.08801 125.68359 145.8252 
437.87842 3299.8992 3299.8992 3299.8992 3299.8992 3299.8992 3299.8992 3299.8992 3299.8992 3299.8992 3299.8992 3299.8992 3299.8992 3299.8992 3285.5986 3269.6868 3253.775 3238.1653 3222.7568 3206.3416 3204.8308 3221.9512 3239.4744 3255.789 3272.5066 3289.1235 -3294.2595 -3278.0457 -3261.9324 -3245.9197 -3230.1086 -3214.5996 -3198.9897 -3183.6821 -3168.3745 -3153.4697 -3138.565 -3123.8616 -3109.3596 -3095.059 1039.7095 3299.8992 3299.8992 3299.8992 3299.8992 3299.8992 3299.8992 3299.8992 3299.8992 3299.8992 3299.8992 3299.8992 3299.8992 3299.1943 3283.081 3267.1692 3251.358 3235.7483 3220.1384 3203.9246 3202.2124 3219.4336 3236.2517 3253.5735 3270.291 3286.6057 3299.8992 -3280.8655 -3264.7522 -3248.7395 -3232.9285 -3217.218 -3201.709 -3186.4014 -3171.1943 -3156.0881 -3141.2842 -3126.48 -3111.978 -3097.7783 949.173 3299.8992 3299.8992 3299.8992 3299.8992 3299.8992 3299.8992 3299.8992 3299.8992 3299.8992 3299.8992 3299.8992 3299.8992 3296.878 3280.7646 3264.8528 3249.1423 3233.5327 3217.9229 3201.709 3200.0977 3217.8223 3234.9426 3251.358 3268.0754 3284.793 3299.8992 -3282.376 -3266.162 -3250.1494 -3234.3384 -3218.7285 -3203.119 -3187.8113 -3172.6042 -3157.498 -3142.5933 -3127.89 -3113.1865 -3098.886 1294.4 3299.8992 3299.8992 3299.8992 3299.8992 3299.8992 3299.8992 3299.8992 3299.8992 3299.8992 3299.8992 3299.8992 3299.8992 3293.9575 3277.9448 3262.033 3246.3225 3230.612 3215.2039 3198.8892 3198.8892 3215.9087 3233.432 3249.8474 3266.565 3283.2825 3299.7986 -3283.8867 -3267.7734 -3251.8616 -3235.8489 -3220.1384 -3204.5288 -3189.3218 -3174.0142 -3158.908 -3144.0032 -3129.2998 -3114.6973 -3100.296 1362.9822 3299.8992 3299.8992 3299.8992 3299.8992 3299.8992 3299.8992 3299.8992 3299.8992 3299.8992 3299.8992 3299.8992 3299.8992 3292.2454 3276.233 3260.321 3244.6106 3229.0007 3213.5925 3197.177 3197.2778 3215.0024 3231.6191 3248.941 3265.5579 3281.9731 3298.2878 -3285.3972 -3269.284 -3253.2715 -3237.4602 -3221.7498 -3206.2407 -3190.8325 -3175.525 -3160.5193 -3145.514 -3130.7097 -3116.1072 -3101.7058 
3299.8992 3299.8992 3299.8992 3299.8992 3299.8992 3299.8992 3299.8992 3299.8992 3299.8992 3299.8992 3288.5193 3273.5137 3258.5083 3243.704 3229.1016 3214.4988 3200.0977 3185.8977 3171.7986 3156.5918 3162.4329 3178.5461 3194.76 3210.6719 3226.3823 3241.5894 3257.199 3272.6074 3287.915 3299.8992 -3281.9731 -3267.0684 -3252.365 -3237.6616 -3223.059 -3208.7585 -3194.458 -3180.359 -3166.3604 -3152.664 3299.8992 3299.8992 3299.8992 3299.8992 3299.8992 3299.8992 3299.8992 3299.8992 3299.8992 3299.8992 3287.915 3272.8088 3257.8032 3242.9993 3228.3965 3213.794 3199.3926 3185.1929 3171.0938 3155.5847 3162.03 3178.0425 3194.2566 3210.1685 3225.778 3241.4885 3256.6956 3272.0032 3287.3108 3299.8992 -3282.4768 -3267.572 -3252.8687 -3238.0645 -3223.5625 -3209.262 -3194.9614 -3180.8623 -3166.864 -3126.3794 3299.8992 3299.8992 3299.8992 3299.8992 3299.8992 3299.8992 3299.8992 3299.8992 3299.8992 3299.8992 3285.901 3270.996 3256.0913 3241.1865 3226.4832 3212.1826 3197.6807 3183.4807 3169.3816 3153.772 3160.3179 3176.3306 3192.6453 3208.4563 3224.1667 3239.7766 3255.0842 3270.3918 3285.6995 3299.8992 -3284.0881 -3269.1833 -3254.3792 -3239.6758 -3225.2747 -3210.7727 -3196.4722 -3182.373 -3168.3745 -3154.5776 3299.8992 3299.8992 3299.8992 3299.8992 3299.8992 3299.8992 3299.8992 3299.8992 3299.8992 3299.6978 3284.5916 3269.6868 3254.782 3239.8772 3225.2747 3210.7727 3196.3713 3182.1716 3168.0725 3149.3408 3159.5122 3175.827 3192.041 3207.7515 3223.462 3239.1724 3254.48 3269.7876 3285.0952 3299.8992 -3284.793 -3269.8882 -3255.0842 -3240.3809 -3225.879 -3211.377 -3197.177 -3182.9773 -3168.9788 -3032.0159 3299.8992 3299.8992 3299.8992 3299.8992 3299.8992 3299.8992 3299.8992 3299.8992 3299.8992 3298.2878 3283.2825 3268.2769 3253.372 3238.568 3223.9653 3209.4634 3195.1628 3180.8623 3166.864 3141.0828 3159.3108 3175.525 3191.7388 3207.55 3223.1597 3238.971 3254.0771 3269.284 3284.5916 3299.5972 -3285.1958 -3270.1904 -3255.487 -3240.6829 -3226.181 -3211.8804 -3197.4792 -3183.4807 -3169.3816 -3029.8003 
3299.8992 3299.8992 3299.8992 3299.8992 3299.8992 3299.8992 3299.8992 3299.8992 3296.576 3281.4697 3265.5579 3153.6711 -2822.946 3264.3494 3279.959 3295.166 -3289.325 -3274.0173 -3258.7097 -3243.805 -1634.3903 2752.8533 3299.8992 3299.8992 3299.8992 3299.8992 3288.5193 3272.5066 3271.399 3287.21 3299.8992 -3281.6711 -3266.464 -3251.1565 -3236.2517 -3221.4478 -3206.845 -3192.4438 -3178.244 -278.0548 3299.8992 3299.8992 3299.8992 3299.8992 3299.8992 3299.8992 3299.8992 3299.8992 3296.9788 3281.7717 3266.0613 3112.1794 -3036.145 3265.5579 3281.067 3296.576 -3288.0156 -3272.9094 -3257.7026 -3242.7979 -1778.8055 2715.2893 3299.8992 3299.8992 3299.8992 3299.8992 3290.634 3274.5208 3274.4202 3290.2312 3299.8992 -3278.8513 -3263.4429 -3248.3367 -3233.432 -3218.628 -3203.8237 -3189.624 -3175.424 -178.25317 3299.8992 3299.8992 3299.8992 3299.8992 3299.8992 3299.8992 3299.8992 3299.8992 3299.6978 3284.491 3268.7805 3061.8254 -3134.5366 3268.579 3284.2896 3299.6978 -3284.793 -3269.7876 -3254.5806 -3239.4744 -1465.6036 3132.321 3299.8992 3299.8992 3299.8992 3299.8992 3290.9363 3274.6216 3275.125 3290.9363 3299.8992 -3278.0457 -3262.738 -3247.6318 -3232.727 -3217.9229 -3203.3203 -3188.919 -3174.7192 204.84009 3299.8992 3299.8992 3299.8992 3299.8992 3299.8992 3299.8992 3299.8992 3299.8992 3299.1943 3283.9873 3268.2769 3035.138 -3139.4714 3268.0754 3283.8867 3299.1943 -3285.498 -3270.1904 -3255.0842 -3240.0786 -1617.7734 2803.61 3299.8992 3299.8992 3299.8992 3299.8992 3292.2454 3276.132 3276.9377 3292.9504 -3291.742 -3276.233 -3260.9253 -3245.9197 -3231.015 -3216.211 -3201.6082 -3187.0056 -3172.8057 452.07825 3299.8992 3299.8992 3299.8992 3299.8992 3299.8992 3299.8992 3299.8992 3299.8992 3299.8992 3285.5986 3269.7876 2959.607 3254.9834 3270.7947 3286.5051 3299.8992 -3282.8796 -3267.4712 -3252.365 -3237.3596 -1592.6971 2889.0105 3299.8992 3299.8992 3299.8992 3299.8992 3293.8567 3278.0457 3280.0598 3295.9717 -3288.5193 -3273.2117 -3257.904 -3242.7979 -3227.893 -3212.9883 -3198.7883 -3184.2864 -3170.1873 467.08374 
516.12854 3236.856 3222.1526 3207.4492 3192.6453 3178.1433 3163.6414 3149.0386 3133.9324 3119.5312 3105.0293 3090.5273 3076.2268 3062.0269 3047.8271 3033.8286 3019.7295 3005.8318 2991.934 2973.8066 1873.3704 -61.23047 -2032.7911 2983.8774 3001.4006 3018.521 3035.3394 3052.057 3068.573 3085.089 3101.4038 3117.6177 3133.6304 3149.5422 3165.454 3181.2651 3196.875 3212.4846 3227.9937 3263.4429 570.0073 3235.446 3220.1384 3205.7373 3191.1345 3176.6326 3162.332 3147.7295 3132.5225 3118.222 3103.5186 3089.1174 3074.817 3060.617 3046.4172 3032.5195 3018.4204 3004.3213 2990.5242 2971.1882 1696.7285 -224.88098 -2142.5627 2984.8845 3002.4077 3019.528 3036.2456 3053.064 3069.4792 3085.9954 3102.31 3118.4233 3134.436 3150.4485 3166.3604 3182.1716 3197.7812 3213.391 3228.9001 -3248.0347 966.8976 3233.9355 3219.1313 3204.3274 3189.7246 3175.122 3160.62 3146.0173 3130.9111 3116.51 3102.1086 3087.7075 3073.3062 3059.1064 3045.0073 3030.8074 3016.809 3002.8105 2988.9128 2969.7783 1605.3864 -258.51746 -2172.7751 2984.1797 3001.4006 3018.521 3035.44 3052.057 3068.7744 3084.9883 3101.303 3117.517 3133.6304 3149.5422 3165.5547 3181.2651 3196.875 3212.384 3227.9937 -3224.771 866.7938 3233.2305 3218.527 3203.7231 3189.1204 3174.6184 3160.2173 3145.514 3130.4077 3116.0063 3101.5044 3087.2039 3072.8027 3058.5022 3044.6045 3030.4045 3016.4062 3002.3071 2988.51 2968.5698 1514.9506 -430.0232 -2270.5627 2985.4888 3002.71 3019.8303 3036.7493 3053.4668 3069.882 3086.499 3102.8137 3118.927 3134.9395 3150.8513 3166.6626 3182.5745 3198.184 3213.794 3229.2021 -3217.1172 875.2533 3234.439 3219.3328 3204.9316 3190.4297 3175.9277 3161.4258 3146.9238 3131.7168 3117.2148 3102.8137 3088.4124 3074.0112 3059.912 3045.7122 3031.613 3017.6147 3003.5156 2989.618 2969.577 1505.5847 -482.49207 -2418.6035 2987.7043 3005.0261 3022.1465 3039.0654 3055.6824 3072.299 3088.5132 3104.9285 3121.0417 3137.155 3153.067 3168.8782 3184.6892 3200.299 3215.9087 3231.3171 -3140.579 
3299.8992 3299.8992 3299.8992 3299.8992 3299.8992 3299.8992 3299.8992 3286.3037 3270.1904 3252.9692 3236.4531 2927.9846 -1771.3531 3234.0361 3250.653 3267.2698 3283.786 3299.8992 -3283.5845 -3267.572 -963.0707 2560.199 3299.8992 3299.8992 3289.224 3273.6145 3257.5012 3241.4885 3238.2659 3255.0842 3271.9023 3288.4185 3299.8992 -3278.952 -3262.738 -3246.8262 -3231.1157 -3215.5059 -3200.1982 -786.52954 3299.8992 3299.8992 3299.8992 3299.8992 3299.8992 3299.8992 3299.8992 3286.203 3270.0896 3252.9692 3236.4531 2926.6753 -1843.7622 3234.137 3250.955 3267.6726 3284.0881 3299.8992 -3283.2825 -3267.1692 -1057.4341 2554.4585 3299.8992 3299.8992 3289.9292 3274.3193 3258.307 3242.0928 3239.6758 3256.6956 3273.413 3289.9292 3299.8992 -3277.3406 -3261.3281 -3245.3154 -3229.5044 -3214.096 -3198.7883 -869.1101 3299.8992 3299.8992 3299.8992 3299.8992 3299.8992 3299.8992 3299.8992 3287.915 3271.6003 3254.48 3237.863 2799.3804 -2031.784 3236.9568 3253.6743 3270.291 3286.7065 3299.8992 -3280.7646 -3264.6514 -912.0117 2716.5984 3299.8992 3299.8992 3291.2383 3275.6287 3259.616 3243.402 3241.4885 3258.4075 3275.125 3291.641 -3291.8425 -3275.6287 -3259.616 -3243.6035 -3227.9937 -3212.4846 -3197.0764 -500.4181 3299.8992 3299.8992 3299.8992 3299.8992 3299.8992 3299.8992 3299.8992 3288.3179 3272.0032 3254.9834 3238.3667 2848.7273 -1936.9171 3236.856 3253.5735 3270.1904 3286.7065 3299.8992 -3280.7646 -3264.6514 -874.1455 2705.6213 3299.8992 3299.8992 3291.1377 3275.3264 3259.314 3243.2007 3241.4885 3258.5083 3275.2258 3291.742 -3291.742 -3275.6287 -3259.616 -3243.6035 -3227.893 -3212.4846 -3197.0764 -408.5724 3299.8992 3299.8992 3299.8992 3299.8992 3299.8992 3299.8992 3299.8992 3288.0156 3271.8018 3254.5806 3238.0645 2766.8518 -2146.3896 3237.561 3254.3792 3271.0967 3287.5122 3299.8992 -3279.959 -3263.9465 -922.7875 2655.7708 3299.8992 3299.8992 3292.2454 3276.535 3260.5225 3244.2078 3244.0063 3260.8245 3277.542 3294.2595 -3289.4255 -3273.3123 -3257.199 -3241.1865 -3225.5767 -3210.0676 -3194.8608 -367.1814 
-1420.285 3273.2117 3299.8992 3299.8992 3299.8992 3297.583 3282.4768 3267.1692 3251.8616 3236.4531 3220.7427 3205.9387 3191.1345 3176.4312 3161.8286 3147.1252 3132.5225 3118.0205 3103.6194 3088.8152 2633.7158 -791.56494 3085.1897 3101.9072 3118.6248 3134.9395 3151.2542 3167.4683 3183.2793 3199.292 3215.103 3231.015 3246.6248 3262.3352 3277.8442 3293.2524 -3291.2383 -3276.0315 -3260.8245 -3245.7183 -1266.7053 3299.8992 3299.8992 3299.8992 3299.8992 3296.3745 3281.2683 3265.8599 3250.5522 3235.3455 3219.4336 3204.7302 3189.926 3175.2227 3160.62 3145.9167 3131.5154 3116.9128 3102.411 3087.6067 2658.49 -833.5602 3084.1826 3100.9001 3117.4163 3133.8318 3150.0457 3166.2598 3182.2722 3198.285 3214.1968 3229.8064 3245.5168 3261.2273 3276.7363 3292.2454 -3292.3462 -3277.1392 -3261.9324 -3246.7253 -1181.4056 3299.8992 3299.8992 3299.8992 3299.8992 3294.9646 3279.8584 3264.5508 3249.2432 3234.0361 3218.3257 3203.3203 3188.516 3173.9136 3159.2102 3144.6074 3130.2063 3115.6035 3101.2024 3086.3982 2591.4185 -860.95276 3083.377 3100.296 3116.7114 3133.3281 3149.4414 3165.5547 3181.668 3197.5798 3213.4917 3229.303 3244.812 3260.5225 3276.0315 3291.4397 -3293.1519 -3277.7434 -3262.6372 -3247.3296 -1145.2515 3299.8992 3299.8992 3299.8992 3299.8992 3293.8567 3278.8513 3263.4429 3248.1353 3232.9285 3217.1172 3202.3132 3187.509 3172.8057 3158.1023 3143.6003 3129.1992 3114.5964 3100.1953 3085.391 2524.4475 -969.11316 3083.2764 3099.994 3116.51 3132.8247 3149.1394 3165.3533 3181.2651 3197.2778 3213.2903 3229.0007 3244.4092 3260.1196 3275.83 3291.4397 -3293.2524 -3278.1462 -3262.8386 -3247.6318 -958.2367 3299.8992 3299.8992 3299.8992 3299.8992 3292.3462 3277.3406 3261.9324 3246.6248 3231.4177 3215.6067 3200.9033 3186.099 3171.4966 3156.7932 3142.1904 3127.6885 3113.2874 3098.7854 3083.8806 2450.4272 -1178.3844 3083.075 3099.7925 3116.3086 3132.6233 3148.938 3165.0513 3181.0637 3197.0764 3212.9883 3228.7993 3244.6106 3260.0188 3275.6287 3291.1377 -3293.4539 -3278.3477 -3262.9395 -3247.9338 

-47.53418 -41.89453 -31.622314 -19.940186 -22.357178 -38.168335 -42.700195 -25.579834 -38.974 -37.060547 -39.88037 -47.43347 -44.613647 -60.62622 -46.728516 -37.161255 -33.636475 -35.95276 -14.401245 26.083374 26.083374 26.083374 26.083374 26.083374 26.083374 26.083374 26.083374 26.083374 26.083374 26.083374 26.083374 26.083374 26.083374 26.083374 26.083374 26.083374 26.083374 26.083374 26.083374 26.083374 -40.081787 -40.686035 -50.55542 -52.670288 -67.07153 -106.951904 -109.57031 -82.681274 -88.32092 -86.00464 -66.970825 -59.518433 -57.10144 -83.99048 -61.6333 -50.656128 -27.79541 -8.157349 9.063721 29.708862 25.680542 14.602661 24.27063 22.961426 23.26355 67.474365 80.36499 65.15808 74.020386 88.0188 79.2572 94.3634 120.7489 113.59863 74.42322 62.841797 38.067627 22.76001 7.1502686 -38.87329 -33.132935 -28.399658 -36.35559 -43.203735 -65.66162 -97.98889 -100.00305 -82.78198 -75.83313 -61.935425 -52.972412 -63.14392 -52.56958 -75.128174 -63.14392 -39.98108 -33.9386 -24.673462 -8.056641 25.881958 30.111694 30.514526 27.593994 26.28479 36.154175 80.4657 81.47278 51.965332 52.670288 67.474365 57.403564 70.19348 96.8811 94.56482 64.05029 58.61206 42.599487 28.097534 14.501953 -27.191162 -28.097534 -42.297363 -48.94409 -49.145508 -66.76941 -95.269775 -107.85828 -83.38623 -82.27844 -69.992065 -70.89844 -80.163574 -72.30835 -84.79614 -70.89844 -49.246216 -45.92285 -28.601074 -11.380005 35.650635 48.54126 73.41614 90.5365 96.17615 84.2926 107.15332 97.58606 63.74817 65.66162 77.34375 82.177734 99.801636 113.09509 104.23279 70.3949 40.182495 -0.40283203 -19.436646 -48.138428 -86.10535 -80.26428 -74.523926 -82.177734 -75.83313 -90.33508 -118.93616 -109.16748 -82.9834 -81.06995 -66.76941 -60.72693 -74.92676 -63.848877 -78.95508 -68.88428 -63.14392 -63.446045 -52.166748 -27.191162 17.825317 22.860718 24.069214 28.29895 28.198242 32.125854 81.7749 105.6427 89.83154 91.744995 97.283936 89.12659 101.815796 117.12341 108.1604 76.638794 60.827637 38.168335 26.083374 9.265137 -44.210815 -38.974 -40.48462 -45.620728 -51.864624 -68.17932 -96.37756 -96.98181 -78.35083 -80.96924 -66.36658 -65.66162 -67.8772 -59.518433 -69.28711 -43.203735 -28.29895 -5.6396484 -0.10070801 12.084961 34.039307 
118.13049 84.695435 59.518433 43.807983 53.274536 71.20056 54.281616 6.9488525 -4.6325684 -20.645142 -41.693115 -42.700195 -56.396484 -45.217896 -72.509766 -81.06995 -83.99048 -89.227295 -91.34216 -97.283936 -76.23596 -64.75525 -53.57666 -40.48462 -35.95276 -59.014893 -43.807983 -2.0141602 3.8269043 11.883545 35.44922 30.615234 20.544434 52.871704 82.9834 108.76465 110.07385 109.57031 112.08801 146.83228 123.36731 96.780396 78.149414 72.61047 61.73401 67.17224 47.03064 -5.6396484 -24.77417 -42.800903 -61.12976 -52.468872 -53.17383 -38.87329 -61.6333 -51.461792 -60.62622 -72.61047 -83.28552 -101.01013 -83.78906 -69.89136 -57.302856 -49.0448 -40.88745 -57.70569 -45.01648 -3.0212402 -6.3446045 3.4240723 31.924438 35.247803 22.659302 42.39807 75.73242 84.191895 95.5719 88.723755 99.3988 126.690674 103.427124 82.88269 62.539673 52.468872 47.131348 58.914185 38.671875 -2.7191162 -17.22107 -39.175415 -53.475952 -51.461792 -49.54834 -46.627808 -64.55383 -74.72534 -78.048706 -78.35083 -77.74658 -94.16199 -80.36499 -60.021973 -45.41931 -38.067627 -36.657715 -50.55542 -31.82373 6.9488525 12.789917 22.155762 37.86621 31.219482 25.479126 52.871704 82.58057 92.55066 101.21155 98.99597 102.11792 133.63953 102.21863 82.58057 75.531006 60.72693 63.546753 68.78357 47.53418 17.019653 -0.20141602 -26.28479 -46.325684 -31.219482 -33.737183 -22.25647 -42.297363 -57.504272 -61.12976 -72.006226 -92.85278 -100.808716 -82.07703 -67.27295 -54.58374 -44.110107 -39.37683 -67.07153 -40.585327 3.5247803 17.623901 17.321777 31.521606 20.141602 17.623901 41.793823 76.33667 89.42871 92.34924 88.11951 87.61597 119.23828 99.19739 91.54358 78.25012 58.10852 56.799316 47.735596 13.897705 -9.063721 -13.796997 -29.507446 -48.03772 -44.91577 -49.54834 -26.083374 -37.46338 -43.203735 -52.770996 -57.806396 -74.2218 -90.43579 -74.72534 -65.963745 -55.792236 -42.700195 -43.103027 -61.12976 -37.36267 -8.862305 -2.7191162 0.70495605 32.32727 19.839478 26.486206 50.55542 79.2572 85.60181 101.815796 94.3634 95.16907 118.83545 92.65137 72.10693 61.6333 54.885864 52.670288 57.70569 27.392578 -2.6184082 -17.422485 -36.557007 -51.965332 -44.41223 -49.246216 -34.240723 -55.892944 -71.09985 -77.24304 -77.44446 -81.674194 -90.43579 
1920.5017 3299.8992 3299.8992 3299.8992 3299.8992 3299.8992 3299.8992 3299.8992 3299.8992 3299.8992 3299.8992 3299.8992 3299.8992 3289.4255 3273.2117 3257.5012 3241.5894 3226.0803 3210.5713 3194.1558 3196.17 3213.8945 3231.015 3247.4304 3264.047 3280.664 3297.3816 -3286.3037 -3270.291 -3254.1777 -3238.3667 -3222.7568 -3207.0464 -3191.6382 -3176.3306 -3161.2244 -3146.3196 -3131.5154 -3116.9128 -3102.5115 1721.5027 3299.8992 3299.8992 3299.8992 3299.8992 3299.8992 3299.8992 3299.8992 3299.8992 3299.8992 3299.8992 3299.8992 3299.8992 3289.0227 3272.9094 3257.0984 3241.388 3225.778 3210.269 3193.8538 3195.5657 3212.8875 3229.7058 3247.0276 3263.745 3280.0598 3296.3745 -3287.3108 -3271.1975 -3255.1848 -3239.3738 -3223.5625 -3207.953 -3192.5444 -3177.3376 -3162.1306 -3147.3267 -3132.5225 -3117.92 -3103.418 2413.2659 3299.8992 3299.8992 3299.8992 3299.8992 3299.8992 3299.8992 3299.8992 3299.8992 3299.8992 3299.8992 3299.8992 3299.8992 3285.6995 3269.7876 3253.8757 3238.1653 3222.6562 3207.1472 3190.8325 3192.9473 3210.6719 3227.893 3244.107 3260.9253 3277.542 3294.2595 -3289.4255 -3273.3123 -3257.2998 -3241.4885 -3225.5767 -3210.0676 -3194.6594 -3179.251 -3164.2456 -3149.3408 -3134.436 -3119.8333 -3105.4321 2416.8914 3299.8992 3299.8992 3299.8992 3299.8992 3299.8992 3299.8992 3299.8992 3299.8992 3299.8992 3299.8992 3299.8992 3299.6978 3283.484 3267.4712 3251.5593 3235.9497 3220.4407 3204.9316 3188.617 3190.8325 3207.852 3225.3752 3241.8914 3258.5083 3275.3264 3291.742 -3291.8425 -3275.6287 -3259.616 -3243.805 -3227.9937 -3212.384 -3196.875 -3181.668 -3166.4612 -3151.355 -3136.6516 -3121.9482 -3107.5469 1911.1359 3299.8992 3299.8992 3299.8992 3299.8992 3299.8992 3299.8992 3299.8992 3299.8992 3299.8992 3299.8992 3299.8992 3299.3958 3283.2825 3267.2698 3251.358 3235.6475 3220.2393 3204.7302 3188.214 3191.4368 3209.1614 3225.778 3242.9993 3259.7168 3276.132 3292.3462 -3291.339 -3275.2258 -3259.1125 -3243.3013 -3227.4902 -3211.8804 -3196.4722 -3181.0637 -3165.9575 -3151.0527 -3136.2488 -3121.4446 -3107.144 2314.9749 3299.8992 3299.8992 3299.8992 3299.8992 3299.8992 3299.8992 3299.8992 3299.8992 3299.8992 3299.8992 3299.8992 3298.6907 3282.4768 3266.464 3250.653 3234.9426 3219.4336 3204.0251 3187.4084 
3299.8992 3299.8992 3299.8992 3299.8992 3299.8992 3299.8992 3299.8992 3299.8992 3299.8992 3298.0864 3283.2825 3268.0754 3253.372 3238.3667 3223.8647 3209.1614 3195.0623 3180.661 3166.864 3151.4556 3159.3108 3175.424 3191.5374 3207.0464 3222.7568 3237.9639 3253.775 3268.982 3284.3901 3299.3958 -3285.2966 -3270.5933 -3255.6885 -3240.985 -3226.5837 -3211.9812 -3197.882 -3183.4807 -3169.6838 -2562.8174 3299.8992 3299.8992 3299.8992 3299.8992 3299.8992 3299.8992 3299.8992 3299.8992 3299.8992 3295.8708 3281.067 3265.8599 3251.1565 3236.1511 3221.7498 3207.0464 3192.9473 3178.6467 3164.6484 2933.4229 3159.5122 3175.525 3191.7388 3207.4492 3223.1597 3238.3667 3254.1777 3269.4854 3284.6924 3299.7986 -3285.0952 -3270.1904 -3255.3862 -3240.7837 -3226.0803 -3211.7798 -3197.4792 -3183.3801 -3169.3816 -2507.9314 3299.8992 3299.8992 3299.8992 3299.8992 3299.8992 3299.8992 3299.8992 3299.8992 3299.8992 3295.5688 3280.5632 3265.457 3250.7537 3235.9497 3221.2463 3206.7444 3192.4438 3178.244 3164.2456 3066.2566 3157.196 3173.7122 3189.5232 3205.2336 3220.8435 3236.2517 3251.9622 3267.2698 3282.4768 3297.6836 -3287.3108 -3272.406 -3257.5012 -3242.7979 -3228.296 -3213.794 -3199.4934 -3185.3943 -3171.3958 -2393.93 3299.8992 3299.8992 3299.8992 3299.8992 3299.8992 3299.8992 3299.8992 3299.8992 3299.8992 3293.2524 3278.1462 3263.2415 3248.4375 3233.6333 3218.93 3204.6294 3190.3289 3176.1292 3162.03 2920.0286 3156.491 3172.9065 3188.7175 3204.428 3220.1384 3235.446 3251.1565 3266.3635 3281.7717 3296.878 -3288.0156 -3273.2117 -3258.307 -3243.704 -3229.1016 -3214.5996 -3200.1982 -3186.2 -3172.2014 -2220.6116 3299.8992 3299.8992 3299.8992 3299.8992 3299.8992 3299.8992 3299.8992 3299.8992 3299.8992 3291.9434 3276.9377 3262.1338 3247.1282 3232.5256 3217.9229 3203.421 3189.1204 3174.9207 3160.8215 2708.139 3156.2896 3172.705 3188.617 3204.3274 3220.0378 3235.2446 3250.8545 3266.2627 3281.5703 3296.6765 -3288.217 -3273.413 -3258.5083 -3243.805 -3229.2021 -3214.801 -3200.5005 -3186.4014 -3172.3022 -2249.6155 3299.8992 3299.8992 3299.8992 3299.8992 3299.8992 3299.8992 3299.8992 3299.8992 3299.8992 3291.9434 3276.8372 3261.8315 3247.0276 3232.2234 3217.7214 3203.2195 3189.0198 3174.8198 3160.7207 2652.4475 
3299.8992 3299.8992 3299.8992 3299.8992 3299.8992 3299.8992 3299.8992 3299.8992 3299.8992 3287.5122 3271.8018 2975.8208 3273.5137 3272.5066 3288.0156 3299.8992 -3280.966 -3265.6584 -3250.8545 -3235.8489 -1460.2661 3155.8867 3299.8992 3299.8992 3299.8992 3299.8992 3294.7632 3278.549 3280.4626 3296.3745 -3288.1165 -3272.708 -3257.4004 -3242.1936 -3227.4902 -3212.7869 -3198.184 -3183.8835 -3169.8853 710.09216 3299.8992 3299.8992 3299.8992 3299.8992 3299.8992 3299.8992 3299.8992 3299.8992 3299.8992 3288.1165 3272.5066 2916.0002 3257.904 3273.816 3289.325 3299.8992 -3279.7576 -3264.5508 -3249.7466 -3234.5398 -1101.4435 3299.8992 3299.8992 3299.8992 3299.8992 3299.8992 3293.051 3277.0386 3280.3618 3296.0723 -3288.3179 -3273.0103 -3257.7026 -3242.5964 -3227.7922 -3212.8875 -3198.3855 -3184.2864 -3169.8853 850.98267 3299.8992 3299.8992 3299.8992 3299.8992 3299.8992 3299.8992 3299.8992 3299.8992 3299.8992 3286.908 3271.1975 2719.7205 3258.4075 3274.2188 3289.9292 3299.8992 -3279.3547 -3264.047 -3249.0417 -3234.0361 -1350.5951 3263.8457 3299.8992 3299.8992 3299.8992 3299.8992 3295.7703 3279.1533 3283.2825 3299.0935 -3285.498 -3269.989 -3254.782 -3239.7766 -3224.8718 -3210.1685 -3195.6665 -3181.366 -3167.0654 1380.0018 3299.8992 3299.8992 3299.8992 3299.8992 3299.8992 3299.8992 3299.8992 3299.8992 3299.8992 3289.224 3273.413 2678.833 3260.9253 3276.7363 3292.3462 -3292.1448 -3276.9377 -3261.731 -3246.524 -3231.5186 -1228.6377 3295.0652 3299.8992 3299.8992 3299.8992 3299.8992 3296.9788 3280.4626 3284.9944 3299.8992 -3283.5845 -3268.2769 -3253.1707 -3238.0645 -3223.1597 -3208.4563 -3193.9543 -3179.7546 -3165.5547 1690.0818 3299.8992 3299.8992 3299.8992 3299.8992 3299.8992 3299.8992 3299.8992 3299.8992 3299.8992 3289.7278 3274.0173 2724.9573 3261.1267 3276.9377 3292.5476 -3292.044 -3276.6357 -3261.4287 -3246.3225 -3231.4177 -1116.3483 3299.8992 3299.8992 3299.8992 3299.8992 3299.8992 3296.475 3276.132 3284.8938 3299.8992 -3283.786 -3268.2769 -3253.2715 -3238.1653 -3223.361 -3208.6577 -3194.1558 -3179.8552 -3165.5547 1684.0393 3299.8992 3299.8992 3299.8992 3299.8992 3299.8992 3299.8992 3299.8992 3299.8992 3299.8992 3290.0298 3274.3193 2653.1523 3262.033 3277.8442 3293.5547 -3291.2383 -3275.7292 -3260.5225 -3245.4163 -3230.5115 
1094.8975 3235.2446 3220.0378 3205.6365 3191.034 3176.6326 3162.1306 3147.6287 3132.321 3117.92 3103.418 3089.0166 3074.716 3060.617 3046.3164 3032.2173 3018.219 3004.3213 2990.3228 2970.1812 1485.4431 -478.86658 -2444.6868 2988.7114 3006.2346 3023.1536 3040.0725 3056.79 3073.2056 3089.6208 3105.9355 3122.1497 3138.162 3154.1748 3169.9858 3185.5957 3201.4067 3216.9158 3232.3242 -3123.9624 1194.9005 3235.7483 3220.7427 3206.0393 3191.2354 3176.834 3162.332 3147.83 3132.6233 3118.222 3103.72 3089.3188 3074.9175 3060.7178 3046.5178 3032.5195 3018.4204 3004.4219 2990.5242 2970.4834 1508.5052 -423.7793 -2382.4492 2988.4094 3005.5298 3022.6501 3039.4683 3056.1858 3072.702 3089.1174 3105.4321 3121.5454 3137.5579 3153.5706 3169.4824 3185.1929 3200.9033 3216.4124 3231.9214 -3049.4385 1321.5912 3234.3384 3219.635 3204.8308 3190.2283 3175.6255 3161.1235 3146.521 3131.5154 3117.0134 3102.5115 3088.1104 3073.8098 3059.6099 3045.4102 3031.311 3017.3125 3003.3142 2989.3157 2961.8225 1387.1521 -479.1687 -2349.115 2988.0066 3005.3284 3022.2473 3039.2668 3055.8838 3072.5005 3088.8152 3105.0293 3121.2432 3137.2559 3153.2683 3169.1802 3184.8906 3200.601 3216.0095 3231.6191 -2974.411 1358.9539 3233.5327 3218.7285 3204.0251 3189.3218 3174.8198 3160.3179 3145.7153 3130.6091 3116.2078 3101.7058 3087.4053 3072.9033 3058.8042 3044.6045 3030.4045 3016.5068 3002.5085 2988.6108 2964.441 1440.8295 -462.24976 -2344.583 2986.8987 3004.3213 3021.3408 3038.1592 3054.9773 3071.4934 3087.909 3104.2236 3120.4375 3136.3494 3152.362 3168.173 3183.9844 3199.594 3215.103 3230.612 -2970.6848 1394.7052 3232.4248 3217.1172 3202.8167 3188.3147 3173.8127 3159.3108 3144.7083 3129.602 3114.9993 3100.5981 3086.2976 3071.7957 3057.797 3043.5974 3029.4983 3015.6006 3001.5015 2987.6038 2926.5747 1290.976 -612.204 -2469.5618 2988.0066 3005.429 3022.4487 3039.3677 3055.9844 3072.4 3089.0166 3105.2307 3121.344 3137.4573 3153.3691 3169.1802 3184.8906 3200.601 3216.211 3231.6191 -2839.6636 1614.8529 3232.1228 3217.1172 3202.5146 3187.8113 3173.3093 3158.7065 3144.2046 3128.9978 3114.6973 3100.1953 3085.794 3071.3928 3057.2937 3043.1946 3029.0955 3014.9963 3000.9978 2987.201 2967.7642 
3299.8992 3299.8992 3299.8992 3299.8992 3299.8992 3299.8992 3299.8992 3290.0298 3273.9165 3256.6956 3239.978 2658.6914 -2365.8325 3240.7837 3257.6018 3274.118 3290.5334 3299.8992 -3277.0386 -3260.8245 -899.1211 2700.7874 3299.8992 3299.8992 3295.0652 3279.3547 3263.2415 3246.8262 3246.6248 3263.4429 3280.2612 3296.6765 -3287.0085 -3270.7947 -3254.6814 -3238.87 -3223.1597 -3207.7515 -3192.4438 -63.74817 3299.8992 3299.8992 3299.8992 3299.8992 3299.8992 3299.8992 3299.8992 3291.4397 3275.4272 3258.0046 3241.4885 2531.598 -2631.5002 3243.5027 3260.4216 3276.8372 3293.4539 -3290.332 -3274.2188 -3258.206 -952.79846 2670.877 3299.8992 3299.8992 3297.885 3282.2754 3266.2627 3249.646 3249.8474 3266.6655 3283.383 3299.8992 -3283.5845 -3267.3706 -3251.4587 -3235.5469 -3220.1384 -3204.6294 -3189.3218 -14.401245 3299.8992 3299.8992 3299.8992 3299.8992 3299.8992 3299.8992 3299.8992 3294.3604 3277.9448 3260.8245 3244.2078 2505.2124 -2623.4436 3246.222 3263.04 3279.657 3296.0723 -3287.6128 -3271.4995 -3255.487 -802.94495 2797.8699 3299.8992 3299.8992 3299.4963 3283.786 3267.7734 3248.236 3252.5664 3269.3848 3286.1023 3299.8992 -3281.1675 -3264.7522 -3248.7395 -3232.9285 -3217.4194 -3201.9104 -3186.8042 110.476685 3299.8992 3299.8992 3299.8992 3299.8992 3299.8992 3299.8992 3299.8992 3296.475 3280.1604 3262.9395 3246.3225 2603.302 -2444.1833 3247.531 3264.2485 3280.7646 3297.1802 -3286.5051 -3270.291 -3254.3792 -801.4343 2796.3591 3299.8992 3299.8992 3299.8992 3284.793 3268.7805 3249.0417 3253.5735 3270.4924 3287.3108 3299.8992 -3279.959 -3263.8457 -3247.7324 -3232.022 -3216.4124 -3201.004 -3185.797 621.167 3299.8992 3299.8992 3299.8992 3299.8992 3299.8992 3299.8992 3299.8992 3295.8708 3279.657 3262.4358 3245.7183 2449.9236 -2692.5293 3248.236 3265.0542 3281.5703 3298.0864 -3285.6995 -3269.5862 -3253.5735 -867.4988 2709.851 3299.8992 3299.8992 3299.8992 3286.1023 3269.989 3244.7112 3256.2927 3273.2117 3289.9292 3299.8992 -3277.3406 -3261.2273 -3245.2148 -3229.4036 -3213.794 -3198.4863 -3183.3801 484.60693 3299.8992 3299.8992 3299.8992 3299.8992 3299.8992 3299.8992 3299.8992 3298.892 3282.4768 3265.2556 3248.538 2433.1055 -2737.3442 3251.358 3268.0754 3284.6924 3299.8992 -3282.5774 -3266.464 -3250.5522 
-863.6719 3299.8992 3299.8992 3299.8992 3299.8992 3291.8425 3276.7363 3261.5295 3246.222 3230.9143 3215.103 3200.3997 3185.6963 3170.8923 3156.189 3141.7876 3127.2856 3112.8845 3098.2817 3083.4778 2440.5579 -1165.3931 3082.672 3099.4902 3116.0063 3132.321 3148.6357 3164.749 3180.8623 3196.6736 3212.5854 3228.296 3244.0063 3259.7168 3275.2258 3290.7349 -3293.8567 -3278.549 -3263.4429 -3248.236 -752.9938 3299.8992 3299.8992 3299.8992 3299.8992 3290.634 3275.4272 3260.321 3245.0134 3229.605 3213.8945 3199.1912 3184.4878 3169.7844 3155.182 3140.579 3125.9766 3111.7766 3096.9727 3082.3699 2378.421 -1216.1499 3081.967 3098.7854 3115.3015 3131.7168 3147.931 3164.0442 3180.0566 3195.9685 3211.8804 3227.893 3243.5027 3259.1125 3274.7222 3290.332 -3294.3604 -3279.0527 -3263.745 -3248.7395 -499.411 3299.8992 3299.8992 3299.8992 3299.8992 3288.3179 3273.1108 3257.8032 3242.5964 3227.3894 3211.679 3196.875 3182.0708 3167.3674 3152.765 3138.263 3123.761 3109.4604 3094.9585 3080.1543 2265.9302 -1480.1056 3081.665 3098.2817 3114.7979 3131.314 3147.528 3163.5405 3179.6538 3195.6665 3211.5784 3227.188 3242.8984 3258.609 3274.118 3289.5264 -3295.0652 -3279.7576 -3264.45 -3249.3438 -820.46814 3299.8992 3299.8992 3299.8992 3299.8992 3289.9292 3274.7222 3259.4146 3244.3083 3229.1016 3213.2903 3198.3855 3183.5815 3168.9788 3154.3762 3139.8743 3125.2715 3110.971 3096.469 3081.665 2238.034 -1440.7288 3082.974 3099.7925 3116.3086 3132.6233 3148.8372 3165.0513 3181.0637 3196.9756 3212.8875 3228.4973 3244.0063 3259.8174 3275.4272 3290.9363 -3293.5547 -3278.3477 -3263.1409 -3247.9338 -440.094 3299.8992 3299.8992 3299.8992 3299.8992 3288.8213 3273.6145 3258.307 3243.0999 3227.893 3212.1826 3197.2778 3182.5745 3167.9717 3153.2683 3138.7664 3124.1638 3109.9639 3095.3613 3080.5571 2292.819 -1429.4495 3081.7656 3098.4832 3114.9993 3131.314 3147.6287 3163.742 3179.7546 3195.767 3211.679 3227.4902 3242.9993 3258.7097 3274.2188 3289.627 -3294.7632 -3279.657 -3264.3494 -3249.2432 -357.0099 3299.8992 3299.8992 3299.8992 3299.8992 3287.21 3272.1038 3256.7961 3241.4885 3226.181 3210.4705 3195.767 3181.0637 3166.3604 3151.8584 3137.2559 3122.754 3108.4534 3093.8506 3079.1472 

36.254883 46.224976 46.42639 47.836304 58.71277 105.6427 116.922 96.57898 101.916504 110.77881 88.0188 102.62146 107.05261 95.47119 50.55542 37.36267 16.516113 -10.372925 -32.32727 -86.8103 -80.96924 -70.59631 -73.91968 -84.89685 -115.512085 -141.79688 -134.04236 -101.916504 -92.34924 -82.37915 -79.559326 -88.42163 -75.73242 -91.241455 -55.389404 -36.254883 -25.076294 -7.8552246 6.9488525 34.240723 35.44922 32.83081 39.578247 35.95276 45.318604 88.42163 89.52942 74.72534 78.149414 80.667114 61.23047 75.128174 88.52234 79.559326 54.986572 51.05896 27.694702 19.638062 -1.9134521 -57.504272 -49.44763 -50.857544 -60.22339 -71.502686 -105.03845 -135.15015 -121.65527 -86.30676 -79.35791 -63.64746 -47.735596 -57.806396 -41.4917 -60.12268 -35.247803 -32.025146 -13.293457 -2.6184082 6.5460205 25.479126 31.622314 39.678955 41.99524 44.311523 51.763916 103.125 107.455444 88.42163 82.88269 78.95508 58.914185 81.97632 113.59863 100.70801 64.956665 48.03772 25.579834 19.436646 1.1077881 -52.468872 -50.857544 -54.885864 -51.461792 -49.54834 -69.79065 -100.20447 -86.10535 -68.38074 -56.900024 -52.871704 -47.735596 -66.6687 -70.89844 -81.27136 -59.21631 -39.88037 -22.961426 -21.652222 -16.314697 16.113281 22.055054 30.413818 46.627808 45.117188 63.949585 108.1604 103.427124 89.730835 91.04004 95.773315 77.24304 98.19031 123.66943 108.76465 74.12109 53.57666 26.28479 23.364258 4.3304443 -56.09436 -54.885864 -49.649048 -59.1156 -53.274536 -73.31543 -106.04553 -103.02429 -85.40039 -79.45862 -70.89844 -58.71277 -64.453125 -67.07153 -84.191895 -62.438965 -44.110107 -25.680542 -13.897705 -1.5106201 24.371338 23.968506 12.286377 11.984253 11.984253 25.680542 71.60339 75.93384 57.70569 66.56799 69.992065 62.23755 74.32251 103.62854 81.57349 49.346924 29.708862 25.78125 17.019653 4.6325684 -43.707275 -29.910278 -32.42798 -39.276123 -46.829224 -71.502686 -97.48535 -91.34216 -78.149414 -74.2218 -63.345337 -50.857544 -63.949585 -59.71985 -70.89844 -44.0094 -35.046387 -16.918945 2.2155762 15.005493 51.965332 
-68.984985 -60.22339 -54.281616 -36.4563 -27.694702 -50.354004 -30.010986 6.1431885 17.019653 20.443726 38.671875 31.219482 24.371338 40.786743 70.69702 79.76074 91.8457 91.8457 101.61438 126.38855 105.340576 84.39331 73.41614 56.295776 53.07312 64.55383 29.30603 2.9205322 -12.286377 -32.83081 -45.318604 -38.974 -52.770996 -39.47754 -57.806396 -65.56091 -75.631714 -81.47278 -80.76782 -89.63013 -66.16516 -50.354004 -42.90161 -32.125854 -22.055054 -33.737183 -19.134521 8.157349 16.616821 27.493286 50.05188 46.124268 36.657715 58.914185 96.47827 103.02429 112.39014 106.54907 111.28235 136.66077 108.66394 90.33508 79.559326 73.61755 68.481445 66.36658 42.39807 12.286377 0 -14.602661 -39.074707 -40.686035 -50.756836 -32.93152 -56.900024 -58.10852 -63.14392 -71.7041 -80.76782 -84.49402 -57.60498 -51.461792 -37.664795 -29.406738 -24.27063 -48.54126 -26.586914 9.567261 4.4311523 11.682129 35.549927 30.81665 24.069214 54.281616 83.99048 93.35632 98.0896 91.14075 98.49243 123.2666 99.70093 79.86145 59.71985 57.403564 65.76233 78.048706 48.339844 7.1502686 -12.387085 -27.694702 -41.592407 -26.28479 -25.579834 -11.480713 -47.93701 -75.93384 -88.52234 -94.3634 -99.19739 -112.59155 -92.34924 -64.35242 -52.670288 -54.382324 -56.69861 -77.74658 -42.095947 -5.1361084 -3.1219482 10.070801 31.521606 27.29187 17.623901 44.613647 79.055786 82.27844 96.07544 82.27844 88.723755 117.42554 95.269775 80.96924 65.3595 44.110107 49.54834 50.05188 19.638062 -11.279297 -22.961426 -41.39099 -49.145508 -44.311523 -45.318604 -30.615234 -58.007812 -62.942505 -70.09277 -75.73242 -72.20764 -85.09827 -69.488525 -52.871704 -40.786743 -24.371338 -29.507446 -54.885864 -29.205322 7.6538086 1.8127441 3.3233643 23.867798 25.479126 26.687622 47.735596 79.76074 89.730835 108.36182 114.505005 115.31067 130.719 85.09827 70.79773 60.62622 57.60498 69.79065 69.38782 39.779663 6.2438965 -7.5531006 -19.23523 -36.35559 -37.564087 -39.88037 -37.96692 -62.338257 -75.4303 -77.545166 -85.29968 -95.87402 -98.19031 
3191.336 3209.1614 3226.181 3242.697 3259.314 3276.0315 3292.6482 -3291.0369 -3274.9236 -3258.8103 -3242.8984 -3227.188 -3211.679 -3196.0693 -3180.8623 -3165.756 -3150.7507 -3135.846 -3121.2432 -3106.842 2179.724 3299.8992 3299.8992 3299.8992 3299.8992 3299.8992 3299.8992 3299.8992 3299.8992 3299.8992 3299.8992 3299.8992 3299.3958 3283.1816 3267.1692 3251.2573 3235.6475 3220.1384 3204.7302 3188.0127 3191.9402 3208.8591 3226.2817 3242.9993 3259.5154 3276.233 3292.749 -3290.9363 -3274.7222 -3258.609 -3242.7979 -3227.0874 -3211.4775 -3195.9685 -3180.661 -3165.5547 -3150.5493 -3135.745 -3121.1426 -3106.5398 3165.3533 3299.8992 3299.8992 3299.8992 3299.8992 3299.8992 3299.8992 3299.8992 3299.8992 3299.8992 3299.8992 3299.8992 3295.166 3279.0527 3263.04 3247.229 3231.6191 3216.11 3200.601 3181.668 3189.624 3207.3486 3223.8647 3241.1865 3257.8032 3274.2188 3290.634 -3293.1519 -3277.0386 -3261.026 -3244.9126 -3229.303 -3213.693 -3198.184 -3182.9773 -3167.7703 -3152.765 -3137.86 -3123.2573 -3108.7554 2787.5977 3299.8992 3299.8992 3299.8992 3299.8992 3299.8992 3299.8992 3299.8992 3299.8992 3299.8992 3299.8992 3299.8992 3295.6694 3279.4556 3263.5437 3247.7324 3232.1228 3216.6138 3201.1047 3181.8694 3189.5232 3206.6436 3223.8647 3240.6829 3257.0984 3273.816 3290.4326 -3293.2524 -3277.0386 -3260.9253 -3245.114 -3229.2021 -3213.693 -3198.285 -3182.9773 -3167.7703 -3152.765 -3137.9607 -3123.2573 -3108.8562 2674.8047 3299.8992 3299.8992 3299.8992 3299.8992 3299.8992 3299.8992 3299.8992 3299.8992 3299.8992 3299.8992 3299.8992 3294.9646 3278.7505 3262.8386 3247.1282 3231.3171 3215.9087 3200.5005 3179.7546 3189.5232 3207.2478 3223.6633 3241.0857 3257.7026 3274.118 3290.4326 -3293.3533 -3277.0386 -3261.1267 -3245.114 -3229.4036 -3213.8945 -3198.3855 -3183.078 -3167.871 -3152.9663 -3138.162 -3123.4587 -3082.3699 3269.4854 3299.8992 3299.8992 3299.8992 3299.8992 3299.8992 3299.8992 3299.8992 3299.8992 3299.8992 3299.8992 3299.8992 3293.1519 3277.0386 3260.9253 3245.2148 3229.605 3214.1968 3198.7883 3170.8923 
3156.5918 3173.007 3188.7175 3204.428 3220.2393 3235.8489 3251.056 3266.565 3281.6711 3296.878 -3288.1165 -3273.1108 -3258.307 -3243.6035 -3229.1016 -3214.7002 -3200.299 -3186.099 -3172.1008 -2352.0354 3299.8992 3299.8992 3299.8992 3299.8992 3299.8992 3299.8992 3299.8992 3299.8992 3299.8992 3292.3462 3277.1392 3262.1338 3247.4304 3232.727 3218.0237 3203.6223 3189.3218 3175.122 3161.1235 2694.342 3156.3904 3172.4028 3188.617 3204.428 3220.0378 3235.8489 3251.1565 3266.2627 3281.5703 3296.878 -3288.217 -3273.2117 -3258.307 -3243.704 -3229.1016 -3214.5996 -3200.299 -3186.2 -3172.1008 -1894.7205 3299.8992 3299.8992 3299.8992 3299.8992 3299.8992 3299.8992 3299.8992 3299.8992 3299.8992 3290.9363 3275.9307 3260.8245 3246.121 3231.4177 3216.8152 3202.3132 3188.1133 3173.9136 3159.8145 2607.431 3155.7861 3171.698 3188.0127 3203.7231 3219.4336 3235.2446 3250.2502 3265.5579 3280.7646 3295.8708 -3288.922 -3274.0173 -3259.2131 -3244.5098 -3229.9072 -3215.5059 -3201.2053 -3187.0056 -3173.007 -1558.7585 3299.8992 3299.8992 3299.8992 3299.8992 3299.8992 3299.8992 3299.8992 3299.8992 3299.8992 3289.627 3274.6216 3259.616 3244.812 3230.1086 3215.5059 3201.1047 3186.9048 3172.705 3158.606 2406.015 3155.2825 3171.2952 3187.509 3203.119 3218.8293 3234.6404 3249.948 3265.2556 3280.5632 3295.6694 -3289.325 -3274.4202 -3259.5154 -3244.9126 -3230.2092 -3215.808 -3201.5076 -3187.3076 -3173.3093 -1345.5597 3299.8992 3299.8992 3299.8992 3299.8992 3299.8992 3299.8992 3299.8992 3299.8992 3299.8992 3288.3179 3273.413 3258.4075 3243.6035 3228.7993 3214.2974 3199.8962 3185.5957 3171.4966 3157.498 2296.2432 3154.5776 3170.4895 3186.8042 3202.5146 3218.1243 3233.9355 3249.0417 3264.45 3279.8584 3294.8638 -3290.0298 -3275.125 -3260.321 -3245.6177 -3230.9143 -3216.513 -3202.2124 -3188.0127 -3173.9136 -1017.2516 3299.8992 3299.8992 3299.8992 3299.8992 3299.8992 3299.8992 3299.8992 3299.8992 3299.8992 3287.1094 3272.1038 3257.0984 3242.2942 3227.5908 3213.0889 3198.587 3184.3872 3170.288 3156.0881 1962.2955 
-887.03613 3299.8992 3299.8992 3299.8992 3299.8992 3299.8992 3295.468 3274.3193 3284.9944 3299.8992 -3283.786 -3268.3777 -3253.1707 -3238.0645 -3223.059 -3208.7585 -3194.0552 -3179.7546 -3165.756 2069.8516 3299.8992 3299.8992 3299.8992 3299.8992 3299.8992 3299.8992 3299.8992 3299.8992 3299.8992 3289.1235 3273.0103 2531.598 3261.9324 3277.8442 3293.4539 -3291.1377 -3275.9307 -3260.623 -3245.5168 -3230.713 -1020.57495 3299.8992 3299.8992 3299.8992 3299.8992 3299.8992 3296.6765 3269.3848 3285.6995 3299.8992 -3282.9802 -3267.6726 -3252.365 -3237.3596 -3222.4548 -3207.852 -3193.35 -3179.1504 -3164.9504 2239.041 3299.8992 3299.8992 3299.8992 3299.8992 3299.8992 3299.8992 3299.8992 3299.8992 3299.8992 3289.627 3273.9165 2431.2927 3263.2415 3279.1533 3294.5618 -3289.8284 -3274.5208 -3259.314 -3244.2078 -3229.303 -1016.1438 3299.8992 3299.8992 3299.8992 3299.8992 3299.8992 3297.583 3238.7695 3288.3179 3299.8992 -3280.4626 -3265.0542 -3249.8474 -3234.8418 -3220.0378 -3205.3345 -3191.1345 -3176.6326 -3162.6343 2883.975 3299.8992 3299.8992 3299.8992 3299.8992 3299.8992 3299.8992 3299.8992 3299.8992 3299.8992 3290.634 3274.4202 2210.3394 3265.457 3281.2683 3296.878 -3287.6128 -3272.3052 -3257.0984 -3242.0928 -3227.188 -1335.791 3282.2754 3299.8992 3299.8992 3299.8992 3299.8992 3299.8992 3167.9717 3292.5476 -3291.641 -3276.233 -3260.7239 -3245.7183 -3230.713 -3216.0095 -3201.3062 -3186.9048 -3172.705 -3158.606 3158.606 3299.8992 3299.8992 3299.8992 3299.8992 3299.8992 3299.8992 3299.8992 3299.8992 3299.8992 3293.756 3277.7434 2230.3801 3268.4783 3284.2896 3299.8992 -3284.6924 -3269.3848 -3253.9763 -3238.971 -3224.2676 -1000.63477 3299.8992 3299.8992 3299.8992 3299.8992 3299.8992 3299.8992 3096.2676 3294.6624 -3289.8284 -3274.118 -3258.8103 -3243.6035 -3228.6987 -3213.8945 -3199.292 -3184.8906 -3170.7915 -3156.5918 3234.0361 3299.8992 3299.8992 3299.8992 3299.8992 3299.8992 3299.8992 3299.8992 3299.8992 3299.8992 3295.5688 3279.657 2249.9175 3270.291 3286.203 3299.8992 -3282.7788 -3267.572 -3252.4658 -3237.561 -3222.5554 
1633.786 -380.67627 -2316.989 2983.9783 3001.1992 3018.3196 3035.2385 3051.8555 3068.3716 3084.8877 3101.2024 3117.4163 3133.3281 3149.4414 3165.2527 3181.0637 3196.7742 3212.2832 3227.6917 -2918.921 1492.9962 3228.9001 3214.2974 3199.594 3184.79 3170.3887 3155.7861 3141.2842 3126.0771 3111.8774 3097.3755 3082.974 3068.4722 3054.373 3040.274 3026.2756 3012.277 2998.2788 2984.2803 2943.3928 1305.78 -638.6902 -2501.486 2985.1868 3002.5085 3019.528 3036.3464 3052.9631 3069.58 3085.9954 3102.31 3118.4233 3134.5366 3150.4485 3166.2598 3182.0708 3197.6807 3213.391 3228.7993 -2770.9807 1551.6083 3229.1016 3214.096 3199.594 3185.092 3170.691 3156.0881 3141.7876 3126.48 3112.1794 3097.577 3083.2764 3068.875 3054.6753 3040.6768 3026.5776 3012.4785 2998.5808 2984.683 2862.323 1003.05176 -818.7561 -2654.0588 2988.6108 3006.0332 3023.1536 3039.972 3056.5886 3073.1047 3089.4194 3105.7341 3121.8474 3137.9607 3153.8726 3169.6838 3185.5957 3201.1047 3216.7144 3232.1228 -2658.1877 1789.682 3231.2163 3215.9087 3201.6082 3187.1062 3172.5037 3158.1023 3143.4998 3128.2927 3113.7908 3099.2888 3085.089 3070.6877 3056.488 3042.389 3028.2898 3014.2913 3000.293 2986.3953 2886.8958 1236.4929 -711.09924 -2600.4822 2988.6108 3005.8318 3022.7507 3039.6697 3056.3872 3072.8027 3089.3188 3105.5327 3121.7468 3137.7593 3153.6711 3169.583 3185.3943 3201.004 3216.513 -3222.5554 -2351.7334 1372.348 3233.7341 3219.1313 3204.5288 3189.926 3175.424 3161.023 3146.521 3131.5154 3117.0134 3102.5115 3088.1104 3073.8098 3059.6099 3045.4102 3031.1096 3016.9097 3002.8105 2988.8123 2432.904 231.52771 -1997.9462 -3167.2668 -3267.7734 3182.776 3043.1946 3059.912 3076.4282 3092.743 3109.1582 3125.3723 3141.3848 3157.2966 3173.108 3188.919 3204.5288 3220.0378 3235.5469 3250.955 -2560.8032 1388.9648 3251.056 3236.4531 3221.7498 3207.0464 3192.6453 3178.0425 3163.339 3148.233 3133.731 3119.1284 3104.5256 3090.1245 3075.9246 3061.624 3047.4243 3033.2244 3019.226 3005.127 2984.2803 
-570.7123 3054.1716 3299.8992 3299.8992 3299.8992 3286.3037 3270.291 3241.9922 3256.6956 3273.715 3290.4326 3299.8992 -3276.9377 -3260.7239 -3244.812 -3228.9001 -3213.391 -3198.0835 -3182.9773 650.3723 3299.8992 3299.8992 3299.8992 3299.8992 3299.8992 3299.8992 3299.8992 3298.7915 3282.5774 3265.155 3248.4375 2421.3225 -2765.442 3251.5593 3268.3777 3284.8938 3299.8992 -3282.5774 -3266.464 -3250.4517 -521.06323 3103.5186 3299.8992 3299.8992 3299.8992 3286.1023 3270.1904 3205.536 3256.9976 3273.816 3290.5334 3299.8992 -3276.535 -3260.5225 -3244.6106 -3228.598 -3213.1897 -3197.882 -3182.8765 1012.7197 3299.8992 3299.8992 3299.8992 3299.8992 3299.8992 3299.8992 3299.8992 3297.9858 3281.6711 3264.3494 3247.6318 2234.912 -3001.703 3252.1636 3268.881 3285.498 3299.8992 -3281.7717 -3265.7593 -3249.948 -274.93286 3299.8992 3299.8992 3299.8992 3299.8992 3284.793 3268.881 3178.4453 3256.4941 3273.3123 3290.0298 3299.8992 -3277.3406 -3261.1267 -3245.114 -3229.4036 -3213.693 -3198.4863 -3183.2793 1225.7172 3299.8992 3299.8992 3299.8992 3299.8992 3299.8992 3299.8992 3299.8992 3296.878 3280.4626 3263.1409 3246.4233 2029.6692 -3283.8867 3252.5664 3269.284 3285.8 3299.8992 -3281.2683 -3265.3564 -3249.3438 -769.00635 2840.872 3299.8992 3299.8992 3299.8992 3289.325 3273.1108 3108.6548 3261.8315 3278.65 3295.3674 -3288.3179 -3272.0032 -3255.6885 -3239.8772 -3224.2676 -3208.7585 -3193.451 -3178.244 1611.8317 3299.8992 3299.8992 3299.8992 3299.8992 3299.8992 3299.8992 3299.8992 3299.8992 3284.1887 3266.9678 3250.1494 2002.8809 3247.8333 3256.5947 3273.2117 3289.8284 3299.8992 -3277.6428 -3261.4287 -3245.5168 -499.71313 2956.787 3299.8992 3299.8992 3299.8992 3291.2383 3275.0244 3095.059 3263.8457 3280.664 3297.1802 -3286.3037 -3270.0896 -3253.9763 -3237.9639 -3222.354 -3206.845 -3191.5374 -3176.4312 1668.7317 3299.8992 3299.8992 3299.8992 3299.8992 3299.8992 3299.8992 3299.8992 3299.8992 3285.901 3268.579 3251.8616 2031.9855 -3252.8687 3257.904 3274.6216 3291.1377 3299.8992 -3276.3335 -3260.2202 -3244.3083 
2271.0662 -1437.204 3080.4565 3097.174 3113.8916 3130.2063 3146.4202 3162.4329 3178.3447 3194.3572 3210.269 3226.181 3241.69 3257.2998 3273.0103 3288.4185 3299.8992 -3280.966 -3265.6584 -3250.5522 -186.51123 3299.8992 3299.8992 3299.8992 3299.8992 3284.793 3269.7876 3254.3792 3239.1724 3223.8647 3208.1543 3193.5515 3178.7476 3164.1448 3149.5422 3135.2417 3120.639 3106.3384 3091.8364 3077.0325 2161.3953 -1640.4327 3079.651 3096.469 3112.8845 3129.1992 3145.6145 3161.7278 3177.7405 3193.451 3209.4634 3225.3752 3240.985 3256.7961 3272.1038 3287.8142 3299.8992 -3281.6711 -3266.3635 -3251.358 -339.28528 3299.8992 3299.8992 3299.8992 3299.6978 3284.793 3269.6868 3254.2786 3239.1724 3223.764 3208.1543 3193.451 3178.6467 3164.0442 3149.4414 3135.0403 3120.5383 3106.137 3091.7358 3076.831 2074.4841 -1716.0645 3080.1543 3096.7712 3113.388 3129.8035 3146.0173 3162.1306 3178.1433 3194.1558 3210.0676 3225.778 3241.388 3256.9976 3272.5066 3288.1165 3299.8992 -3281.067 -3265.9607 -3250.8545 -295.17517 3299.8992 3299.8992 3299.8992 3299.8992 3285.0952 3269.989 3254.6814 3239.4744 3224.2676 3208.5571 3193.753 3179.0496 3164.447 3149.8442 3135.2417 3120.9412 3106.5398 3092.0378 3077.133 2057.2632 -1852.2217 3081.3628 3098.0803 3114.4958 3130.8105 3147.1252 3163.2385 3179.251 3195.1628 3211.0747 3226.7852 3242.4956 3258.1055 3273.6145 3289.1235 -3295.468 -3280.1604 -3264.8528 -3249.7466 -55.892944 3299.8992 3299.8992 3299.8992 3299.6978 3284.6924 3269.4854 3254.2786 3238.971 3223.8647 3208.0535 3193.2495 3178.6467 3164.0442 3149.3408 3134.8389 3120.4375 3106.137 3091.635 3076.7302 2036.1145 -1671.2494 3080.1543 3096.8718 3113.388 3129.7026 3145.9167 3162.1306 3178.0425 3194.0552 3209.967 3225.6775 3241.388 3256.9976 3272.6074 3288.0156 3299.8992 -3281.2683 -3265.9607 -3250.8545 59.921265 3299.8992 3299.8992 3299.8992 3297.7844 3282.7788 3267.572 3252.365 3237.1582 3222.052 3206.2407 3191.4368 3176.7334 3162.1306 3147.7295 3133.1267 3118.7256 3104.3242 3089.8223 3075.0183 

48.339844 53.274536 44.714355 35.85205 29.205322 63.345337 54.986572 33.132935 43.203735 60.928345 54.986572 78.75366 85.5011 56.900024 22.860718 17.019653 6.0424805 3.0212402 -4.0283203 -50.958252 -50.152588 -60.424805 -54.58374 -33.33435 -49.54834 -89.227295 -88.42163 -71.30127 -71.30127 -70.19348 -61.73401 -77.34375 -77.34375 -93.96057 -68.88428 -60.62622 -53.07312 -39.578247 -23.162842 7.5531006 17.120361 32.025146 37.261963 39.779663 54.0802 106.04553 101.71509 84.695435 88.92517 88.32092 82.37915 93.55774 110.37598 105.441284 75.531006 54.0802 35.95276 29.608154 3.0212402 -51.260376 -37.765503 -41.290283 -41.088867 -39.37683 -57.10144 -85.90393 -85.198975 -70.59631 -69.68994 -54.0802 -42.700195 -51.05896 -55.69153 -68.68286 -50.656128 -39.578247 -36.85913 -32.528687 -10.675049 14.300537 17.825317 23.062134 19.134521 22.357178 41.4917 87.91809 84.49402 59.61914 70.59631 72.71118 37.96692 53.17383 98.49243 101.61438 79.76074 68.17932 50.756836 34.140015 15.206909 -33.636475 -20.645142 -26.184082 -45.52002 -52.166748 -75.22888 -107.05261 -98.794556 -78.75366 -67.17224 -57.504272 -48.138428 -47.93701 -46.5271 -74.12109 -56.69861 -49.246216 -39.37683 -29.406738 -12.084961 22.558594 10.070801 17.321777 31.622314 28.80249 43.606567 89.730835 81.7749 76.33667 76.33667 73.81897 60.62622 81.27136 99.90234 84.59473 63.64746 72.61047 64.35242 49.0448 16.113281 -35.85205 -35.85205 -35.85205 -35.85205 -35.85205 -35.85205 -35.85205 -35.85205 -35.85205 -35.85205 -35.85205 -35.85205 -35.85205 -35.85205 -35.85205 -35.85205 -35.85205 -35.85205 -35.85205 -35.85205 -35.85205 31.118774 33.9386 35.147095 36.95984 47.634888 91.14075 71.90552 43.707275 59.820557 74.523926 74.32251 98.89526 112.490845 91.8457 60.22339 46.42639 23.666382 5.5389404 -25.982666 -75.73242 -61.331177 -62.23755 -63.949585 -60.021973 -88.52234 -116.015625 -100.6073 -85.80322 -78.552246 -69.488525 -57.806396 -68.28003 -66.87012 -77.142334 -48.339844 -40.585327 -22.659302 -9.164429 0.60424805 29.80957 
-65.3595 -58.20923 -51.864624 -34.744263 -33.233643 -56.19507 -34.140015 -0.60424805 3.7261963 9.265137 27.996826 19.134521 16.012573 41.290283 78.552246 83.38623 95.47119 90.737915 103.930664 126.89209 91.34216 74.82605 79.2572 62.036133 63.546753 61.73401 25.881958 -1.6113281 -7.6538086 -29.104614 -49.346924 -40.081787 -45.52002 -43.90869 -65.76233 -74.32251 -79.2572 -73.11401 -68.17932 -73.91968 -58.71277 -46.829224 -31.924438 -18.630981 -19.134521 -44.41223 -19.940186 18.630981 14.199829 17.72461 30.111694 25.881958 27.896118 62.23755 92.44995 94.766235 94.3634 99.49951 101.61438 128.40271 94.46411 73.61755 72.20764 61.532593 63.14392 62.64038 30.615234 3.4240723 -13.696289 -30.31311 -36.557007 -37.161255 -43.103027 -35.34851 -59.014893 -70.3949 -68.17932 -66.06445 -80.26428 -89.227295 -63.949585 -48.03772 -43.40515 -24.371338 -24.77417 -39.88037 0.30212402 42.49878 44.714355 46.627808 53.778076 35.247803 15.307617 26.28479 65.3595 75.93384 82.88269 82.177734 97.58606 121.35315 90.93933 76.43738 74.020386 57.60498 59.921265 61.23047 28.500366 -2.3162842 -19.73877 -40.98816 -55.08728 -41.088867 -44.815063 -37.36267 -60.12268 -61.331177 -66.26587 -64.65454 -80.06287 -83.99048 -61.935425 -53.67737 -39.678955 -28.29895 -24.673462 -45.52002 -17.422485 -6.1431885 -6.1431885 12.286377 39.175415 40.786743 31.521606 54.785156 84.39331 94.3634 107.15332 95.773315 100.00305 114.60571 81.87561 66.06445 55.792236 45.318604 52.871704 54.885864 18.429565 -14.804077 -24.874878 -43.00232 -63.24463 -54.885864 -53.274536 -41.592407 -58.410645 -63.848877 -67.8772 -67.17224 -74.2218 -87.91809 -74.42322 -61.532593 -46.728516 -36.053467 -38.168335 -60.72693 -26.083374 13.796997 15.609741 18.429565 37.261963 26.687622 23.666382 48.641968 84.99756 86.30676 99.19739 102.01721 107.85828 141.99829 105.74341 91.241455 72.20764 50.354004 54.483032 56.497192 18.328857 -7.7545166 -21.853638 -27.090454 -40.585327 -32.93152 -38.067627 -37.060547 -70.59631 -77.74658 -85.90393 -82.27844 -82.88269 -90.13367 
3188.4155 3206.1401 3223.2605 3239.6758 3256.3933 3273.1108 3289.627 -3294.058 -3277.8442 -3261.731 -3245.9197 -3230.0078 -3214.4988 -3199.0906 -3183.783 -3168.4753 -3153.5706 -3138.7664 -3124.063 -3107.9497 3121.8474 3299.8992 3299.8992 3299.8992 3299.8992 3299.8992 3299.8992 3299.8992 3299.8992 3299.8992 3299.8992 3299.8992 3292.5476 3276.4343 3260.4216 3244.7112 3229.1016 3213.4917 3198.184 3131.9182 3188.7175 3206.4421 3223.059 3240.1794 3256.897 3273.3123 3289.5264 -3294.159 -3277.9448 -3261.9324 -3245.9197 -3230.2092 -3214.5996 -3199.1912 -3183.783 -3168.6768 -3153.5706 -3138.7664 -3124.063 -3063.8396 3297.885 3299.8992 3299.8992 3299.8992 3299.8992 3299.8992 3299.8992 3299.8992 3299.8992 3299.8992 3299.8992 3299.8992 3292.5476 3276.4343 3260.4216 3244.6106 3229.0007 3213.4917 3198.184 3092.4407 3189.2212 3206.845 3223.462 3240.7837 3257.4004 3273.715 3290.0298 -3293.756 -3277.542 -3261.5295 -3245.5168 -3229.8064 -3214.1968 -3198.6877 -3183.3801 -3168.274 -3153.2683 -3138.565 -3123.761 -3095.3613 3299.8992 3299.8992 3299.8992 3299.8992 3299.8992 3299.8992 3299.8992 3299.8992 3299.8992 3299.8992 3299.8992 3299.8992 3292.8496 3276.7363 3260.8245 3245.0134 3229.303 3213.8945 3198.4863 3052.8625 3189.926 3206.9458 3224.3682 3240.6829 3257.5012 3274.0173 3290.634 -3293.051 -3276.7363 -3260.8245 -3244.9126 -3229.1016 -3213.4917 -3197.9827 -3182.675 -3167.5688 -3152.5635 -3137.7593 -3122.9553 -2972.2961 3299.8992 3299.8992 3299.8992 3299.8992 3299.8992 3299.8992 3299.8992 3299.8992 3299.8992 3299.8992 3299.8992 3299.8992 3291.5405 3275.3264 3259.4146 3243.6035 3228.0945 3212.4846 3197.2778 2976.0222 3189.3218 3206.3416 3223.5625 3240.28 3256.6956 3273.413 3290.0298 -3293.6553 -3277.542 -3261.4287 -3245.5168 -3229.8064 -3214.1968 -3198.587 -3183.3801 -3168.274 -3153.1677 -3138.3635 -3123.6602 -2930.3008 3299.8992 3299.8992 3299.8992 3299.8992 3299.8992 3299.8992 3299.8992 3299.8992 3299.8992 3299.8992 3299.8992 3299.8992 3290.5334 3274.3193 3258.4075 3242.5964 3226.9866 3211.5784 3196.17 2931.5093 
3154.4768 3170.3887 3186.502 3202.2124 3217.9229 3233.6333 3249.1423 3264.2485 3279.5562 3294.7632 -3290.2312 -3275.2258 -3260.4216 -3245.7183 -3231.1157 -3216.7144 -3202.3132 -3188.214 -3174.2156 -1002.95105 3299.8992 3299.8992 3299.8992 3299.8992 3299.8992 3299.8992 3299.8992 3299.8992 3299.8992 3286.8071 3271.701 3256.897 3241.9922 3227.2888 3212.686 3198.3855 3184.085 3169.9858 3155.8867 1995.0256 3154.074 3169.9858 3186.3005 3201.9104 3217.6208 3233.432 3248.538 3263.8457 3279.0527 3294.2595 3299.8992 -3275.5278 -3260.8245 -3246.121 -3231.5186 -3217.0166 -3202.716 -3188.516 -3174.417 -792.77344 3299.8992 3299.8992 3299.8992 3299.8992 3299.8992 3299.8992 3299.8992 3299.8992 3299.8992 3286.1023 3271.0967 3256.192 3241.388 3226.6846 3212.1826 3197.7812 3183.4807 3169.4824 3155.3833 1915.567 3153.6711 3169.583 3185.797 3201.6082 3217.218 3233.029 3248.4375 3263.6443 3278.8513 3294.058 3299.8992 -3275.9307 -3261.1267 -3246.524 -3231.9214 -3217.4194 -3203.119 -3188.919 -3174.7192 -805.7648 3299.8992 3299.8992 3299.8992 3299.8992 3299.8992 3299.8992 3299.8992 3299.8992 3299.8992 3285.8 3270.7947 3255.89 3241.0857 3226.3823 3211.7798 3197.2778 3183.1787 3169.1802 3154.9805 1593.3014 3154.1748 3170.59 3186.4014 3202.1118 3217.7214 3233.029 3248.7395 3264.2485 3279.5562 3294.6624 -3290.2312 -3275.3264 -3260.4216 -3245.819 -3231.1157 -3216.7144 -3202.3132 -3188.214 -3174.2156 -398.6023 3299.8992 3299.8992 3299.8992 3299.8992 3299.8992 3299.8992 3299.8992 3299.8992 3299.8992 3285.498 3270.4924 3255.5876 3240.6829 3225.9795 3211.5784 3197.0764 3182.8765 3168.8782 3154.779 1495.5139 3154.2754 3170.4895 3186.2 3201.9104 3217.7214 3232.9285 3248.639 3263.9465 3279.3547 3294.5618 3299.8992 -3275.4272 -3260.5225 -3245.819 -3231.3171 -3216.8152 -3202.5146 -3188.4155 -3174.417 -376.44653 3299.8992 3299.8992 3299.8992 3299.8992 3299.8992 3299.8992 3299.8992 3299.8992 3299.8992 3285.1958 3270.291 3255.2856 3240.4814 3225.778 3211.2761 3196.875 3182.675 3168.4753 3154.4768 1339.5172 
-899.0204 3299.8992 3299.8992 3299.8992 3299.8992 3299.8992 3299.8992 3029.4983 3295.2666 -3289.1235 -3273.6145 -3258.206 -3243.2007 -3227.893 -3213.391 -3198.7883 -3184.3872 -3170.1873 -3156.2896 3299.8992 3299.8992 3299.8992 3299.8992 3299.8992 3299.8992 3299.8992 3299.8992 3299.8992 3299.8992 3295.7703 3279.959 2083.7493 3271.399 3287.21 3299.8992 -3281.6711 -3266.464 -3251.2573 -3236.2517 -3221.4478 -804.8584 3299.8992 3299.8992 3299.8992 3299.8992 3299.8992 3299.8992 2975.8208 3296.9788 -3287.3108 -3271.701 -3256.6956 -3241.388 -3226.3823 -3211.5784 -3197.0764 -3182.675 -3168.576 -3154.6782 3299.8992 3299.8992 3299.8992 3299.8992 3299.8992 3299.8992 3299.8992 3299.8992 3299.8992 3299.8992 3296.3745 3280.5632 1952.829 3272.9094 3288.7207 3299.8992 -3280.2612 -3265.0542 -3249.8474 -3234.9426 -3220.1384 -709.3872 3299.8992 3299.8992 3299.8992 3299.8992 3299.8992 3299.8992 2872.4944 3297.2808 -3286.7065 -3271.6003 -3256.192 -3241.0857 -3226.0803 -3211.377 -3196.875 -3182.2722 -3168.274 -3154.3762 3299.8992 3299.8992 3299.8992 3299.8992 3299.8992 3299.8992 3299.8992 3299.8992 3299.8992 3299.8992 3295.8708 3280.1604 1886.7645 3272.708 3288.5193 3299.8992 -3280.4626 -3265.2556 -3250.0488 -3234.8418 -3220.2393 -781.0913 3299.8992 3299.8992 3299.8992 3299.8992 3299.8992 3299.8992 2712.671 3299.1943 -3285.0952 -3269.4854 -3254.2786 -3239.273 -3224.2676 -3209.5642 -3195.1628 -3180.661 -3166.4612 -3152.664 3299.8992 3299.8992 3299.8992 3299.8992 3299.8992 3299.8992 3299.8992 3299.8992 3299.8992 3299.8992 3297.4822 3281.2683 1939.7369 3273.816 3289.7278 3299.8992 -3279.3547 -3264.047 -3248.941 -3233.9355 -3219.1313 -486.21826 3299.8992 3299.8992 3299.8992 3299.8992 3299.8992 3299.8992 2637.5427 3297.885 -3286.3037 -3270.8953 -3255.3862 -3240.3809 -3225.5767 -3210.7727 -3195.9685 -3181.668 -3167.7703 -3153.772 3299.8992 3299.8992 3299.8992 3299.8992 3299.8992 3299.8992 3299.8992 3299.8992 3299.8992 3299.8992 3296.6765 3280.5632 1691.2903 3274.3193 3290.2312 3299.8992 -3278.8513 -3263.5437 -3248.4375 -3233.5327 -3218.8293 
1677.7954 -213.09814 -2146.591 2999.185 3016.4062 3033.4258 3050.3447 3066.9617 3083.4778 3099.7925 3116.1072 3132.2205 3148.1323 3164.0442 3179.956 3195.6665 3211.2761 3226.7852 3242.1936 -2411.554 2152.0293 3238.7695 3223.5625 3209.0605 3194.458 3180.0566 3165.454 3150.8513 3135.745 3121.1426 3106.6406 3092.2393 3077.9387 3063.6382 3049.4385 3035.3394 3021.3408 3007.443 2993.4448 2967.7642 1482.8247 -348.85254 -2239.5447 2990.0208 3007.443 3024.5635 3041.3818 3058.2 3074.6155 3091.0308 3107.3455 3123.5596 3139.4714 3155.484 3171.3958 3187.1062 3202.716 3218.3257 3233.7341 -2373.7883 2086.4685 3230.5115 3215.3044 3200.8025 3186.3005 3171.7986 3157.3975 3142.7947 3127.588 3113.1865 3098.6846 3084.384 3069.983 3055.8838 3041.8853 3027.6855 3013.687 2999.6887 2985.6902 2824.356 1004.7638 -945.8496 -2936.1418 2991.934 3009.2559 3026.2756 3043.0938 3059.8113 3076.126 3092.5415 3108.7554 3124.9695 3140.8813 3156.8938 3172.8057 3188.4155 3204.126 3219.635 3235.0432 -2318.399 2274.2888 3230.9143 3216.0095 3201.3062 3186.6028 3172.1008 3157.498 3142.996 3127.7893 3113.388 3098.9868 3084.5854 3070.1843 3056.0852 3041.986 3027.887 3013.7878 2999.8901 2985.9924 2823.6511 1050.6866 -981.70166 -2990.3228 2992.4377 3009.6587 3026.5776 3043.396 3060.1135 3076.5288 3092.8435 3109.1582 3125.2715 3141.1833 3157.196 3173.108 3188.7175 3204.428 3219.937 3235.446 -2329.6782 2038.4308 3231.9214 3217.3186 3202.5146 3187.9119 3173.41 3158.8074 3144.2046 3129.0984 3114.6973 3100.296 3085.794 3071.4934 3057.3943 3043.1946 3028.9946 3015.097 3001.1992 2987.1 2855.6763 1176.2695 -844.8395 -2762.4207 2991.1284 3008.4502 3025.3691 3042.1875 3058.905 3075.4211 3091.8364 3108.0505 3124.1638 3140.1763 3156.189 3172 3187.7104 3203.421 3218.93 3234.3384 -2397.9583 1986.7676 3231.3171 3216.0095 3201.709 3187.4084 3172.8057 3158.3037 3143.9026 3128.6956 3114.093 3099.591 3085.089 3070.99 3056.79 3042.691 3028.5918 3014.5935 3000.595 2986.5967 2863.0278 
-406.55823 3153.8726 3299.8992 3299.8992 3299.8992 3291.1377 3275.125 3000.293 3264.7522 3281.5703 3298.1873 -3285.3972 -3269.0825 -3252.9692 -3237.0574 -3221.4478 -3205.9387 -3190.7317 -3175.6255 1770.1447 3299.8992 3299.8992 3299.8992 3299.8992 3299.8992 3299.8992 3299.8992 3299.8992 3286.5051 3269.1833 3252.365 1856.25 3242.8984 3259.9182 3276.535 3293.051 -3290.5334 -3274.3193 -3258.206 -3242.2942 -162.74414 3299.8992 3299.8992 3299.8992 3299.8992 3291.339 3275.3264 2914.5903 3265.5579 3282.376 3298.993 -3284.3901 -3268.1763 -3252.2644 -3236.3525 -3220.642 -3205.2336 -3189.926 -3174.9207 2340.0513 3299.8992 3299.8992 3299.8992 3299.8992 3299.8992 3299.8992 3299.8992 3299.8992 3285.8 3268.4783 3251.6602 1881.2256 3242.1936 3259.0117 3275.6287 3292.2454 -3291.4397 -3275.2258 -3259.2131 -3243.2007 -338.68103 3198.8892 3299.8992 3299.8992 3299.8992 3291.742 3275.5278 2790.7195 3266.867 3283.6853 3299.8992 -3283.2825 -3266.9678 -3251.056 -3235.144 -3219.4336 -3203.9246 -3188.7175 -3173.8127 2557.4797 3299.8992 3299.8992 3299.8992 3299.8992 3299.8992 3299.8992 3299.8992 3299.8992 3286.5051 3269.0825 3252.1636 1737.8174 3243.704 3260.7239 3277.4414 3293.8567 -3289.8284 -3273.6145 -3257.5012 -3241.388 -363.75732 3100.1953 3299.8992 3299.8992 3299.8992 3293.5547 3277.542 2706.8298 3269.284 3286.1023 3299.8992 -3280.966 -3264.6514 -3248.639 -3232.8276 -3217.1172 -3201.6082 -3186.4014 -3171.3958 2507.8308 3299.8992 3299.8992 3299.8992 3299.8992 3299.8992 3299.8992 3299.8992 3299.8992 3288.7207 3271.0967 3254.2786 1620.5933 3246.8262 3263.745 3280.4626 3296.878 -3286.7065 -3270.4924 -3254.48 -3236.2517 -85.5011 3299.8992 3299.8992 3299.8992 3299.8992 3293.9575 3277.7434 2639.6575 3270.0896 3286.8071 3299.8992 -3280.2612 -3263.9465 -3247.9338 -3232.022 -3216.4124 -3201.004 -3185.797 -3170.7915 2628.2776 3299.8992 3299.8992 3299.8992 3299.8992 3299.8992 3299.8992 3299.8992 3299.8992 3289.1235 3271.4995 3254.6814 1729.9622 3246.3225 3263.2415 3280.0598 3296.3745 -3287.21 -3270.8953 -3254.8828 -3238.971 
2063.0034 -1695.0165 3078.4424 3095.3613 3111.676 3128.1921 3144.406 3160.5193 3176.4312 3192.4438 3208.255 3223.9653 3239.7766 3255.3862 3270.8953 3286.4043 3299.8992 -3282.8796 -3267.7734 -3252.5664 70.19348 3299.8992 3299.8992 3299.8992 3296.173 3281.2683 3266.2627 3250.8545 3235.5469 3220.3398 3204.6294 3189.926 3175.3235 3160.7207 3146.2188 3131.7168 3117.3157 3102.9143 3088.4124 3073.5076 1756.7505 -2159.5825 3080.1543 3096.8718 3113.4888 3129.7026 3146.1182 3162.03 3178.0425 3193.9543 3209.7656 3225.5767 3241.287 3256.9976 3272.6074 3287.915 3299.8992 -3281.369 -3266.162 -3250.955 395.48035 3299.8992 3299.8992 3299.8992 3295.6694 3280.5632 3265.3564 3250.2502 3234.9426 3219.7356 3204.0251 3189.4226 3174.7192 3160.1165 3145.6145 3131.2134 3116.7114 3102.31 3087.808 3073.0042 1837.8204 -2103.2866 3079.0466 3095.8647 3112.3809 3128.897 3144.9097 3161.023 3176.9348 3192.8467 3208.7585 3224.5696 3240.3809 3255.789 3271.298 3286.8071 3299.8992 -3282.376 -3267.1692 -3252.063 190.23743 3299.8992 3299.8992 3299.8992 3295.8708 3280.8655 3265.8599 3250.4517 3235.3455 3220.1384 3204.428 3189.7246 3175.122 3160.5193 3145.816 3131.4148 3117.0134 3102.6123 3088.211 3073.407 1822.2107 -2096.4385 3079.4495 3096.167 3112.5823 3128.9978 3145.2117 3161.325 3177.4382 3193.451 3209.262 3224.9724 3240.6829 3256.2927 3271.9023 3287.4114 3299.8992 -3282.074 -3266.7664 -3251.7607 140.8905 3299.8992 3299.8992 3299.8992 3296.475 3281.4697 3266.2627 3251.056 3235.7483 3220.7427 3204.9316 3190.0269 3175.424 3160.922 3146.3196 3131.9182 3117.517 3103.0151 3088.6138 3073.8098 1791.9983 -2175.7964 3080.3557 3096.9727 3113.4888 3129.904 3146.1182 3162.1306 3178.244 3194.2566 3210.1685 3225.879 3241.4885 3257.199 3272.708 3288.217 3299.8992 -3281.067 -3265.7593 -3250.7537 433.14514 3299.8992 3299.8992 3299.8992 3295.468 3280.5632 3265.2556 3250.0488 3234.8418 3219.7356 3204.0251 3189.1204 3174.5178 3160.0159 3145.514 3130.9111 3116.6106 3102.2095 3087.808 3072.702 

21.652222 23.666382 26.486206 26.989746 45.52002 89.52942 76.135254 49.145508 49.54834 58.10852 59.317017 80.96924 105.74341 95.773315 74.32251 64.25171 50.958252 41.592407 15.106201 -31.723022 -31.82373 -36.254883 -51.763916 -52.468872 -70.69702 -90.93933 -73.31543 -59.921265 -59.21631 -59.317017 -65.3595 -84.59473 -96.47827 -104.63562 -77.74658 -62.942505 -50.958252 -35.85205 -27.493286 -14.401245 -27.392578 -21.954346 -1.0070801 20.645142 48.138428 95.87402 88.62305 77.948 88.52234 87.11243 73.21472 87.41455 100.00305 90.5365 59.417725 40.786743 22.055054 26.586914 -7.9559326 -51.05896 -45.721436 -47.131348 -52.06604 -42.599487 -63.14392 -95.06836 -85.29968 -77.545166 -69.89136 -63.64746 -48.03772 -57.302856 -67.67578 -89.328 -65.56091 -54.18091 -42.90161 -33.83789 -9.063721 4.5318604 -5.9417725 -9.970093 -12.185669 -10.372925 19.134521 81.7749 87.81738 80.163574 89.52942 103.930664 117.22412 143.3075 163.5498 145.9259 111.483765 95.87402 74.32251 51.5625 6.5460205 -51.965332 -22.155762 -32.730103 -48.742676 -55.792236 -82.681274 -121.25244 -106.64978 -93.85986 -82.47986 -83.78906 -74.42322 -83.48694 -88.42163 -95.16907 -64.85596 -47.03064 -37.664795 -14.099121 13.998413 33.43506 25.680542 23.968506 22.457886 22.76001 38.36975 91.14075 79.86145 54.18091 49.54834 58.410645 58.61206 87.91809 114.20288 103.125 62.036133 39.47754 22.457886 16.616821 -4.9346924 -42.39807 -17.72461 -18.630981 -28.80249 -41.189575 -61.431885 -88.220215 -70.3949 -59.417725 -54.785156 -51.763916 -37.86621 -50.454712 -58.20923 -63.546753 -35.44922 -19.23523 0.50354004 -1.0070801 8.258057 25.579834 15.408325 24.975586 35.34851 42.297363 63.043213 117.022705 124.37439 105.03845 96.780396 79.76074 78.552246 97.58606 119.33899 110.07385 92.65137 89.12659 69.488525 35.44922 -21.24939 -104.837036 -139.48059 -158.01086 -150.9613 -121.9574 -142.40112 -185.60486 -178.85742 -155.79529 -134.74731 -103.930664 -69.58923 -67.77649 -74.020386 -76.638794 -49.95117 -35.44922 -16.314697 4.9346924 24.169922 43.304443 34.643555 38.87329 35.046387 31.018066 44.110107 92.95349 85.60181 82.07703 94.66553 100.70801 90.83862 98.794556 113.59863 98.794556 60.62622 46.829224 29.003906 12.084961 -17.22107 -59.921265 
-65.86304 -54.785156 -37.564087 -31.924438 -34.44214 -62.539673 -26.486206 2.1148682 0 6.8481445 26.989746 23.968506 26.385498 46.02356 79.2572 89.730835 93.759155 95.37048 109.26819 128.40271 91.744995 69.79065 60.62622 45.318604 43.203735 50.756836 20.947266 -6.3446045 -17.72461 -34.643555 -50.152588 -44.110107 -39.678955 -36.557007 -62.64038 -70.09277 -77.24304 -74.92676 -83.99048 -86.00464 -51.461792 -42.196655 -35.44922 -26.586914 -31.018066 -59.71985 -26.083374 5.2368164 5.4382324 9.265137 24.27063 12.890625 19.436646 46.325684 90.33508 98.19031 99.60022 82.27844 102.822876 125.28076 94.96765 77.84729 59.820557 35.549927 43.103027 56.900024 16.616821 -20.141602 -38.87329 -51.5625 -67.07153 -53.878784 -53.778076 -49.145508 -76.84021 -86.10535 -79.86145 -72.40906 -84.59473 -82.9834 -57.60498 -36.35559 -35.247803 -29.003906 -27.694702 -36.053467 -2.4169922 16.71753 16.314697 12.387085 24.069214 21.954346 21.148682 39.175415 68.78357 70.999146 78.048706 82.681274 90.234375 113.59863 79.156494 71.09985 63.24463 41.4917 48.03772 62.338257 21.954346 0.9063721 -20.141602 -29.406738 -34.744263 -37.261963 -34.94568 -25.479126 -54.281616 -67.977905 -79.559326 -94.16199 -107.55615 -111.483765 -91.44287 -76.034546 -64.65454 -47.735596 -52.267456 -70.495605 -32.125854 -4.2297363 2.6184082 3.7261963 19.23523 9.869385 14.501953 40.88745 76.538086 76.43738 90.63721 91.241455 108.966064 133.2367 93.85986 80.56641 67.27295 55.08728 65.460205 66.6687 14.501953 -18.630981 -33.737183 -35.247803 -48.03772 -43.807983 -40.48462 -37.46338 -63.74817 -73.81897 -68.88428 -74.2218 -94.766235 -105.13916 -77.142334 -64.55383 -53.274536 -38.168335 -46.42639 -62.64038 -35.046387 -9.365845 -6.5460205 1.3092041 23.867798 24.874878 17.523193 56.900024 101.312256 99.90234 90.13367 90.5365 102.319336 120.7489 80.96924 59.518433 51.864624 36.154175 45.620728 58.511353 24.069214 -7.1502686 -31.420898 -50.05188 -60.021973 -52.368164 -47.53418 -38.87329 -65.86304 -71.80481 -82.58057 -97.08252 -97.88818 -95.47119 -66.36658 -49.850464 -42.095947 -23.364258 -29.406738 -50.454712 -14.099121 15.811157 14.804077 22.659302 37.564087 23.867798 17.72461 35.247803 77.34375 88.0188 96.98181 96.780396 107.958984 128.60413 
3188.617 3206.2407 3223.361 3239.7766 3256.3933 3273.2117 3289.7278 -3293.9575 -3277.7434 -3261.731 -3245.819 -3230.0078 -3214.4988 -3198.9897 -3183.6821 -3168.4753 -3153.4697 -3138.565 -3123.9624 -2687.8967 3299.8992 3299.8992 3299.8992 3299.8992 3299.8992 3299.8992 3299.8992 3299.8992 3299.8992 3299.8992 3299.8992 3299.8992 3288.922 3272.8088 3256.897 3241.1865 3225.476 3210.0676 3194.6594 2793.8416 3188.3147 3205.3345 3222.6562 3239.0715 3255.789 3272.5066 3289.0227 3299.8992 -3278.3477 -3262.3352 -3246.4233 -3230.713 -3215.2039 -3199.594 -3184.2864 -3169.0796 -3154.074 -3139.3706 -3124.5667 -3056.488 3299.8992 3299.8992 3299.8992 3299.8992 3299.8992 3299.8992 3299.8992 3299.8992 3299.8992 3299.8992 3299.8992 3299.8992 3290.8354 3274.823 3258.8103 3242.9993 3227.3894 3211.8804 3196.5728 2863.2292 3189.0198 3206.6436 3223.1597 3240.4814 3257.0984 3273.5137 3289.8284 -3293.8567 -3277.7434 -3261.6301 -3245.819 -3230.0078 -3214.3982 -3198.8892 -3183.6821 -3168.4753 -3153.4697 -3138.6658 -3123.9624 -2814.1846 3299.8992 3299.8992 3299.8992 3299.8992 3299.8992 3299.8992 3299.8992 3299.8992 3299.8992 3299.8992 3299.8992 3299.8992 3290.0298 3273.9165 3258.0046 3242.2942 3226.6846 3211.2761 3195.767 2810.0554 3189.0198 3205.9387 3223.462 3239.978 3256.5947 3273.3123 3289.8284 -3293.756 -3277.7434 -3261.6301 -3245.819 -3230.0078 -3214.3982 -3198.8892 -3183.5815 -3168.3745 -3153.4697 -3138.565 -3123.8616 -2806.43 3299.8992 3299.8992 3299.8992 3299.8992 3299.8992 3299.8992 3299.8992 3299.8992 3299.8992 3299.8992 3299.8992 3299.8992 3290.0298 3273.816 3257.904 3242.0928 3226.4832 3211.0747 3195.767 2678.4302 3189.5232 3206.543 3223.8647 3240.28 3256.9976 3273.6145 3290.1306 -3293.4539 -3277.24 -3261.2273 -3245.3154 -3229.605 -3213.9954 -3198.4863 -3183.1787 -3168.0725 -3153.067 -3138.162 -3123.6602 -2830.3984 3299.8992 3299.8992 3299.8992 3299.8992 3299.8992 3299.8992 3299.8992 3299.8992 3299.8992 3299.8992 3299.8992 3299.8992 3290.1306 3274.118 3258.1055 3242.395 3226.7852 3211.2761 3195.767 2366.5374 3191.2354 3208.7585 3225.2747 3242.5964 3259.1125 3275.6287 3291.8425 -3291.9434 -3275.7292 -3259.616 -3243.805 -3227.9937 -3212.384 -3196.9756 -3181.668 -3166.6626 -3151.5564 -3136.7522 -3122.0488 -2742.8833 
3154.3762 3170.7915 3186.6028 3202.2124 3217.8223 3233.13 3248.941 3264.3494 3279.4556 3294.6624 3299.8992 -3275.4272 -3260.5225 -3245.819 -3231.3171 -3216.8152 -3202.5146 -3188.4155 -3174.2156 693.9789 3299.8992 3299.8992 3299.8992 3299.8992 3299.8992 3299.8992 3299.8992 3299.8992 3298.3887 3283.383 3268.3777 3253.473 3238.7695 3223.9653 3209.4634 3195.0623 3180.8623 3166.864 3152.664 1105.7739 3153.3691 3169.6838 3185.4949 3201.2053 3216.9158 3232.1228 3247.8333 3263.2415 3278.549 3293.5547 3299.8992 -3276.4343 -3261.6301 -3246.9268 -3232.3242 -3217.8223 -3203.421 -3189.3218 -3175.2227 130.11475 3299.8992 3299.8992 3299.8992 3299.8992 3299.8992 3299.8992 3299.8992 3299.8992 3298.4893 3283.383 3268.3777 3253.5735 3238.6687 3224.1667 3209.5642 3195.1628 3180.8623 3166.7632 3152.765 606.96716 3154.4768 3170.7915 3186.6028 3202.2124 3217.9229 3233.2305 3248.8403 3264.45 3279.4556 3294.8638 -3290.1306 -3275.3264 -3260.5225 -3245.819 -3231.2163 -3216.7144 -3202.5146 -3188.3147 -3174.3164 651.98364 3299.8992 3299.8992 3299.8992 3299.8992 3299.8992 3299.8992 3299.8992 3299.8992 3298.3887 3283.383 3268.3777 3253.5735 3238.7695 3224.1667 3209.4634 3195.1628 3180.8623 3166.9646 3152.8655 396.58813 3154.9805 3170.8923 3187.0056 3202.8167 3218.4265 3234.2375 3249.4446 3264.7522 3279.959 3295.166 -3289.8284 -3274.9236 -3260.0188 -3245.4163 -3230.713 -3216.3115 -3201.9104 -3187.8113 -3173.8127 1321.7926 3299.8992 3299.8992 3299.8992 3299.8992 3299.8992 3299.8992 3299.8992 3299.8992 3297.6836 3282.5774 3267.6726 3252.7678 3237.9639 3223.2605 3208.7585 3194.3572 3180.1575 3166.159 3152.0598 171.90857 3154.779 3170.59 3186.8042 3202.5146 3218.225 3233.9355 3249.1423 3264.45 3279.7576 3294.8638 -3290.1306 -3275.125 -3260.2202 -3245.6177 -3231.015 -3216.6138 -3202.2124 -3188.1133 -3173.9136 1000.0305 3299.8992 3299.8992 3299.8992 3299.8992 3299.8992 3299.8992 3299.8992 3299.8992 3297.7844 3282.7788 3267.7734 3252.9692 3238.0645 3223.462 3208.96 3194.5586 3180.258 3166.2598 3152.1606 5.7403564 3155.182 3171.2952 3187.3076 3203.2195 3218.8293 3234.6404 3249.8474 3264.9536 3280.1604 3295.3674 -3289.627 -3274.6216 -3259.8174 -3245.114 -3230.612 -3216.211 -3201.8096 -3187.7104 -3173.7122 1566.7145 
-616.5344 3299.8992 3299.8992 3299.8992 3299.8992 3299.8992 3299.8992 2508.838 3299.8992 -3284.1887 -3268.6797 -3253.473 -3238.4673 -3223.462 -3208.7585 -3194.1558 -3179.8552 -3165.6555 -3151.7578 3299.8992 3299.8992 3299.8992 3299.8992 3299.8992 3299.8992 3299.8992 3299.8992 3299.8992 3299.8992 3297.0793 3281.2683 1530.7617 3276.132 3291.9434 -3292.749 -3277.1392 -3261.8315 -3246.7253 -3231.72 -3217.218 -468.89648 3299.8992 3299.8992 3299.8992 3299.8992 3299.8992 3299.8992 2374.1912 3299.8992 -3282.9802 -3267.572 -3252.2644 -3237.1582 -3222.2534 -3207.6506 -3193.048 -3178.6467 -3164.447 -3150.65 3299.8992 3299.8992 3299.8992 3299.8992 3299.8992 3299.8992 3299.8992 3299.8992 3299.8992 3299.8992 3297.2808 3281.2683 1629.8584 3275.6287 3291.339 -3293.051 -3277.6428 -3262.5366 -3247.1282 -3232.4248 -3217.6208 -224.57886 3299.8992 3299.8992 3299.8992 3299.8992 3299.8992 3299.8992 2049.9114 3299.8992 -3284.1887 -3268.7805 -3253.473 -3238.3667 -3223.5625 -3208.6577 -3194.0552 -3179.8552 -3165.756 -3151.7578 3299.8992 3299.8992 3299.8992 3299.8992 3299.8992 3299.8992 3299.8992 3299.8992 3299.8992 3299.8992 3296.6765 3280.8655 1403.3661 3276.3335 3292.044 -3292.4468 -3276.9377 -3262.033 -3246.8262 -3231.72 -3216.9158 -388.12866 3299.8992 3299.8992 3299.8992 3299.8992 3299.8992 3299.8992 2084.7563 3299.8992 -3282.2754 -3266.867 -3251.6602 -3236.554 -3221.6492 -3206.9458 -3192.4438 -3178.1433 -3163.9434 -3150.0457 3299.8992 3299.8992 3299.8992 3299.8992 3299.8992 3299.8992 3299.8992 3299.8992 3299.8992 3299.8992 3296.878 3280.966 1290.6738 3276.8372 3292.749 -3291.742 -3276.3335 -3261.026 -3246.0205 -3230.9143 -3216.0095 -325.18616 3299.8992 3299.8992 3299.8992 3299.8992 3299.8992 3299.8992 1882.8369 3299.8992 -3281.7717 -3266.0613 -3250.955 -3235.9497 -3220.944 -3206.3416 -3191.7388 -3177.539 -3163.1377 -3149.5422 3299.8992 3299.8992 3299.8992 3299.8992 3299.8992 3299.8992 3299.8992 3299.8992 3299.8992 3299.8992 3297.583 3281.5703 1117.1539 3278.7505 3294.461 -3290.0298 -3274.7222 -3259.4146 -3244.3083 -3229.5044 -3215.0024 -353.98865 3299.8992 3299.8992 3299.8992 3299.8992 3299.8992 3299.8992 1734.3933 3299.8992 -3279.5562 -3264.047 -3249.0417 -3233.8347 -3218.93 -3204.2266 -3189.7246 -3175.424 -3161.4258 -3147.4272 3299.8992 
1177.1759 -848.9685 -2853.5613 2991.1284 3008.4502 3025.3691 3042.288 3058.905 3075.3203 3091.8364 3108.0505 3124.2644 3140.0757 3156.189 3172 3187.7104 3203.3203 3218.93 3234.3384 -2220.7122 2121.414 3230.2092 3214.9016 3200.5005 3186.2 3171.698 3157.196 3142.5933 3127.3865 3112.985 3098.4832 3084.1826 3069.882 3055.5815 3041.4824 3027.3833 3013.4856 2999.4873 2985.5896 2828.2837 1097.5159 -859.0393 -2719.7205 2989.8193 3007.141 3024.1606 3041.0796 3057.6965 3074.2126 3090.4265 3106.842 3122.9553 3138.9678 3154.8796 3170.7915 3186.502 3202.2124 3217.7214 3233.2305 -2043.2648 2535.7268 3226.9866 3212.2832 3197.5798 3182.776 3168.3745 3153.772 3139.1692 3124.2644 3109.7625 3095.2605 3080.8594 3066.6594 3052.4597 3038.3606 3024.362 3010.263 2996.466 2982.4675 2777.0232 988.2477 -966.1926 -2853.7627 2988.6108 3005.9326 3022.9521 3039.6697 3056.2866 3072.8027 3089.3188 3105.5327 3121.7468 3137.7593 3153.772 3169.583 3185.2935 3200.9033 3216.4124 3231.8206 -2127.5574 2185.3638 3227.188 3212.686 3197.882 3183.1787 3168.6768 3154.1748 3139.572 3124.5667 3110.0647 3095.6633 3081.3628 3067.0623 3052.9631 3038.7634 3024.6643 3010.7666 2996.6675 2982.7698 2718.7134 794.8883 -1101.0406 -2936.746 2991.1284 3008.2488 3025.1677 3042.0867 3058.7036 3075.2197 3091.5344 3107.7483 3123.9624 3139.9749 3155.8867 3171.7986 3187.509 3203.018 3218.628 3233.9355 -1978.5095 2339.5476 3228.195 3213.0889 3198.6877 3184.2864 3169.6838 3155.182 3140.68 3125.5737 3111.1724 3096.7712 3082.2693 3067.9688 3053.7688 3039.7705 3025.772 3011.6729 2997.6746 2983.7769 2733.1145 933.86536 -1030.6458 -2961.7217 2990.8264 3008.2488 3025.3691 3042.0867 3058.905 3075.3203 3091.5344 3107.7483 3123.8616 3140.0757 3155.8867 3171.8994 3187.509 3203.119 3218.7285 3234.137 -1798.7457 2510.6506 3227.0874 3211.7798 3197.2778 3182.9773 3168.4753 3153.9734 3139.4714 3124.2644 3109.8633 3095.3613 3080.96 3066.7603 3052.6611 3038.562 3024.362 3010.3638 2996.466 2982.5684 2722.943 961.45935 -946.35315 -2864.035 2988.9128 3006.2346 3023.2544 3040.0725 3056.79 3073.2056 3089.6208 3105.835 3122.0488 3138.0615 3153.9734 3169.8853 3185.5957 3201.2053 3216.8152 3232.2234 -1768.8354 
-44.110107 3299.8992 3299.8992 3299.8992 3299.8992 3293.3533 3277.24 2556.5735 3269.6868 3286.7065 3299.8992 -3280.4626 -3264.148 -3248.1353 -3232.2234 -3216.6138 -3201.2053 -3185.9985 -3170.993 2964.743 3299.8992 3299.8992 3299.8992 3299.8992 3299.8992 3299.8992 3299.8992 3299.8992 3287.915 3270.4924 3253.6743 1495.5139 3247.0276 3263.8457 3280.5632 3297.0793 -3286.6057 -3270.3918 -3254.3792 -3215.7073 113.90076 3299.8992 3299.8992 3299.8992 3299.8992 3292.5476 3276.535 2478.6255 3269.6868 3286.5051 3299.8992 -3280.5632 -3264.3494 -3248.236 -3232.3242 -3216.8152 -3201.4067 -3186.2 -3171.1943 3136.148 3299.8992 3299.8992 3299.8992 3299.8992 3299.8992 3299.8992 3299.8992 3299.8992 3287.3108 3269.8882 3253.1707 1468.222 3246.4233 3263.4429 3280.1604 3296.7773 -3287.0085 -3270.8953 -3254.6814 -3238.7695 -261.13586 3218.7285 3299.8992 3299.8992 3299.8992 3295.2666 3279.1533 2229.776 3273.5137 3290.2312 3299.8992 -3276.7363 -3260.623 -3244.6106 -3228.7993 -3213.0889 -3197.7812 -3182.675 -3167.7703 3281.7717 3299.8992 3299.8992 3299.8992 3299.8992 3299.8992 3299.8992 3299.8992 3299.8992 3290.4326 3273.0103 3256.192 1473.3582 3249.8474 3266.6655 3283.383 3299.7986 -3283.8867 -3267.572 -3251.6602 -3164.8499 229.51355 3299.8992 3299.8992 3299.8992 3299.8992 3294.159 3278.1462 2236.2212 3272.406 3289.224 3299.8992 -3277.9448 -3261.6301 -3245.6177 -3229.7058 -3214.1968 -3198.7883 -3183.5815 -3168.576 3299.8992 3299.8992 3299.8992 3299.8992 3299.8992 3299.8992 3299.8992 3299.8992 3299.8992 3288.4185 3270.996 3254.0771 1409.61 3248.3367 3265.2556 3281.8726 3298.3887 -3285.2966 -3268.982 -3253.07 -3150.4485 193.25867 3299.8992 3299.8992 3299.8992 3299.8992 3292.9504 3276.8372 2054.7454 3272.1038 3288.8213 3299.8992 -3278.3477 -3262.1338 -3245.9197 -3230.1086 -3214.4988 -3199.1912 -3184.085 -3169.0796 3299.8992 3299.8992 3299.8992 3299.8992 3299.8992 3299.8992 3299.8992 3299.8992 3299.8992 3287.7136 3270.0896 3253.2715 1216.7542 3248.7395 3265.7593 3282.376 3298.6907 -3284.9944 -3268.881 -3252.5664 -3108.6548 260.83374 3299.8992 3299.8992 3299.8992 3299.8992 3292.6482 3276.6357 1930.3711 3272.3052 3289.0227 3299.8992 -3278.1462 -3261.9324 -3245.9197 -3230.0078 -3214.3982 -3198.9897 -3183.8835 -3168.8782 3299.8992 
1615.155 -2237.9333 3080.4565 3097.174 3113.5894 3130.005 3146.2188 3162.4329 3178.3447 3194.3572 3210.269 3225.778 3241.4885 3257.0984 3272.6074 3288.217 3299.8992 -3281.067 -3265.8599 -3249.4446 538.5864 3299.8992 3299.8992 3299.8992 3294.7632 3279.7576 3264.6514 3249.4446 3234.2375 3219.2322 3203.421 3188.617 3174.0142 3159.5122 3144.8088 3130.5083 3116.0063 3101.6052 3087.1033 3072.1985 1603.8757 -2312.7593 3080.3557 3096.9727 3113.4888 3129.904 3146.1182 3162.332 3178.244 3194.0552 3210.0676 3225.778 3241.4885 3256.9976 3272.6074 3288.0156 3299.8992 -3281.2683 -3265.9607 -3250.653 670.4132 3299.8992 3299.8992 3299.8992 3294.2595 3279.1533 3264.047 3248.8403 3233.6333 3218.4265 3202.716 3188.1133 3173.41 3158.8074 3144.2046 3129.904 3115.503 3101.001 3086.499 3071.5942 1548.1842 -2476.712 3080.5571 3097.2747 3113.7908 3130.2063 3146.4202 3162.5334 3178.4453 3194.3572 3210.0676 3225.9795 3241.69 3257.2998 3273.0103 3288.4185 3299.8992 -3280.966 -3265.6584 -3221.8506 664.47144 3299.8992 3299.8992 3299.8992 3294.058 3279.0527 3263.8457 3248.7395 3233.5327 3218.225 3202.5146 3187.9119 3173.3093 3158.8074 3144.2046 3129.7026 3115.2007 3100.7996 3086.3982 3071.292 1516.4612 -2489.099 3080.658 3097.174 3113.6902 3130.005 3146.2188 3162.332 3178.3447 3194.2566 3210.1685 3225.9795 3241.69 3257.2998 3272.8088 3288.4185 3299.8992 -3280.8655 -3265.5579 -3239.4744 595.99 3299.8992 3299.8992 3299.8992 3294.461 3279.5562 3264.3494 3249.1423 3233.9355 3218.7285 3203.119 3188.214 3173.7122 3159.1094 3144.5068 3130.1055 3115.7043 3101.2024 3086.7004 3071.6948 1564.2975 -2400.9795 3080.4565 3097.0732 3113.4888 3129.904 3146.1182 3162.2314 3178.244 3194.1558 3210.0676 3225.879 3241.4885 3257.0984 3272.708 3288.217 3299.8992 -3281.1675 -3265.9607 -3239.3738 666.687 3299.8992 3299.8992 3299.8992 3294.058 3278.952 3263.8457 3248.538 3233.3313 3218.225 3202.5146 3187.7104 3173.108 3158.5051 3144.0032 3129.602 3114.9993 3100.7996 3086.1968 3071.1914 1559.0607 -2443.0754 3080.1543 3096.7712 3113.388 3129.8035 3146.0173 3162.1306 3177.942 3194.0552 3209.8662 3225.476 3241.1865 3256.897 3272.3052 3287.8142 3299.8992 -3281.369 -3266.2627 -3209.7656 

-35.147095 -36.154175 -44.815063 -56.799316 -100.00305 -109.06677 -57.10144 -36.254883 -39.175415 -42.800903 -45.822144 -69.68994 -88.0188 -93.96057 -69.992065 -50.05188 -40.786743 -21.24939 -7.0495605 19.638062 15.106201 19.033813 19.73877 14.904785 30.715942 83.38623 71.20056 54.483032 59.61914 67.17224 62.539673 89.328 108.966064 90.5365 47.53418 42.297363 22.961426 32.125854 12.487793 -29.80957 -12.789917 -7.3516846 -24.572754 -28.80249 -47.634888 -76.034546 -60.72693 -51.965332 -45.117188 -39.88037 -36.4563 -39.779663 -54.483032 -71.20056 -55.08728 -49.54834 -28.701782 -19.23523 12.084961 37.564087 36.254883 32.83081 45.822144 50.253296 80.86853 136.76147 137.76855 131.42395 147.53723 136.86218 114.20288 121.35315 133.03528 93.65845 25.479126 -8.761597 -43.103027 -50.756836 -77.545166 -117.92908 -92.55066 -92.95349 -98.19031 -93.85986 -119.74182 -144.01245 -131.82678 -110.476685 -93.85986 -75.22888 -63.043213 -62.338257 -74.32251 -87.31384 -49.649048 -37.664795 -19.73877 -11.883545 13.595581 32.93152 37.261963 43.807983 53.57666 57.10144 83.58765 117.32483 85.40039 64.05029 83.78906 98.19031 66.87012 55.08728 28.29895 -35.85205 -41.793823 1.3092041 32.32727 33.9386 7.3516846 -36.95984 -23.162842 -16.918945 -21.047974 -16.818237 -45.721436 -77.645874 -49.54834 -42.095947 -33.535767 -25.27771 -33.636475 -48.239136 -60.72693 -73.013306 -57.907104 -48.03772 -24.874878 -15.206909 3.6254883 23.565674 16.918945 15.811157 26.486206 39.779663 82.27844 135.65369 121.9574 105.74341 101.916504 93.65845 73.31543 78.95508 108.26111 118.63403 99.298096 88.11951 68.17932 40.786743 -3.1219482 -71.20056 -83.99048 -113.39722 -139.07776 -136.25793 -134.74731 -141.99829 -121.75598 -115.008545 -107.455444 -93.55774 -70.79773 -67.57507 -73.41614 -79.96216 -60.827637 -50.05188 -33.9386 -13.092041 18.630981 45.41931 24.874878 22.25647 22.558594 32.025146 74.020386 136.05652 125.48218 105.84412 107.55615 89.52942 93.45703 155.896 171.80786 140.7898 100.70801 81.47278 61.23047 45.721436 11.279297 -40.182495 
87.81738 70.999146 56.396484 51.864624 60.928345 56.5979 11.279297 -16.012573 -31.723022 -43.203735 -48.239136 -48.742676 -50.857544 -53.878784 -75.32959 -76.7395 -80.96924 -84.09119 -90.83862 -90.234375 -67.17224 -45.01648 -31.32019 -24.975586 -26.989746 -49.850464 -13.293457 5.8410645 2.2155762 14.602661 23.364258 10.675049 3.6254883 23.062134 62.23755 67.8772 87.41455 65.66162 80.06287 92.55066 61.331177 56.396484 64.956665 64.25171 75.93384 80.06287 36.557007 7.4523926 -8.862305 -25.27771 -32.629395 -28.29895 -23.062134 -24.371338 -63.24463 -76.7395 -90.234375 -89.227295 -101.51367 -108.05969 -82.177734 -72.71118 -62.942505 -49.0448 -44.41223 -63.64746 -30.81665 0.30212402 -1.2084961 6.8481445 28.903198 23.162842 12.991333 40.88745 72.81189 72.81189 88.52234 83.38623 103.22571 108.66394 65.25879 77.545166 82.27844 64.55383 69.68994 76.538086 27.593994 -10.675049 -31.521606 -43.203735 -54.0802 -46.829224 -53.878784 -52.56958 -74.92676 -84.09119 -80.26428 -69.38782 -74.62463 -85.90393 -66.36658 -54.885864 -45.721436 -39.98108 -52.267456 -65.963745 -15.005493 15.206909 4.9346924 7.6538086 18.026733 17.321777 30.917358 72.20764 89.52942 74.020386 67.474365 67.77649 86.00464 107.65686 83.08411 69.89136 54.0802 40.585327 42.49878 47.53418 -5.5389404 -17.422485 -33.132935 -51.663208 -55.490112 -55.69153 -46.5271 -47.131348 -70.69702 -78.048706 -78.45154 -74.92676 -80.56641 -83.99048 -66.16516 -49.749756 -41.99524 -35.34851 -47.332764 -65.25879 -18.933105 6.3446045 10.574341 25.378418 26.083374 9.768677 26.989746 57.000732 89.730835 97.18323 109.469604 106.04553 116.31775 130.41687 85.60181 76.034546 67.17224 49.346924 44.815063 43.00232 -4.1290283 -29.910278 -47.232056 -41.088867 -34.44214 -31.723022 -25.579834 -26.78833 -51.663208 -70.79773 -88.0188 -97.68677 -95.16907 -93.45703 -66.970825 -53.07312 -44.815063 -45.117188 -49.749756 -66.26587 -9.466553 28.500366 24.27063 36.35559 29.80957 -13.092041 -32.125854 -2.0141602 51.864624 71.90552 86.50818 84.89685 108.05969 132.63245 
3299.8992 3299.8992 3299.8992 3299.8992 3299.8992 3299.8992 3299.8992 3299.8992 3299.8992 3299.8992 3299.8992 3299.8992 3291.0369 3274.823 3259.0117 3243.2007 3227.5908 3212.1826 3196.6736 2128.9673 3193.1487 3210.1685 3227.4902 3243.805 3260.5225 3277.24 3293.756 -3289.9292 -3273.816 -3257.7026 -3241.8914 -3226.0803 -3210.6719 -3195.0623 -3179.7546 -3164.749 -3149.7437 -3134.9395 -3120.337 -2433.8103 3299.8992 3299.8992 3299.8992 3299.8992 3299.8992 3299.8992 3299.8992 3299.8992 3299.8992 3299.8992 3299.8992 3299.8992 3289.8284 3273.816 3257.8032 3242.0928 3226.3823 3211.0747 3195.5657 1973.6755 3192.4438 3209.967 3226.5837 3243.704 3260.4216 3276.7363 3293.051 -3290.634 -3274.5208 -3258.5083 -3242.697 -3226.886 -3211.1755 -3195.868 -3180.661 -3165.454 -3150.5493 -3135.745 -3121.0417 -2486.5813 3299.8992 3299.8992 3299.8992 3299.8992 3299.8992 3299.8992 3299.8992 3299.8992 3299.8992 3299.8992 3299.8992 3299.8992 3290.1306 3274.0173 3258.0046 3242.1936 3226.6846 3211.1755 3195.868 2119.2993 3192.1416 3209.6648 3226.6846 3243.0999 3259.8174 3276.535 3293.051 -3290.7349 -3274.5208 -3258.5083 -3242.5964 -3226.7852 -3211.2761 -3195.868 -3180.4595 -3165.3533 -3150.4485 -3135.5437 -3120.9412 -2278.5186 3299.8992 3299.8992 3299.8992 3299.8992 3299.8992 3299.8992 3299.8992 3299.8992 3299.8992 3299.8992 3299.8992 3299.8992 3289.1235 3273.1108 3257.0984 3241.388 3225.778 3210.3699 3194.9614 1707.605 3192.9473 3209.8662 3226.6846 3243.9055 3260.623 3277.0386 3293.1519 -3290.5334 -3274.4202 -3258.307 -3242.4956 -3226.7852 -3211.0747 -3195.6665 -3180.4595 -3165.2527 -3150.348 -3135.5437 -3120.8403 -2417.5964 3299.8992 3299.8992 3299.8992 3299.8992 3299.8992 3299.8992 3299.8992 3299.8992 3299.8992 3299.8992 3299.8992 3299.8992 3289.4255 3273.2117 3257.4004 3241.5894 3226.0803 3210.5713 3195.1628 1722.409 3192.8467 3210.3699 3226.9866 3244.2078 3260.7239 3277.24 3293.3533 -3290.2312 -3274.118 -3258.1055 -3242.1936 -3226.4832 -3210.7727 -3195.465 -3180.1575 -3165.0513 -3150.0457 -3135.3423 -3120.639 -1868.2343 
3299.8992 3299.8992 3299.8992 3299.8992 3299.8992 3299.8992 3299.8992 3299.8992 3297.583 3282.4768 3267.572 3252.7678 3237.863 3223.2605 3208.6577 3194.2566 3180.0566 3165.9575 3151.9592 -117.62695 3155.2825 3171.1943 3187.3076 3203.018 3218.628 3234.439 3249.646 3265.0542 3280.2612 3295.3674 -3289.627 -3274.7222 -3259.8174 -3245.0134 -3230.612 -3216.11 -3201.8096 -3187.6099 -3173.6113 1873.2697 3299.8992 3299.8992 3299.8992 3299.8992 3299.8992 3299.8992 3299.8992 3299.8992 3296.878 3281.8726 3266.867 3251.9622 3237.1582 3222.4548 3207.953 3193.6523 3179.3518 3165.3533 3151.355 -317.63306 3154.9805 3170.8923 3187.1062 3202.8167 3218.4265 3234.2375 3249.4446 3264.6514 3280.0598 3295.166 -3289.9292 -3274.9236 -3260.1196 -3245.4163 -3230.8135 -3216.4124 -3202.011 -3187.9119 -3173.8127 1987.3718 3299.8992 3299.8992 3299.8992 3299.8992 3299.8992 3299.8992 3299.8992 3299.8992 3296.576 3281.4697 3266.565 3251.6602 3236.856 3222.1526 3207.6506 3193.2495 3179.0496 3165.0513 3150.9521 -595.68787 3155.2825 3171.1943 3187.3076 3203.119 3218.7285 3234.439 3249.646 3264.9536 3280.2612 3295.3674 -3289.5264 -3274.5208 -3259.7168 -3245.114 -3230.5115 -3216.0095 -3201.709 -3187.6099 -3173.6113 2307.7239 3299.8992 3299.8992 3299.8992 3299.8992 3299.8992 3299.8992 3299.8992 3299.8992 3296.173 3281.067 3266.162 3251.1565 3236.4531 3221.8506 3207.2478 3192.9473 3178.8481 3164.5476 3150.5493 -881.5979 3155.3833 3171.7986 3187.509 3203.2195 3218.93 3234.5398 3249.948 3265.155 3280.4626 3295.5688 -3289.4255 -3274.5208 -3259.7168 -3244.9126 -3230.4106 -3216.0095 -3201.709 -3187.509 -3173.5107 2461.6057 3299.8992 3299.8992 3299.8992 3299.8992 3299.8992 3299.8992 3299.8992 3299.8992 3295.9717 3280.8655 3265.9607 3251.056 3236.3525 3221.6492 3207.1472 3192.7458 3178.5461 3164.447 3150.247 -1858.9691 3157.0952 3173.5107 3189.1204 3204.8308 3220.5413 3235.7483 3251.4587 3266.7664 3281.9731 3297.0793 -3287.8142 -3272.9094 -3258.0046 -3243.402 -3228.9001 -3214.3982 -3200.1982 -3185.9985 -3172 2835.9375 
