wall_time,elapsed_s,F1_N,F2_N
2026-07-20T16:55:16.357,0.0358,-7.4924,-4.4883
2026-07-20T16:55:16.360,0.0379,-7.3749,-4.645
2026-07-20T16:55:16.372,0.0379,-7.2574,-4.4296
2026-07-20T16:55:16.372,0.0379,-7.4924,-4.6058
2026-07-20T16:55:16.396,0.063,-7.3945,-4.6645
2026-07-20T16:55:16.404,0.0739,-7.1595,-4.3512
2026-07-20T16:55:16.410,0.0739,-7.5511,-4.5471
2026-07-20T16:55:16.431,0.1063,-7.2378,-4.645
2026-07-20T16:55:16.435,0.1063,-7.3357,-4.3121
2026-07-20T16:55:16.435,0.1063,-7.3749,-4.6645
2026-07-20T16:55:16.460,0.1391,-7.2378,-4.6254
2026-07-20T16:55:16.460,0.1391,-7.3162,-4.4883
2026-07-20T16:55:16.468,0.1414,-7.6295,-4.6058
2026-07-20T16:55:16.483,0.1437,-7.1987,-4.6058
2026-07-20T16:55:16.498,0.1724,-7.3945,-4.5275
2026-07-20T16:55:16.498,0.1724,-7.5316,-4.7233
2026-07-20T16:55:16.514,0.1734,-7.2574,-4.4687
2026-07-20T16:55:16.525,0.1892,-7.5707,-4.4687
2026-07-20T16:55:16.530,0.205,-7.2378,-4.6841
2026-07-20T16:55:16.546,0.205,-7.1791,-4.4883
2026-07-20T16:55:16.562,0.2208,-7.3749,-4.4687
2026-07-20T16:55:16.562,0.2365,-7.4532,-4.6841
2026-07-20T16:55:16.562,0.2365,-7.1595,-4.4883
2026-07-20T16:55:16.577,0.2365,-7.4336,-4.6254
2026-07-20T16:55:16.593,0.2624,-7.4728,-4.645
2026-07-20T16:55:16.593,0.2624,-7.2574,-4.3708
2026-07-20T16:55:16.622,0.2838,-7.512,-4.4687
2026-07-20T16:55:16.625,0.2838,-7.3749,-4.782
2026-07-20T16:55:16.635,0.2838,-7.2183,-4.3904
2026-07-20T16:55:16.643,0.32,-7.5903,-4.3904
2026-07-20T16:55:16.652,0.32,-7.3749,-4.7429
2026-07-20T16:55:16.656,0.32,-7.1008,-4.3317
2026-07-20T16:55:16.672,0.3484,-7.4924,-4.4491
2026-07-20T16:55:16.687,0.3515,-7.3749,-4.6841
2026-07-20T16:55:16.692,0.3515,-7.3749,-4.41
2026-07-20T16:55:16.707,0.3796,-7.4728,-4.5666
2026-07-20T16:55:16.719,0.3816,-7.3357,-4.7429
2026-07-20T16:55:16.724,0.3816,-7.1791,-4.3708
2026-07-20T16:55:16.734,0.4088,-7.4141,-4.5275
2026-07-20T16:55:16.740,0.4088,-7.2574,-4.7233
2026-07-20T16:55:16.754,0.4088,-7.2574,-4.2729
2026-07-20T16:55:16.770,0.427,-7.4924,-4.5862
2026-07-20T16:55:16.776,0.427,-7.2966,-4.5275
2026-07-20T16:55:16.781,0.4407,-7.4924,-4.2925
2026-07-20T16:55:16.797,0.4564,-7.5316,-4.7233
2026-07-20T16:55:16.799,0.4564,-7.2966,-4.6254
2026-07-20T16:55:16.799,0.4564,-7.2183,-4.3708
2026-07-20T16:55:16.827,0.4889,-7.5511,-4.5471
2026-07-20T16:55:16.829,0.4889,-7.1987,-4.645
2026-07-20T16:55:16.829,0.5193,-7.2574,-4.3708
2026-07-20T16:55:16.861,0.5238,-7.512,-4.6058
2026-07-20T16:55:16.861,0.5238,-7.2183,-4.6645
2026-07-20T16:55:16.861,0.5238,-7.3357,-4.3317
2026-07-20T16:55:16.892,0.5511,-7.5707,-4.6254
2026-07-20T16:55:16.892,0.5511,-7.2183,-4.645
2026-07-20T16:55:16.896,0.5824,-7.3357,-4.3708
2026-07-20T16:55:16.923,0.5824,-7.4532,-4.6645
2026-07-20T16:55:16.923,0.5824,-7.1791,-4.6058
2026-07-20T16:55:16.935,0.5824,-7.2966,-4.3512
2026-07-20T16:55:16.955,0.6138,-7.4924,-4.5666
2026-07-20T16:55:16.955,0.6138,-7.4141,-4.41
2026-07-20T16:55:16.955,0.6138,-7.4336,-4.4491
2026-07-20T16:55:16.970,0.6508,-7.5511,-4.645
2026-07-20T16:55:16.986,0.6508,-7.1987,-4.5471
2026-07-20T16:55:16.986,0.6508,-7.3749,-4.41
2026-07-20T16:55:17.017,0.68,-7.5511,-4.6841
2026-07-20T16:55:17.017,0.68,-7.1987,-4.645
2026-07-20T16:55:17.023,0.68,-7.2574,-4.41
2026-07-20T16:55:17.023,0.7249,-7.3749,-4.6058
2026-07-20T16:55:17.037,0.7249,-7.1399,-4.5862
2026-07-20T16:55:17.052,0.7249,-7.3357,-4.4491
2026-07-20T16:55:17.064,0.7249,-7.4336,-4.645
2026-07-20T16:55:17.064,0.7552,-7.2574,-4.7037
2026-07-20T16:55:17.085,0.7552,-7.3553,-4.3708
2026-07-20T16:55:17.085,0.7552,-7.3749,-4.6058
2026-07-20T16:55:17.097,0.7552,-7.1791,-4.6254
2026-07-20T16:55:17.120,0.7866,-7.3162,-4.4687
2026-07-20T16:55:17.128,0.7866,-7.4728,-4.7429
2026-07-20T16:55:17.128,0.7866,-7.2378,-4.5275
2026-07-20T16:55:17.148,0.818,-7.3749,-4.2925
2026-07-20T16:55:17.159,0.818,-7.4336,-4.782
2026-07-20T16:55:17.159,0.818,-7.1987,-4.5666
2026-07-20T16:55:17.159,0.818,-7.4141,-4.3121
2026-07-20T16:55:17.190,0.8601,-7.3945,-4.6645
2026-07-20T16:55:17.190,0.8601,-7.2183,-4.41
2026-07-20T16:55:17.190,0.8653,-7.5511,-4.5862
2026-07-20T16:55:17.218,0.8922,-7.2574,-4.5666
2026-07-20T16:55:17.222,0.8922,-7.2574,-4.2533
2026-07-20T16:55:17.232,0.8971,-7.5707,-4.4491
2026-07-20T16:55:17.248,0.9223,-7.2966,-4.645
2026-07-20T16:55:17.255,0.9223,-7.2378,-4.3708
2026-07-20T16:55:17.255,0.9223,-7.4532,-4.5666
2026-07-20T16:55:17.284,0.9444,-7.3162,-4.6254
2026-07-20T16:55:17.285,0.9444,-7.3945,-4.5471
2026-07-20T16:55:17.295,0.9444,-7.4532,-4.7624
2026-07-20T16:55:17.301,0.9833,-7.1008,-4.4687
2026-07-20T16:55:17.317,0.9833,-7.3553,-4.4883
2026-07-20T16:55:17.317,0.9833,-7.512,-4.5862
2026-07-20T16:55:17.336,1.0071,-7.2378,-4.5862
2026-07-20T16:55:17.353,1.0071,-7.3945,-4.3904
2026-07-20T16:55:17.353,1.0071,-7.4336,-4.6841
2026-07-20T16:55:17.379,1.0387,-7.1987,-4.5275
2026-07-20T16:55:17.379,1.0387,-7.4532,-4.4883
2026-07-20T16:55:17.379,1.0387,-7.5511,-4.5862
2026-07-20T16:55:17.395,1.0707,-7.277,-4.5666
2026-07-20T16:55:17.395,1.0707,-7.4336,-4.4296
2026-07-20T16:55:17.411,1.0707,-7.4728,-4.645
2026-07-20T16:55:17.430,1.0865,-7.1987,-4.5079
2026-07-20T16:55:17.430,1.0865,-7.5511,-4.4491
2026-07-20T16:55:17.443,1.1023,-7.3357,-4.7624
2026-07-20T16:55:17.458,1.1231,-7.2183,-4.3708
2026-07-20T16:55:17.459,1.1231,-7.5511,-4.5079
2026-07-20T16:55:17.475,1.1231,-7.2183,-4.782
2026-07-20T16:55:17.495,1.1553,-7.2183,-4.4687
2026-07-20T16:55:17.495,1.1553,-7.5511,-4.4491
2026-07-20T16:55:17.495,1.1588,-7.4336,-4.7037
2026-07-20T16:55:17.522,1.1853,-7.2574,-4.5275
2026-07-20T16:55:17.522,1.1853,-7.3553,-4.3904
2026-07-20T16:55:17.531,1.1853,-7.4336,-4.7429
2026-07-20T16:55:17.553,1.2121,-7.2378,-4.4883
2026-07-20T16:55:17.553,1.2121,-7.5903,-4.645
2026-07-20T16:55:17.558,1.2438,-7.2574,-4.7037
2026-07-20T16:55:17.576,1.2438,-7.1399,-4.4883
2026-07-20T16:55:17.584,1.2438,-7.5511,-4.5275
2026-07-20T16:55:17.600,1.2753,-7.277,-4.7233
2026-07-20T16:55:17.600,1.2753,-7.2574,-4.4296
2026-07-20T16:55:17.600,1.2753,-7.4924,-4.5275
2026-07-20T16:55:17.616,1.2805,-7.4336,-4.7233
2026-07-20T16:55:17.635,1.3067,-7.1399,-4.4883
2026-07-20T16:55:17.635,1.3067,-7.5511,-4.5666
2026-07-20T16:55:17.653,1.3106,-7.3749,-4.7624
2026-07-20T16:55:17.663,1.3258,-7.2183,-4.4687
2026-07-20T16:55:17.668,1.3258,-7.5511,-4.5275
2026-07-20T16:55:17.683,1.3385,-7.3749,-4.782
2026-07-20T16:55:17.693,1.3541,-7.3162,-4.41
2026-07-20T16:55:17.698,1.3641,-7.5316,-4.6058
2026-07-20T16:55:17.713,1.3667,-7.3357,-4.7624
2026-07-20T16:55:17.726,1.3855,-7.3357,-4.3512
2026-07-20T16:55:17.726,1.3855,-7.6295,-4.6254
2026-07-20T16:55:17.748,1.4168,-7.3553,-4.6645
2026-07-20T16:55:17.758,1.4168,-7.2378,-4.5079
2026-07-20T16:55:17.758,1.4214,-7.512,-4.5666
2026-07-20T16:55:17.776,1.4481,-7.4532,-4.6841
2026-07-20T16:55:17.777,1.4501,-7.2183,-4.3512
2026-07-20T16:55:17.796,1.4542,-7.4532,-4.645
2026-07-20T16:55:17.817,1.481,-7.2183,-4.6645
2026-07-20T16:55:17.817,1.481,-7.3945,-4.4491
2026-07-20T16:55:17.824,1.481,-7.5707,-4.5079
2026-07-20T16:55:17.836,1.5122,-7.3162,-4.7233
2026-07-20T16:55:17.844,1.5122,-7.2183,-4.41
2026-07-20T16:55:17.853,1.5122,-7.5511,-4.7233
2026-07-20T16:55:17.873,1.5427,-7.2378,-4.645
2026-07-20T16:55:17.873,1.5427,-7.2574,-4.3512
2026-07-20T16:55:17.885,1.5427,-7.6295,-4.645
2026-07-20T16:55:17.885,1.5696,-7.2574,-4.6645
2026-07-20T16:55:17.904,1.5766,-7.277,-4.4491
2026-07-20T16:55:17.904,1.5766,-7.4532,-4.5666
2026-07-20T16:55:17.929,1.6043,-7.2183,-4.7233
2026-07-20T16:55:17.942,1.6043,-7.3945,-4.3904
2026-07-20T16:55:17.942,1.6061,-7.512,-4.7037
2026-07-20T16:55:17.953,1.6305,-7.1595,-4.5471
2026-07-20T16:55:17.965,1.6305,-7.3357,-4.4491
2026-07-20T16:55:17.965,1.6305,-7.4141,-4.6841
2026-07-20T16:55:17.991,1.6537,-7.277,-4.3121
2026-07-20T16:55:18.001,1.6537,-7.3553,-4.3904
2026-07-20T16:55:18.003,1.6537,-7.4924,-4.7429
2026-07-20T16:55:18.026,1.688,-7.1791,-4.3904
2026-07-20T16:55:18.026,1.688,-7.4532,-4.41
2026-07-20T16:55:18.026,1.688,-7.2574,-4.6254
2026-07-20T16:55:18.042,1.704,-7.1595,-4.5079
2026-07-20T16:55:18.058,1.7165,-7.5903,-4.6058
2026-07-20T16:55:18.064,1.7165,-7.1791,-4.6645
2026-07-20T16:55:18.076,1.7408,-7.277,-4.3512
2026-07-20T16:55:18.076,1.7408,-7.5707,-4.5471
2026-07-20T16:55:18.102,1.7682,-7.3553,-4.7037
2026-07-20T16:55:18.104,1.7682,-7.2966,-4.41
2026-07-20T16:55:18.113,1.7682,-7.6099,-4.6254
2026-07-20T16:55:18.126,1.7949,-7.3945,-4.7233
2026-07-20T16:55:18.137,1.7949,-7.2574,-4.41
2026-07-20T16:55:18.141,1.7949,-7.5511,-4.6254
2026-07-20T16:55:18.154,1.8213,-7.4336,-4.7429
2026-07-20T16:55:18.154,1.8213,-7.4532,-4.3904
2026-07-20T16:55:18.182,1.8478,-7.5511,-4.5862
2026-07-20T16:55:18.183,1.8478,-7.3357,-4.6254
2026-07-20T16:55:18.196,1.8478,-7.2183,-4.2338
2026-07-20T16:55:18.204,1.8734,-7.6295,-4.6058
2026-07-20T16:55:18.215,1.8734,-7.2378,-4.5862
2026-07-20T16:55:18.220,1.8893,-7.2574,-4.3317
2026-07-20T16:55:18.231,1.9018,-7.5316,-4.6841
2026-07-20T16:55:18.246,1.9018,-7.2574,-4.645
2026-07-20T16:55:18.260,1.9292,-7.277,-4.3317
2026-07-20T16:55:18.262,1.9292,-7.5316,-4.6254
2026-07-20T16:55:18.274,1.9292,-7.3749,-4.6058
2026-07-20T16:55:18.290,1.9524,-7.2966,-4.4883
2026-07-20T16:55:18.293,1.9524,-7.5511,-4.6254
2026-07-20T16:55:18.302,1.9839,-7.3357,-4.6841
2026-07-20T16:55:18.315,1.9878,-7.4141,-4.3904
2026-07-20T16:55:18.325,1.9878,-7.5707,-4.6841
2026-07-20T16:55:18.337,1.9878,-7.1399,-4.7037
2026-07-20T16:55:18.344,2.0151,-7.3553,-4.3512
2026-07-20T16:55:18.356,2.0183,-7.6099,-4.6254
2026-07-20T16:55:18.360,2.0204,-7.3357,-4.7429
2026-07-20T16:55:18.376,2.044,-7.3553,-4.3512
2026-07-20T16:55:18.387,2.0459,-7.6099,-4.6058
2026-07-20T16:55:18.401,2.0629,-7.277,-4.7037
2026-07-20T16:55:18.406,2.0629,-7.2574,-4.4296
2026-07-20T16:55:18.414,2.0629,-7.5316,-4.6058
2026-07-20T16:55:18.431,2.0987,-7.3553,-4.6254
2026-07-20T16:55:18.433,2.1,-7.4728,-4.4296
2026-07-20T16:55:18.435,2.103,-7.5316,-4.7233
2026-07-20T16:55:18.459,2.1282,-7.2378,-4.5079
2026-07-20T16:55:18.469,2.1305,-7.6099,-4.4883
2026-07-20T16:55:18.474,2.1336,-7.6882,-4.7037
2026-07-20T16:55:18.484,2.1592,-7.4532,-4.5666
2026-07-20T16:55:18.485,2.1602,-7.6099,-4.645
2026-07-20T16:55:18.506,2.1632,-7.5903,-4.8603
2026-07-20T16:55:18.529,2.1824,-7.2966,-4.4296
2026-07-20T16:55:18.529,2.1824,-7.4728,-4.1359
2026-07-20T16:55:18.536,2.191,-7.3945,-4.2729
2026-07-20T16:55:18.544,2.218,-7.1791,-3.8617
2026-07-20T16:55:18.555,2.22,-7.3553,-3.3722
2026-07-20T16:55:18.563,2.224,-6.9441,-3.0981
2026-07-20T16:55:18.587,2.2566,-6.6896,-2.3736
2026-07-20T16:55:18.587,2.2566,-6.7287,-1.9624
2026-07-20T16:55:18.596,2.2601,-6.3763,-1.3945
2026-07-20T16:55:18.618,2.2913,-5.7889,-0.4547
2026-07-20T16:55:18.618,2.2913,-5.691,0.4265
2026-07-20T16:55:18.629,2.2977,-5.3581,1.2097
2026-07-20T16:55:18.635,2.3017,-4.849,2.7762
2026-07-20T16:55:18.655,2.3295,-4.5161,3.7748
2026-07-20T16:55:18.655,2.3295,-3.6937,4.793
2026-07-20T16:55:18.664,2.3401,-2.9692,6.1245
2026-07-20T16:55:18.676,2.3422,-2.5385,7.1818
2026-07-20T16:55:18.684,2.3745,-1.5007,7.9651
2026-07-20T16:55:18.700,2.3828,-0.7174,9.3945
2026-07-20T16:55:18.702,2.3878,-0.4237,10.3343
2026-07-20T16:55:18.719,2.3939,0.7119,11.3134
2026-07-20T16:55:18.728,2.4189,1.3777,12.7232
2026-07-20T16:55:18.737,2.4189,1.8476,13.4672
2026-07-20T16:55:18.747,2.4282,2.7875,14.3288
2026-07-20T16:55:18.755,2.4282,3.3162,15.0533
2026-07-20T16:55:18.766,2.4282,3.7861,15.2687
2026-07-20T16:55:18.777,2.4725,4.5498,15.4841
2026-07-20T16:55:18.785,2.4809,4.726,16.0911
2026-07-20T16:55:18.801,2.4869,4.9806,16.0911
2026-07-20T16:55:18.801,2.4869,5.4701,16.4631
2026-07-20T16:55:18.814,2.4942,5.8029,16.9722
2026-07-20T16:55:18.833,2.5262,6.1358,16.8743
2026-07-20T16:55:18.839,2.529,6.2729,17.3051
2026-07-20T16:55:18.845,2.5341,6.3316,17.3051
2026-07-20T16:55:18.859,2.5371,6.5666,17.4226
2026-07-20T16:55:18.859,2.5381,6.9974,17.7554
2026-07-20T16:55:18.874,2.571,7.0365,17.9904
2026-07-20T16:55:18.885,2.571,7.4282,17.7554
2026-07-20T16:55:18.905,2.5871,7.624,18.1862
2026-07-20T16:55:18.909,2.5871,7.5848,18.1666
2026-07-20T16:55:18.915,2.6197,8.0743,18.0687
2026-07-20T16:55:18.925,2.6237,8.2897,18.4212
2026-07-20T16:55:18.935,2.6277,7.996,18.382
2026-07-20T16:55:18.943,2.6297,8.3093,18.4408
2026-07-20T16:55:18.969,2.6297,8.5834,18.7345
2026-07-20T16:55:18.970,2.6297,8.5051,18.6561
2026-07-20T16:55:18.980,2.6635,8.7401,18.6561
2026-07-20T16:55:18.989,2.6686,8.9946,19.1457
2026-07-20T16:55:19.000,2.6755,8.9554,18.8911
2026-07-20T16:55:19.002,2.6755,9.445,19.1065
2026-07-20T16:55:19.017,2.6965,9.3471,19.3806
2026-07-20T16:55:19.018,2.7111,9.3471,19.1848
2026-07-20T16:55:19.048,2.7148,9.8757,19.1457
2026-07-20T16:55:19.048,2.7178,9.7778,19.4002
2026-07-20T16:55:19.061,2.7463,9.7974,19.2827
2026-07-20T16:55:19.069,2.7463,10.0128,19.4002
2026-07-20T16:55:19.069,2.7463,10.0128,19.6352
2026-07-20T16:55:19.087,2.7549,9.9736,19.4394
2026-07-20T16:55:19.101,2.7899,10.0716,19.6548
2026-07-20T16:55:19.106,2.7939,9.9541,19.6156
2026-07-20T16:55:19.115,2.7959,10.0324,19.4198
2026-07-20T16:55:19.127,2.8047,10.2086,19.6743
2026-07-20T16:55:19.134,2.8058,10.1303,19.7527
2026-07-20T16:55:19.143,2.8352,10.3261,20.0072
2026-07-20T16:55:19.157,2.8401,10.4827,20.0464
2026-07-20T16:55:19.180,2.8441,10.189,20.2226
2026-07-20T16:55:19.180,2.8451,10.3653,19.9681
2026-07-20T16:55:19.202,2.8763,10.6394,20.2814
2026-07-20T16:55:19.202,2.8763,10.4044,20.4967
2026-07-20T16:55:19.211,2.8823,10.5611,20.3401
2026-07-20T16:55:19.216,2.8849,10.6786,20.7121
2026-07-20T16:55:19.241,2.9144,10.4436,20.6142
2026-07-20T16:55:19.241,2.9144,10.5023,20.4576
2026-07-20T16:55:19.246,2.9144,10.6198,20.7905
2026-07-20T16:55:19.260,2.9196,10.5023,20.7905
2026-07-20T16:55:19.269,2.9533,10.8744,20.6925
2026-07-20T16:55:19.269,2.9553,10.7765,20.9275
2026-07-20T16:55:19.292,2.9593,10.4827,20.9275
2026-07-20T16:55:19.292,2.9653,10.9135,20.9863
2026-07-20T16:55:19.318,2.9957,10.9331,21.3387
2026-07-20T16:55:19.318,2.9957,10.6981,21.1233
2026-07-20T16:55:19.332,3.005,10.9331,21.1625
2026-07-20T16:55:19.338,3.005,10.9723,21.3975
2026-07-20T16:55:19.351,3.0344,11.1093,21.3975
2026-07-20T16:55:19.364,3.0387,11.5009,21.4954
2026-07-20T16:55:19.364,3.0387,11.1681,21.7891
2026-07-20T16:55:19.377,3.0478,11.2856,21.6324
2026-07-20T16:55:19.383,3.0538,11.638,21.4954
2026-07-20T16:55:19.403,3.0795,11.5597,21.5933
2026-07-20T16:55:19.411,3.086,11.3443,21.5541
2026-07-20T16:55:19.417,3.0914,11.873,21.6324
2026-07-20T16:55:19.429,3.0914,11.5401,21.7891
2026-07-20T16:55:19.440,3.1213,11.5597,21.3975
2026-07-20T16:55:19.449,3.1243,11.7751,21.5149
2026-07-20T16:55:19.458,3.1273,11.4814,21.4366
2026-07-20T16:55:19.468,3.1342,11.5793,21.1625
2026-07-20T16:55:19.477,3.1619,11.7947,21.28
2026-07-20T16:55:19.489,3.1667,11.403,21.045
2026-07-20T16:55:19.496,3.1667,11.5009,20.8688
2026-07-20T16:55:19.507,3.1735,11.7947,21.1037
2026-07-20T16:55:19.519,3.2017,11.5009,21.1233
2026-07-20T16:55:19.519,3.2037,11.5009,20.673
2026-07-20T16:55:19.539,3.2077,11.4814,20.8688
2026-07-20T16:55:19.539,3.2102,11.0702,20.8688
2026-07-20T16:55:19.556,3.2384,11.3247,20.5751
2026-07-20T16:55:19.567,3.2384,11.403,20.81
2026-07-20T16:55:19.580,3.2451,11.1289,20.673
2026-07-20T16:55:19.588,3.2512,11.2072,20.5946
2026-07-20T16:55:19.597,3.2627,10.9135,20.6534
2026-07-20T16:55:19.601,3.2779,10.7373,20.1247
2026-07-20T16:55:19.617,3.2864,10.8156,20.1639
2026-07-20T16:55:19.624,3.3128,10.7373,20.5555
2026-07-20T16:55:19.635,3.3128,10.4044,20.2226
2026-07-20T16:55:19.635,3.3128,10.5415,20.1247
2026-07-20T16:55:19.659,3.3128,10.4632,20.2814
2026-07-20T16:55:19.667,3.3516,10.2086,20.0268
2026-07-20T16:55:19.683,3.3576,10.2282,19.8506
2026-07-20T16:55:19.685,3.3584,10.0128,20.0268
2026-07-20T16:55:19.701,3.3634,9.8562,19.831
2026-07-20T16:55:19.709,3.3893,10.1107,19.7527
2026-07-20T16:55:19.721,3.3958,9.8757,20.0072
2026-07-20T16:55:19.724,3.4004,9.8366,19.8702
2026-07-20T16:55:19.736,3.4065,10.052,19.8506
2026-07-20T16:55:19.751,3.4308,9.8562,19.8506
2026-07-20T16:55:19.760,3.4308,9.6016,19.7527
2026-07-20T16:55:19.774,3.4308,10.0324,19.6939
2026-07-20T16:55:19.779,3.4308,9.8366,19.7135
2026-07-20T16:55:19.786,3.4665,9.6799,19.3806
2026-07-20T16:55:19.786,3.4695,9.8562,19.3611
2026-07-20T16:55:19.803,3.4745,9.6799,19.4394
2026-07-20T16:55:19.815,3.4813,9.6016,19.1261
2026-07-20T16:55:19.833,3.4952,9.8366,19.3611
2026-07-20T16:55:19.839,3.4952,9.4841,19.1065
2026-07-20T16:55:19.849,3.5153,9.445,18.7541
2026-07-20T16:55:19.854,3.5203,9.5233,18.8911
2026-07-20T16:55:19.867,3.5519,8.9946,18.617
2026-07-20T16:55:19.867,3.5589,9.0729,18.1471
2026-07-20T16:55:19.888,3.5624,9.0729,18.245
2026-07-20T16:55:19.902,3.5844,8.838,17.9904
2026-07-20T16:55:19.902,3.5844,8.7792,17.6184
2026-07-20T16:55:19.902,3.5955,8.6617,17.2855
2026-07-20T16:55:19.926,3.6031,8.2114,16.8351
2026-07-20T16:55:19.939,3.6151,7.9764,16.2086
2026-07-20T16:55:19.948,3.6401,7.5848,15.9736
2026-07-20T16:55:19.957,3.6421,6.9386,15.2687
2026-07-20T16:55:19.987,3.6461,6.7232,14.5442
2026-07-20T16:55:19.987,3.6461,6.175,14.3875
2026-07-20T16:55:19.987,3.6461,5.2743,13.6239
2026-07-20T16:55:19.996,3.6797,4.9218,12.8015
2026-07-20T16:55:20.007,3.6797,4.2169,12.3316
2026-07-20T16:55:20.018,3.6845,3.0616,11.3525
2026-07-20T16:55:20.018,3.6845,2.6113,10.4322
2026-07-20T16:55:20.034,3.7203,1.5539,9.7861
2026-07-20T16:55:20.039,3.7233,0.6532,8.7091
2026-07-20T16:55:20.057,3.7292,-0.0125,7.3189
2026-07-20T16:55:20.068,3.7373,-1.1678,6.1832
2026-07-20T16:55:20.068,3.7641,-2.3426,4.6755
2026-07-20T16:55:20.088,3.7641,-3.1063,3.3244
2026-07-20T16:55:20.101,3.7833,-4.1245,2.2866
2026-07-20T16:55:20.110,3.7878,-5.0644,0.9943
2026-07-20T16:55:20.119,3.8129,-5.5931,0.309
2026-07-20T16:55:20.119,3.8129,-6.435,-0.2784
2026-07-20T16:55:20.136,3.8286,-6.905,-1.2771
2026-07-20T16:55:20.151,3.8367,-6.9637,-1.747
2026-07-20T16:55:20.159,3.8367,-7.1204,-2.0211
2026-07-20T16:55:20.167,3.8367,-7.2574,-2.9218
2026-07-20T16:55:20.176,3.8641,-7.2378,-3.6072
2026-07-20T16:55:20.185,3.8641,-7.4924,-3.9009
2026-07-20T16:55:20.185,3.8828,-7.649,-4.645
2026-07-20T16:55:20.209,3.8883,-7.3162,-4.782
2026-07-20T16:55:20.218,3.8923,-7.7078,-4.7233
2026-07-20T16:55:20.227,3.9178,-7.7078,-5.1541
2026-07-20T16:55:20.236,3.9178,-7.4532,-5.017
2026-07-20T16:55:20.236,3.9178,-7.8448,-5.0366
2026-07-20T16:55:20.261,3.9277,-7.9036,-5.5653
2026-07-20T16:55:20.264,3.9295,-7.7665,-5.6044
2026-07-20T16:55:20.281,3.9562,-8.0798,-5.5065
2026-07-20T16:55:20.290,3.9562,-7.6882,-5.624
2026-07-20T16:55:20.290,3.9612,-7.7665,-5.389
2026-07-20T16:55:20.302,3.9628,-7.8644,-5.4086
2026-07-20T16:55:20.318,3.9858,-7.6882,-5.3694
2026-07-20T16:55:20.329,3.9878,-7.6882,-5.0562
2026-07-20T16:55:20.335,3.9898,-7.6882,-5.2911
2026-07-20T16:55:20.353,4.0125,-7.5903,-5.2324
2026-07-20T16:55:20.356,4.0131,-7.4728,-5.0953
2026-07-20T16:55:20.382,4.038,-7.6882,-5.252
2026-07-20T16:55:20.382,4.038,-7.3749,-5.2128
2026-07-20T16:55:20.385,4.04,-7.4532,-5.0757
2026-07-20T16:55:20.385,4.0599,-7.6686,-5.1541
2026-07-20T16:55:20.407,4.0609,-7.4532,-5.2911
2026-07-20T16:55:20.420,4.0785,-7.4532,-5.1345
2026-07-20T16:55:20.429,4.0829,-7.649,-5.1932
2026-07-20T16:55:20.435,4.1049,-7.4532,-5.3303
2026-07-20T16:55:20.451,4.1079,-7.6882,-5.1541
2026-07-20T16:55:20.457,4.1099,-7.7861,-5.3107
2026-07-20T16:55:20.457,4.1302,-7.4336,-5.2324
2026-07-20T16:55:20.477,4.1322,-7.7078,-5.1149
2026-07-20T16:55:20.499,4.1464,-7.8057,-5.2911
2026-07-20T16:55:20.500,4.1464,-7.4924,-5.3107
2026-07-20T16:55:20.507,4.1464,-7.7665,-5.1345
2026-07-20T16:55:20.515,4.1764,-7.8448,-5.3107
2026-07-20T16:55:20.519,4.1791,-7.4728,-5.2324
2026-07-20T16:55:20.534,4.2005,-7.8057,-5.1541
2026-07-20T16:55:20.534,4.2015,-7.6099,-5.3303
2026-07-20T16:55:20.557,4.223,-7.512,-5.1932
2026-07-20T16:55:20.571,4.225,-7.8448,-5.0953
2026-07-20T16:55:20.576,4.227,-7.7861,-5.2324
2026-07-20T16:55:20.594,4.2468,-7.6686,-5.1149
2026-07-20T16:55:20.596,4.2468,-7.7861,-5.1149
2026-07-20T16:55:20.618,4.2692,-7.7078,-5.3303
2026-07-20T16:55:20.618,4.2692,-7.7861,-5.1149
2026-07-20T16:55:20.619,4.2949,-7.8253,-5.2911
2026-07-20T16:55:20.641,4.2975,-7.4336,-5.252
2026-07-20T16:55:20.641,4.2985,-7.8057,-5.1149
2026-07-20T16:55:20.658,4.3208,-7.8448,-5.1345
2026-07-20T16:55:20.665,4.3214,-7.5707,-5.2128
2026-07-20T16:55:20.680,4.3469,-7.7665,-5.1345
2026-07-20T16:55:20.690,4.3495,-7.8448,-5.2324
2026-07-20T16:55:20.694,4.3515,-7.6295,-5.3694
2026-07-20T16:55:20.707,4.3722,-7.7665,-4.9582
2026-07-20T16:55:20.718,4.3732,-7.9427,-5.2128
2026-07-20T16:55:20.731,4.3959,-7.5903,-5.3694
2026-07-20T16:55:20.742,4.3959,-7.6686,-5.0366
2026-07-20T16:55:20.747,4.3959,-7.8057,-5.1736
2026-07-20T16:55:20.758,4.4203,-7.5903,-5.2911
2026-07-20T16:55:20.758,4.4203,-7.649,-5.1149
2026-07-20T16:55:20.768,4.4461,-7.884,-5.2324
2026-07-20T16:55:20.784,4.4461,-7.512,-5.1149
2026-07-20T16:55:20.798,4.4497,-7.7861,-5.1345
2026-07-20T16:55:20.817,4.4745,-7.7861,-5.3303
2026-07-20T16:55:20.818,4.4755,-7.5511,-5.1541
2026-07-20T16:55:20.822,4.4981,-7.7274,-5.0953
2026-07-20T16:55:20.843,4.5018,-7.8448,-5.1932
2026-07-20T16:55:20.846,4.5018,-7.6295,-5.2128
2026-07-20T16:55:20.859,4.529,-7.7078,-5.1736
2026-07-20T16:55:20.868,4.53,-7.7274,-5.2715
2026-07-20T16:55:20.876,4.532,-7.7861,-5.1149
2026-07-20T16:55:20.887,4.5551,-7.9232,-5.0562
2026-07-20T16:55:20.887,4.5561,-7.7665,-5.252
2026-07-20T16:55:20.924,4.5807,-7.4924,-5.252
2026-07-20T16:55:20.924,4.5817,-7.8057,-4.9778
2026-07-20T16:55:20.927,4.5827,-7.884,-5.252
2026-07-20T16:55:20.940,4.5964,-7.5511,-5.3499
2026-07-20T16:55:20.952,4.5964,-7.7665,-5.0757
2026-07-20T16:55:20.956,4.5964,-7.9232,-5.2324
2026-07-20T16:55:20.964,4.6434,-7.4532,-5.2715
2026-07-20T16:55:20.969,4.6444,-7.7665,-5.1149
2026-07-20T16:55:20.985,4.6645,-7.8644,-5.3107
2026-07-20T16:55:21.002,4.6645,-7.6882,-5.1932
2026-07-20T16:55:21.013,4.6645,-7.7469,-5.0757
2026-07-20T16:55:21.018,4.6717,-7.7274,-5.2715
2026-07-20T16:55:21.019,4.6957,-7.6686,-5.3303
2026-07-20T16:55:21.037,4.6968,-7.8253,-5.0366
2026-07-20T16:55:21.044,4.7198,-7.8253,-5.1932
2026-07-20T16:55:21.050,4.7208,-7.5707,-5.1149
2026-07-20T16:55:21.067,4.7218,-7.8448,-5.0366
2026-07-20T16:55:21.081,4.7441,-7.9036,-5.2715
2026-07-20T16:55:21.090,4.7441,-7.4728,-5.3694
2026-07-20T16:55:21.096,4.7441,-7.6686,-5.0953
2026-07-20T16:55:21.101,4.7631,-7.8057,-5.2324
2026-07-20T16:55:21.116,4.7631,-7.6099,-5.2324
2026-07-20T16:55:21.116,4.7958,-7.8644,-5.0562
2026-07-20T16:55:21.135,4.797,-7.7469,-5.252
2026-07-20T16:55:21.135,4.799,-7.5903,-5.0953
2026-07-20T16:55:21.165,4.8129,-7.8057,-4.9387
2026-07-20T16:55:21.165,4.8129,-7.7861,-5.252
2026-07-20T16:55:21.180,4.8456,-7.512,-5.1932
2026-07-20T16:55:21.185,4.8456,-7.7861,-5.1736
2026-07-20T16:55:21.185,4.8724,-7.8057,-5.252
2026-07-20T16:55:21.201,4.8744,-7.5707,-5.1736
2026-07-20T16:55:21.218,4.8754,-7.8448,-5.0366
2026-07-20T16:55:21.233,4.8968,-7.7861,-5.3694
2026-07-20T16:55:21.244,4.8968,-7.6099,-5.0953
2026-07-20T16:55:21.248,4.8968,-7.8644,-5.017
2026-07-20T16:55:21.268,4.9206,-7.8644,-5.252
2026-07-20T16:55:21.268,4.9206,-7.5316,-5.2128
2026-07-20T16:55:21.274,4.9513,-7.884,-5.017
2026-07-20T16:55:21.293,4.9533,-7.8057,-5.1932
2026-07-20T16:55:21.293,4.9543,-7.649,-5.1345
2026-07-20T16:55:21.322,4.9789,-7.7665,-5.0366
2026-07-20T16:55:21.322,4.98,-7.7665,-5.3303
2026-07-20T16:55:21.327,4.981,-7.5316,-5.2715
2026-07-20T16:55:21.336,5.0048,-7.6882,-5.017
2026-07-20T16:55:21.336,5.0048,-7.8448,-5.0953
2026-07-20T16:55:21.362,5.029,-7.7469,-5.2128
2026-07-20T16:55:21.375,5.0312,-7.7861,-5.0757
2026-07-20T16:55:21.379,5.0333,-7.8644,-4.9778
2026-07-20T16:55:21.385,5.0569,-7.6099,-5.3107
2026-07-20T16:55:21.397,5.0579,-7.6882,-5.0757
2026-07-20T16:55:21.407,5.0589,-7.7861,-5.1149
2026-07-20T16:55:21.416,5.0786,-7.8644,-5.252
2026-07-20T16:55:21.429,5.0786,-7.6099,-5.2324
2026-07-20T16:55:21.435,5.1087,-7.7469,-4.9778
2026-07-20T16:55:21.451,5.1097,-7.8448,-5.1932
2026-07-20T16:55:21.451,5.1107,-7.512,-5.1736
2026-07-20T16:55:21.478,5.1338,-7.6686,-5.0366
2026-07-20T16:55:21.478,5.1338,-7.8253,-5.1736
2026-07-20T16:55:21.484,5.157,-7.6295,-5.3303
2026-07-20T16:55:21.503,5.1589,-7.7665,-4.9778
2026-07-20T16:55:21.505,5.16,-7.9232,-5.1149
2026-07-20T16:55:21.527,5.1799,-7.7861,-5.2715
2026-07-20T16:55:21.528,5.1799,-7.6882,-5.0953
2026-07-20T16:55:21.535,5.2083,-7.884,-4.9778
2026-07-20T16:55:21.552,5.2093,-7.649,-5.2715
2026-07-20T16:55:21.552,5.2103,-7.4532,-5.1541
2026-07-20T16:55:21.567,5.2364,-7.9819,-5.1345
2026-07-20T16:55:21.579,5.2373,-7.7469,-5.2715
2026-07-20T16:55:21.588,5.2612,-7.4532,-5.252
2026-07-20T16:55:21.603,5.2628,-7.5903,-5.017
2026-07-20T16:55:21.609,5.2628,-7.9232,-5.2715
2026-07-20T16:55:21.632,5.2898,-7.7078,-5.2324
2026-07-20T16:55:21.632,5.2908,-7.7274,-5.017
2026-07-20T16:55:21.635,5.2928,-7.7861,-5.2324
2026-07-20T16:55:21.659,5.3129,-7.5903,-5.1149
2026-07-20T16:55:21.659,5.3129,-7.7665,-5.0757
2026-07-20T16:55:21.665,5.3129,-7.9623,-5.1541
2026-07-20T16:55:21.685,5.3465,-7.7665,-5.252
2026-07-20T16:55:21.685,5.3485,-7.6295,-5.1149
2026-07-20T16:55:21.701,5.3733,-7.884,-5.0366
2026-07-20T16:55:21.701,5.3747,-7.7861,-5.252
2026-07-20T16:55:21.718,5.3767,-7.512,-5.0757
2026-07-20T16:55:21.733,5.3994,-7.8057,-5.1345
2026-07-20T16:55:21.744,5.4021,-7.884,-5.2128
2026-07-20T16:55:21.748,5.4045,-7.5511,-5.2715
2026-07-20T16:55:21.762,5.4271,-7.7469,-4.9387
2026-07-20T16:55:21.769,5.43,-7.8448,-5.1736
2026-07-20T16:55:21.776,5.43,-7.5707,-5.252
2026-07-20T16:55:21.786,5.4554,-7.6686,-5.017
2026-07-20T16:55:21.786,5.4554,-7.9623,-5.1149
2026-07-20T16:55:21.802,5.4796,-7.6099,-5.3303
2026-07-20T16:55:21.825,5.4796,-7.6099,-5.0562
2026-07-20T16:55:21.829,5.4796,-7.884,-5.1736
2026-07-20T16:55:21.851,5.5036,-7.7274,-5.3694
2026-07-20T16:55:21.851,5.5036,-7.6099,-5.1932
2026-07-20T16:55:21.852,5.5036,-7.7861,-5.0366
2026-07-20T16:55:21.876,5.5301,-7.884,-5.2324
2026-07-20T16:55:21.876,5.5301,-7.5903,-5.0953
2026-07-20T16:55:21.893,5.5636,-7.7274,-5.017
2026-07-20T16:55:21.902,5.5676,-7.649,-5.2911
2026-07-20T16:55:21.902,5.5686,-7.4141,-5.1541
2026-07-20T16:55:21.922,5.5958,-7.7469,-5.0366
2026-07-20T16:55:21.933,5.5962,-8.0211,-5.1541
2026-07-20T16:55:21.936,5.5962,-7.512,-5.2715
2026-07-20T16:55:21.952,5.6257,-7.6882,-4.9778
2026-07-20T16:55:21.959,5.628,-7.9819,-5.1149
2026-07-20T16:55:21.969,5.6303,-7.649,-5.3499
2026-07-20T16:55:21.969,5.6463,-7.649,-5.1345
2026-07-20T16:55:21.995,5.6621,-7.9427,-5.0366
2026-07-20T16:55:22.000,5.6621,-7.7861,-5.252
2026-07-20T16:55:22.009,5.6621,-7.6295,-5.252
2026-07-20T16:55:22.019,5.6869,-7.8644,-5.0757
2026-07-20T16:55:22.019,5.6869,-7.9232,-5.3303
2026-07-20T16:55:22.034,5.6869,-7.5903,-5.1149
2026-07-20T16:55:22.034,5.7175,-7.9232,-5.0757
2026-07-20T16:55:22.059,5.7195,-8.0406,-5.2715
2026-07-20T16:55:22.067,5.7215,-7.6686,-5.252
2026-07-20T16:55:22.078,5.7445,-7.8644,-4.9778
2026-07-20T16:55:22.088,5.7445,-8.0015,-5.2911
2026-07-20T16:55:22.095,5.7751,-7.7861,-5.252
2026-07-20T16:55:22.109,5.7771,-7.7469,-5.1345
2026-07-20T16:55:22.117,5.779,-8.1386,-5.1149
2026-07-20T16:55:22.124,5.8054,-7.884,-5.252
2026-07-20T16:55:22.146,5.8074,-7.8448,-5.0953
2026-07-20T16:55:22.149,5.8094,-8.1386,-5.1541
2026-07-20T16:55:22.176,5.8349,-7.8253,-5.2715
2026-07-20T16:55:22.179,5.8349,-7.9427,-4.5862
2026-07-20T16:55:22.180,5.8349,-7.8644,-4.3512
2026-07-20T16:55:22.185,5.8677,-7.884,-4.2533
2026-07-20T16:55:22.186,5.8717,-7.4728,-3.5289
2026-07-20T16:55:22.203,5.8747,-7.2378,-2.7848
2026-07-20T16:55:22.218,5.8974,-7.0616,-2.2953
2026-07-20T16:55:22.221,5.8974,-6.5721,-1.6295
2026-07-20T16:55:22.239,5.914,-6.1609,-0.2589
2026-07-20T16:55:22.247,5.9242,-5.7693,0.5244
2026-07-20T16:55:22.258,5.9528,-4.9077,1.5034
2026-07-20T16:55:22.267,5.9568,-4.3007,2.8741
2026-07-20T16:55:22.270,5.9613,-3.7525,3.5985
2026-07-20T16:55:22.297,5.9748,-2.7734,4.4014
2026-07-20T16:55:22.297,5.9759,-1.9706,5.6349
2026-07-20T16:55:22.303,6.0138,-1.8335,6.4182
2026-07-20T16:55:22.324,6.0138,-1.1482,7.0839
2026-07-20T16:55:22.329,6.0138,-0.3454,8.2
2026-07-20T16:55:22.347,6.0138,-0.1496,8.9833
2026-07-20T16:55:22.352,6.029,0.6924,9.6686
2026-07-20T16:55:22.357,6.058,1.4756,10.8434
2026-07-20T16:55:22.365,6.0636,1.9064,11.7246
2026-07-20T16:55:22.369,6.0636,2.5525,12.2924
2026-07-20T16:55:22.386,6.0636,3.277,13.1931
2026-07-20T16:55:22.401,6.0794,3.7861,13.9568
2026-07-20T16:55:22.408,6.0851,4.2561,14.4071
2026-07-20T16:55:22.426,6.1101,5.0393,15.0141
2026-07-20T16:55:22.426,6.1125,5.3722,15.7974
2026-07-20T16:55:22.436,6.1206,5.7246,15.9736
2026-07-20T16:55:22.452,6.1256,6.312,16.3652
2026-07-20T16:55:22.457,6.1276,6.8799,16.9918
2026-07-20T16:55:22.476,6.1521,7.1149,17.2072
2026-07-20T16:55:22.476,6.1521,7.5848,17.3442
2026-07-20T16:55:22.495,6.1618,7.8981,18.1862
2026-07-20T16:55:22.497,6.1618,8.0939,18.4799
2026-07-20T16:55:22.502,6.1986,8.3484,18.5191
2026-07-20T16:55:22.518,6.2048,8.8771,19.0478
2026-07-20T16:55:22.524,6.2064,8.7792,19.4198
2026-07-20T16:55:22.534,6.2151,8.9359,19.4785
2026-07-20T16:55:22.534,6.2172,9.2492,19.831
2026-07-20T16:55:22.560,6.244,9.2883,20.0268
2026-07-20T16:55:22.575,6.247,9.2492,19.9681
2026-07-20T16:55:22.579,6.247,9.6408,19.9681
2026-07-20T16:55:22.586,6.247,9.4645,20.2226
2026-07-20T16:55:22.598,6.2846,9.6016,20.1247
2026-07-20T16:55:22.609,6.2876,9.8366,20.2814
2026-07-20T16:55:22.619,6.2937,9.7387,20.673
2026-07-20T16:55:22.619,6.2979,9.7191,20.4772
2026-07-20T16:55:22.636,6.3129,10.0324,20.3793
2026-07-20T16:55:22.651,6.3129,10.0911,20.81
2026-07-20T16:55:22.660,6.3129,9.7974,20.5751
2026-07-20T16:55:22.669,6.3372,10.2086,20.5751
2026-07-20T16:55:22.681,6.3634,10.1695,20.81
2026-07-20T16:55:22.685,6.3704,9.9932,20.6534
2026-07-20T16:55:22.685,6.3754,9.9932,20.4184
2026-07-20T16:55:22.711,6.3792,10.2086,20.4772
2026-07-20T16:55:22.719,6.404,10.0324,20.4576
2026-07-20T16:55:22.719,6.4047,9.9541,20.1639
2026-07-20T16:55:22.742,6.4087,10.1499,20.0268
2026-07-20T16:55:22.749,6.4137,9.9736,20.1247
2026-07-20T16:55:22.770,6.4367,9.7974,19.9289
2026-07-20T16:55:22.770,6.4418,10.1107,19.8114
2026-07-20T16:55:22.781,6.4505,10.2086,19.8897
2026-07-20T16:55:22.786,6.4574,9.8562,19.831
2026-07-20T16:55:22.786,6.4851,10.0716,19.7723
2026-07-20T16:55:22.809,6.4907,10.2086,19.7527
2026-07-20T16:55:22.823,6.4927,10.052,19.6939
2026-07-20T16:55:22.830,6.4958,9.9149,19.4002
2026-07-20T16:55:22.849,6.5139,10.0911,19.2436
2026-07-20T16:55:22.852,6.5282,9.8757,19.459
2026-07-20T16:55:22.857,6.5331,9.9345,19.1065
2026-07-20T16:55:22.869,6.5371,10.0716,19.0478
2026-07-20T16:55:22.869,6.563,10.0128,19.2632
2026-07-20T16:55:22.886,6.563,9.7191,19.0673
2026-07-20T16:55:22.886,6.563,9.9541,18.852
2026-07-20T16:55:22.909,6.5794,9.9932,18.989
2026-07-20T16:55:22.919,6.6102,9.6408,18.7149
2026-07-20T16:55:22.930,6.6186,9.7778,18.5191
2026-07-20T16:55:22.935,6.6206,9.9345,18.7932
2026-07-20T16:55:22.952,6.6266,9.7974,18.852
2026-07-20T16:55:22.952,6.6611,9.6408,18.6757
2026-07-20T16:55:22.979,6.6621,9.8953,18.6366
2026-07-20T16:55:22.982,6.6621,9.9541,18.989
2026-07-20T16:55:22.993,6.6621,9.6995,18.8715
2026-07-20T16:55:22.998,6.6621,9.8757,18.6953
2026-07-20T16:55:23.002,6.7066,10.0716,19.224
2026-07-20T16:55:23.018,6.7086,9.817,19.1065
2026-07-20T16:55:23.033,6.7136,9.8366,19.0086
2026-07-20T16:55:23.034,6.7186,10.0911,19.2436
2026-07-20T16:55:23.049,6.7237,9.9149,19.3806
2026-07-20T16:55:23.073,6.7443,9.6995,19.3219
2026-07-20T16:55:23.078,6.7443,10.1499,19.6743
2026-07-20T16:55:23.080,6.7443,10.0716,20.1051
2026-07-20T16:55:23.091,6.7649,9.9345,20.2618
2026-07-20T16:55:23.099,6.7649,10.189,20.3988
2026-07-20T16:55:23.117,6.8,10.3065,20.8492
2026-07-20T16:55:23.117,6.8054,10.3065,20.7905
2026-07-20T16:55:23.117,6.8074,10.424,20.7121
2026-07-20T16:55:23.137,6.8138,10.5611,21.1821
2026-07-20T16:55:23.137,6.8299,10.4632,21.2604
2026-07-20T16:55:23.164,6.8469,10.2869,21.3583
2026-07-20T16:55:23.180,6.8539,10.5807,21.417
2026-07-20T16:55:23.180,6.8549,10.4632,21.6912
2026-07-20T16:55:23.186,6.8589,10.424,21.5933
2026-07-20T16:55:23.202,6.8797,10.5023,21.652
2026-07-20T16:55:23.202,6.8883,10.4632,22.1024
2026-07-20T16:55:23.223,6.8954,10.3457,22.2198
2026-07-20T16:55:23.230,6.8954,10.3653,22.4548
2026-07-20T16:55:23.242,6.9276,10.5611,22.9248
2026-07-20T16:55:23.252,6.9276,10.4044,23.238
2026-07-20T16:55:23.261,6.9276,10.4044,23.1401
2026-07-20T16:55:23.268,6.9441,10.6198,23.4926
2026-07-20T16:55:23.268,6.9731,10.3653,23.6884
2026-07-20T16:55:23.284,6.9815,9.9932,23.5318
2026-07-20T16:55:23.296,6.9837,10.052,23.3555
2026-07-20T16:55:23.300,6.9887,10.0324,23.6492
2026-07-20T16:55:23.318,6.995,9.6604,23.5709
2026-07-20T16:55:23.318,7.0189,9.7974,23.5709
2026-07-20T16:55:23.342,7.0301,9.9736,23.8255
2026-07-20T16:55:23.354,7.0362,9.7583,24.3737
2026-07-20T16:55:23.356,7.0382,9.9149,24.4129
2026-07-20T16:55:23.369,7.0426,10.1499,25.0003
2026-07-20T16:55:23.385,7.0683,10.1303,25.6661
2026-07-20T16:55:23.386,7.0683,9.8562,25.901
2026-07-20T16:55:23.411,7.0782,9.9932,25.8031
2026-07-20T16:55:23.418,7.0782,10.052,25.7835
2026-07-20T16:55:23.418,7.0782,9.817,25.8031
2026-07-20T16:55:23.427,7.1118,9.7191,25.5486
2026-07-20T16:55:23.434,7.1137,9.8366,25.7444
2026-07-20T16:55:23.441,7.1137,9.582,26.0185
2026-07-20T16:55:23.451,7.1512,9.5429,26.3318
2026-07-20T16:55:23.467,7.1532,9.7387,26.3906
2026-07-20T16:55:23.483,7.1576,9.9149,26.8605
2026-07-20T16:55:23.486,7.1632,9.7974,27.35
2026-07-20T16:55:23.486,7.1632,9.7191,27.4087
2026-07-20T16:55:23.510,7.1955,9.9932,27.6829
2026-07-20T16:55:23.519,7.1955,10.1107,28.0158
2026-07-20T16:55:23.534,7.2055,9.7387,28.192
2026-07-20T16:55:23.536,7.2105,10.0128,28.1724
2026-07-20T16:55:23.561,7.2391,10.0911,28.4661
2026-07-20T16:55:23.561,7.2411,9.8366,28.2703
2026-07-20T16:55:23.574,7.2459,9.7974,27.8004
2026-07-20T16:55:23.583,7.251,9.8953,27.8395
2026-07-20T16:55:23.586,7.281,9.6604,27.6437
2026-07-20T16:55:23.606,7.2861,9.6408,27.4675
2026-07-20T16:55:23.606,7.2861,9.8757,27.1934
2026-07-20T16:55:23.619,7.2922,9.7583,27.3108
2026-07-20T16:55:23.626,7.2971,9.7387,27.1934
2026-07-20T16:55:23.642,7.3135,9.9149,26.9192
2026-07-20T16:55:23.642,7.3135,10.0324,26.9192
2026-07-20T16:55:23.665,7.3135,9.6016,26.6843
2026-07-20T16:55:23.669,7.3298,9.6016,26.1947
2026-07-20T16:55:23.680,7.3609,9.8562,26.0577
2026-07-20T16:55:23.686,7.3666,9.5233,25.901
2026-07-20T16:55:23.686,7.3696,9.445,25.5682
2026-07-20T16:55:23.702,7.3746,9.3862,25.6269
2026-07-20T16:55:23.718,7.3956,9.0925,25.529
2026-07-20T16:55:23.729,7.4049,8.603,24.8437
2026-07-20T16:55:23.739,7.4049,8.3289,24.4521
2026-07-20T16:55:23.749,7.4116,8.3093,24.0996
2026-07-20T16:55:23.768,7.4322,7.8981,23.4143
2026-07-20T16:55:23.768,7.4439,7.7806,23.0422
2026-07-20T16:55:23.777,7.4472,7.761,22.8464
2026-07-20T16:55:23.784,7.4472,7.2519,22.5136
2026-07-20T16:55:23.800,7.4792,7.017,21.7303
2026-07-20T16:55:23.805,7.4853,6.8211,21.3191
2026-07-20T16:55:23.820,7.4925,6.5274,21.0254
2026-07-20T16:55:23.820,7.4956,6.0967,20.7121
2026-07-20T16:55:23.846,7.5246,6.3904,20.3009
2026-07-20T16:55:23.851,7.5266,6.1946,20.5555
2026-07-20T16:55:23.858,7.5266,5.7834,20.1247
2026-07-20T16:55:23.869,7.5304,5.5876,19.7135
2026-07-20T16:55:23.879,7.5626,5.4309,19.5569
2026-07-20T16:55:23.889,7.5657,4.8043,18.9694
2026-07-20T16:55:23.899,7.5717,4.491,17.775
2026-07-20T16:55:23.903,7.5747,4.0994,17.0897
2026-07-20T16:55:23.918,7.6029,3.3554,16.4239
2026-07-20T16:55:23.935,7.6106,2.6504,15.1708
2026-07-20T16:55:23.943,7.617,2.2588,14.368
2026-07-20T16:55:23.946,7.621,1.4952,13.6435
2026-07-20T16:55:23.952,7.6466,1.0252,12.6644
2026-07-20T16:55:23.968,7.6466,0.8882,11.9987
2026-07-20T16:55:23.981,7.6466,0.5357,11.6462
2026-07-20T16:55:23.989,7.6466,-0.0125,11.2155
2026-07-20T16:55:24.000,7.6788,-0.0909,10.628
2026-07-20T16:55:24.012,7.6898,-0.1692,10.5301
2026-07-20T16:55:24.019,7.6898,-0.4629,10.4322
2026-07-20T16:55:24.019,7.6985,-0.5608,9.9427
2026-07-20T16:55:24.046,7.7259,-0.3454,9.8252
2026-07-20T16:55:24.051,7.7279,-0.6391,9.9427
2026-07-20T16:55:24.051,7.7279,-0.8153,9.4532
2026-07-20T16:55:24.071,7.7335,-0.3454,9.414
2026-07-20T16:55:24.084,7.7568,-0.4042,9.5119
2026-07-20T16:55:24.093,7.764,-0.7174,9.3749
2026-07-20T16:55:24.097,7.764,-0.2671,9.2378
2026-07-20T16:55:24.115,7.7942,-0.3062,9.5315
2026-07-20T16:55:24.127,7.7982,-0.5608,9.4532
2026-07-20T16:55:24.127,7.8012,-0.3258,9.277
2026-07-20T16:55:24.136,7.8032,-0.2279,9.5707
2026-07-20T16:55:24.153,7.8294,-0.4237,9.5315
2026-07-20T16:55:24.163,7.8294,-0.4433,9.4336
2026-07-20T16:55:24.171,7.8294,-0.1692,9.4728
2026-07-20T16:55:24.179,7.8603,-0.2671,9.6686
2026-07-20T16:55:24.186,7.8696,-0.2475,9.7861
2026-07-20T16:55:24.202,7.8736,0.1049,9.884
2026-07-20T16:55:24.202,7.8776,0.1637,10.2168
2026-07-20T16:55:24.218,7.8966,0.1049,10.0406
2026-07-20T16:55:24.233,7.8966,0.2812,10.2364
2026-07-20T16:55:24.242,7.8966,0.7707,10.3147
2026-07-20T16:55:24.253,7.8966,0.3595,10.491
2026-07-20T16:55:24.261,7.9301,0.4378,10.3735
2026-07-20T16:55:24.269,7.9301,0.7511,10.7651
2026-07-20T16:55:24.269,7.9444,0.6336,10.9413
2026-07-20T16:55:24.285,7.9741,0.6728,10.7064
2026-07-20T16:55:24.302,7.9781,1.0644,11.0392
2026-07-20T16:55:24.302,7.9825,1.0252,11.5092
2026-07-20T16:55:24.323,7.9836,0.9665,11.3721
2026-07-20T16:55:24.332,8.0132,1.3777,11.1959
2026-07-20T16:55:24.341,8.0132,1.5148,11.5679
2026-07-20T16:55:24.350,8.0132,1.2602,11.5679
2026-07-20T16:55:24.356,8.0132,1.2602,11.3329
2026-07-20T16:55:24.367,8.0531,1.5539,11.1567
2026-07-20T16:55:24.367,8.0551,1.5343,11.1176
2026-07-20T16:55:24.385,8.0592,1.1819,10.7847
2026-07-20T16:55:24.385,8.0645,1.3385,10.7259
2026-07-20T16:55:24.412,8.0906,1.319,11.0392
2026-07-20T16:55:24.420,8.0962,0.9469,10.8826
2026-07-20T16:55:24.431,8.1056,1.0252,10.6672
2026-07-20T16:55:24.437,8.1066,1.1231,11.0001
2026-07-20T16:55:24.443,8.136,1.0252,10.9217
2026-07-20T16:55:24.460,8.139,1.1231,10.5889
2026-07-20T16:55:24.478,8.145,1.1623,10.9022
2026-07-20T16:55:24.479,8.1481,0.849,10.9413
2026-07-20T16:55:24.486,8.1736,0.7903,10.7259
2026-07-20T16:55:24.501,8.1736,0.9273,10.5301
2026-07-20T16:55:24.511,8.1795,0.7903,10.8043
2026-07-20T16:55:24.523,8.1861,0.3987,10.5889
2026-07-20T16:55:24.531,8.2107,0.5553,10.2952
2026-07-20T16:55:24.536,8.2123,0.5749,10.3539
2026-07-20T16:55:24.552,8.2155,0.3987,10.4714
2026-07-20T16:55:24.558,8.2422,0.242,10.2756
2026-07-20T16:55:24.569,8.2462,0.6532,10.0798
2026-07-20T16:55:24.569,8.2462,0.477,10.3539
2026-07-20T16:55:24.593,8.255,0.3008,10.1581
2026-07-20T16:55:24.611,8.2811,0.5357,10.0994
2026-07-20T16:55:24.612,8.2841,0.5553,10.3735
2026-07-20T16:55:24.619,8.2871,0.2812,10.1581
2026-07-20T16:55:24.627,8.3109,0.6336,9.9427
2026-07-20T16:55:24.640,8.3161,0.4378,10.0994
2026-07-20T16:55:24.651,8.3187,0.3987,9.9231
2026-07-20T16:55:24.660,8.3287,0.5749,9.9427
2026-07-20T16:55:24.681,8.3586,0.5161,10.1385
2026-07-20T16:55:24.681,8.3616,0.1049,9.9036
2026-07-20T16:55:24.691,8.3666,0.4966,9.9623
2026-07-20T16:55:24.704,8.3686,0.4574,10.1189
2026-07-20T16:55:24.713,8.3927,0.1833,10.0015
2026-07-20T16:55:24.725,8.3968,0.4574,9.8644
2026-07-20T16:55:24.731,8.3968,0.3595,10.0602
2026-07-20T16:55:24.741,8.4052,0.242,9.9819
2026-07-20T16:55:24.751,8.4261,0.5749,9.7861
2026-07-20T16:55:24.751,8.4349,0.6336,10.0994
2026-07-20T16:55:24.769,8.4375,0.4378,10.0406
2026-07-20T16:55:24.778,8.4463,0.7315,9.8644
2026-07-20T16:55:24.789,8.4739,0.7315,10.1581
2026-07-20T16:55:24.798,8.4759,0.5553,10.2168
2026-07-20T16:55:24.810,8.4822,0.7707,9.9427
2026-07-20T16:55:24.819,8.4872,0.8099,10.1189
2026-07-20T16:55:24.829,8.5142,0.614,10.2952
2026-07-20T16:55:24.840,8.5142,0.6924,9.9231
2026-07-20T16:55:24.848,8.5142,0.849,10.1385
2026-07-20T16:55:24.860,8.5237,0.7511,10.1385
2026-07-20T16:55:24.869,8.5549,0.5945,9.9819
2026-07-20T16:55:24.869,8.5549,0.9273,10.021
2026-07-20T16:55:24.887,8.5589,0.7511,10.2168
2026-07-20T16:55:24.902,8.5629,0.9469,10.021
2026-07-20T16:55:24.910,8.5908,0.9273,10.2168
2026-07-20T16:55:24.921,8.5969,0.8882,10.4322
2026-07-20T16:55:24.931,8.6019,0.8686,10.2756
2026-07-20T16:55:24.935,8.6039,1.2406,10.2364
2026-07-20T16:55:24.951,8.6331,0.9273,10.3735
2026-07-20T16:55:24.951,8.6351,0.9078,10.3343
2026-07-20T16:55:24.976,8.6401,1.0644,10.3343
2026-07-20T16:55:24.978,8.6431,0.7903,10.4126
2026-07-20T16:55:24.989,8.6622,0.9469,10.2364
2026-07-20T16:55:25.002,8.6685,0.9273,10.1189
2026-07-20T16:55:25.014,8.6715,0.8882,10.5301
2026-07-20T16:55:25.033,8.7037,0.6924,10.3735
2026-07-20T16:55:25.033,8.7037,0.9665,10.1385
2026-07-20T16:55:25.044,8.7142,0.7707,10.3539
2026-07-20T16:55:25.044,8.7373,0.614,10.256
2026-07-20T16:55:25.063,8.7413,0.9469,10.0406
2026-07-20T16:55:25.072,8.7453,0.9078,10.1973
2026-07-20T16:55:25.088,8.7463,0.7511,10.4322
2026-07-20T16:55:25.089,8.7746,0.8882,10.2168
2026-07-20T16:55:25.107,8.78,1.1036,10.2756
2026-07-20T16:55:25.114,8.785,0.8294,10.5106
2026-07-20T16:55:25.119,8.7891,0.6924,10.1973
2026-07-20T16:55:25.130,8.8153,0.7903,10.0994
2026-07-20T16:55:25.135,8.8174,0.8294,10.4714
2026-07-20T16:55:25.151,8.8174,0.6728,10.2168
2026-07-20T16:55:25.161,8.8174,0.7315,10.021
2026-07-20T16:55:25.172,8.8527,0.7315,10.1777
2026-07-20T16:55:25.183,8.8547,0.5945,10.3735
2026-07-20T16:55:25.190,8.8577,0.3987,9.9819
2026-07-20T16:55:25.199,8.8638,0.6728,9.9036
2026-07-20T16:55:25.220,8.8897,0.5357,10.1189
2026-07-20T16:55:25.220,8.8912,0.6532,10.2168
2026-07-20T16:55:25.229,8.8912,0.7903,10.1189
2026-07-20T16:55:25.245,8.9229,0.6728,10.2952
2026-07-20T16:55:25.253,8.9277,0.5945,10.1189
2026-07-20T16:55:25.262,8.9304,0.7119,9.9623
2026-07-20T16:55:25.273,8.9338,0.7315,10.0994
2026-07-20T16:55:25.284,8.9645,0.5749,10.1385
2026-07-20T16:55:25.284,8.9655,0.4182,9.7861
2026-07-20T16:55:25.303,8.9695,0.6336,9.9819
2026-07-20T16:55:25.309,8.998,0.477,10.1189
2026-07-20T16:55:25.319,8.998,0.3791,10.0015
2026-07-20T16:55:25.333,9.0052,0.6336,9.8448
2026-07-20T16:55:25.342,9.0102,0.6924,10.1973
2026-07-20T16:55:25.351,9.0412,0.5357,10.0602
2026-07-20T16:55:25.366,9.0458,0.7511,9.9623
2026-07-20T16:55:25.366,9.0489,0.7119,10.1385
2026-07-20T16:55:25.385,9.0549,0.5161,10.1385
2026-07-20T16:55:25.385,9.0569,0.614,9.7665
2026-07-20T16:55:25.409,9.0826,0.7511,9.884
2026-07-20T16:55:25.409,9.0826,0.3399,9.7273
2026-07-20T16:55:25.425,9.0889,0.3987,9.5903
2026-07-20T16:55:25.429,9.0914,0.5749,9.8252
2026-07-20T16:55:25.435,9.1178,0.477,10.1189
2026-07-20T16:55:25.435,9.1178,0.3203,9.9231
2026-07-20T16:55:25.455,9.1245,0.614,9.7861
2026-07-20T16:55:25.474,9.1565,0.5553,10.2168
2026-07-20T16:55:25.486,9.161,0.3399,10.0406
2026-07-20T16:55:25.490,9.166,0.6532,10.0406
2026-07-20T16:55:25.503,9.166,0.3987,10.2756
2026-07-20T16:55:25.514,9.1925,0.2616,10.256
2026-07-20T16:55:25.518,9.1925,0.3008,10.1385
2026-07-20T16:55:25.533,9.1976,0.5945,10.1189
2026-07-20T16:55:25.538,9.2026,0.3987,10.2756
2026-07-20T16:55:25.549,9.2282,0.2224,10.0015
2026-07-20T16:55:25.549,9.2367,0.4574,10.0015
2026-07-20T16:55:25.570,9.2401,0.5945,10.4126
2026-07-20T16:55:25.575,9.256,0.3791,10.2952
2026-07-20T16:55:25.581,9.2671,0.4966,9.9036
2026-07-20T16:55:25.601,9.2717,0.5553,10.256
2026-07-20T16:55:25.612,9.2717,0.3595,10.4714
2026-07-20T16:55:25.612,9.2717,0.5749,10.0798
2026-07-20T16:55:25.628,9.3049,0.7511,10.2364
2026-07-20T16:55:25.644,9.3089,0.3595,10.2756
2026-07-20T16:55:25.644,9.3089,0.2812,10.1777
2026-07-20T16:55:25.660,9.3453,0.7315,10.1385
2026-07-20T16:55:25.664,9.351,0.4378,10.3735
2026-07-20T16:55:25.677,9.3555,0.3791,10.256
2026-07-20T16:55:25.689,9.3669,0.5945,10.021
2026-07-20T16:55:25.694,9.3842,0.5749,10.3539
2026-07-20T16:55:25.707,9.3868,0.2812,10.3343
2026-07-20T16:55:25.724,9.393,0.4966,10.0015
2026-07-20T16:55:25.732,9.3949,0.3595,10.2364
2026-07-20T16:55:25.739,9.4193,0.2029,10.0994
2026-07-20T16:55:25.739,9.4193,0.614,10.021
2026-07-20T16:55:25.765,9.4193,0.5553,10.1581
2026-07-20T16:55:25.769,9.4263,0.3791,10.2952
2026-07-20T16:55:25.785,9.4516,0.1245,10.0015
2026-07-20T16:55:25.792,9.4516,0.5749,9.9231
2026-07-20T16:55:25.799,9.4516,0.3791,10.2168
2026-07-20T16:55:25.817,9.4758,0.2224,9.9819
2026-07-20T16:55:25.817,9.4758,0.5553,9.9036
2026-07-20T16:55:25.824,9.4758,0.5161,10.2168
2026-07-20T16:55:25.833,9.516,0.2812,10.2168
2026-07-20T16:55:25.848,9.5208,0.4182,9.7665
2026-07-20T16:55:25.864,9.524,0.4966,10.1189
2026-07-20T16:55:25.875,9.5479,0.3399,10.256
2026-07-20T16:55:25.880,9.5507,0.3791,9.9427
2026-07-20T16:55:25.893,9.5507,0.6336,10.021
2026-07-20T16:55:25.899,9.5565,0.3595,10.1973
2026-07-20T16:55:25.908,9.5813,0.2224,10.1385
2026-07-20T16:55:25.923,9.5813,0.4574,10.0602
2026-07-20T16:55:25.929,9.5883,0.3791,10.1973
2026-07-20T16:55:25.939,9.6131,0.1833,9.9623
2026-07-20T16:55:25.943,9.6131,0.3595,9.9819
2026-07-20T16:55:25.961,9.6183,0.614,10.2168
2026-07-20T16:55:25.970,9.6512,0.3203,10.2952
2026-07-20T16:55:25.975,9.6541,0.4378,10.0602
2026-07-20T16:55:25.991,9.6563,0.614,10.2364
2026-07-20T16:55:25.991,9.6808,0.2616,10.4126
2026-07-20T16:55:26.006,9.6808,0.5357,10.1385
2026-07-20T16:55:26.024,9.6941,0.7119,10.1973
2026-07-20T16:55:26.029,9.6985,0.6532,10.4322
2026-07-20T16:55:26.037,9.7288,0.5357,10.5106
2026-07-20T16:55:26.037,9.7358,0.6924,10.2756
2026-07-20T16:55:26.064,9.7405,0.7511,10.6085
2026-07-20T16:55:26.071,9.7429,0.5357,10.5693
2026-07-20T16:55:26.071,9.7595,0.614,10.256
2026-07-20T16:55:26.096,9.7595,0.8686,10.3147
2026-07-20T16:55:26.108,9.7747,0.6532,10.5889
2026-07-20T16:55:26.115,9.7776,0.6728,10.4714
2026-07-20T16:55:26.115,9.8057,0.9273,10.1973
2026-07-20T16:55:26.132,9.8057,0.7707,10.5693
2026-07-20T16:55:26.132,9.8135,0.6924,10.5301
2026-07-20T16:55:26.150,9.8187,0.9078,10.2364
2026-07-20T16:55:26.162,9.8478,0.8294,10.3147
2026-07-20T16:55:26.166,9.8529,0.614,10.5106
2026-07-20T16:55:26.178,9.8553,0.9273,10.1189
2026-07-20T16:55:26.191,9.8553,0.8882,10.3539
2026-07-20T16:55:26.202,9.8849,0.7707,10.491
2026-07-20T16:55:26.209,9.8892,0.5553,10.2952
2026-07-20T16:55:26.225,9.8917,0.7707,10.0994
2026-07-20T16:55:26.228,9.8991,0.7119,10.2952
2026-07-20T16:55:26.241,9.9221,0.3987,10.3539
2026-07-20T16:55:26.241,9.9221,0.614,10.0406
2026-07-20T16:55:26.262,9.9324,0.5945,10.1973
2026-07-20T16:55:26.271,9.9358,0.2812,10.1385
2026-07-20T16:55:26.273,9.9484,0.3595,9.9623
2026-07-20T16:55:26.289,9.9657,0.3791,9.5707
2026-07-20T16:55:26.305,9.9657,0.2224,9.7469
2026-07-20T16:55:26.310,9.9657,0.0266,9.5315
2026-07-20T16:55:26.321,10.004,-0.13,9.1986
2026-07-20T16:55:26.338,10.004,0.007,9.1007
2026-07-20T16:55:26.338,10.004,-0.3258,9.0616
2026-07-20T16:55:26.355,10.0394,-0.8153,8.6308
2026-07-20T16:55:26.370,10.0443,-0.972,8.1217
2026-07-20T16:55:26.376,10.0443,-1.1286,8.063
2026-07-20T16:55:26.376,10.0443,-1.7944,7.4364
2026-07-20T16:55:26.393,10.0803,-2.5189,6.4965
2026-07-20T16:55:26.400,10.0876,-2.793,5.6545
2026-07-20T16:55:26.417,10.0923,-3.5762,4.9692
2026-07-20T16:55:26.417,10.0941,-4.6728,3.5006
2026-07-20T16:55:26.430,10.0977,-5.3972,2.2279
2026-07-20T16:55:26.447,10.128,-6.1609,0.8181
2026-07-20T16:55:26.447,10.128,-7.0616,-0.4743
2026-07-20T16:55:26.463,10.1371,-7.3945,-1.6491
2026-07-20T16:55:26.470,10.1401,-7.512,-2.0799
2026-07-20T16:55:26.482,10.1699,-7.884,-2.3736
2026-07-20T16:55:26.486,10.1699,-8.1777,-3.1764
2026-07-20T16:55:26.500,10.1752,-7.8644,-3.6268
2026-07-20T16:55:26.516,10.1789,-8.119,-3.7638
2026-07-20T16:55:26.516,10.2054,-8.0798,-4.4491
2026-07-20T16:55:26.526,10.211,-7.7078,-4.7037
2026-07-20T16:55:26.542,10.211,-7.6099,-4.7429
2026-07-20T16:55:26.551,10.2191,-7.9623,-4.9387
2026-07-20T16:55:26.565,10.2444,-8.119,-5.3303
2026-07-20T16:55:26.574,10.2477,-7.8057,-5.4478
2026-07-20T16:55:26.583,10.2492,-7.884,-5.5261
2026-07-20T16:55:26.591,10.2492,-8.256,-5.4478
2026-07-20T16:55:26.605,10.2818,-8.1581,-5.6827
2026-07-20T16:55:26.605,10.2818,-7.7665,-5.5261
2026-07-20T16:55:26.622,10.2854,-8.0602,-5.389
2026-07-20T16:55:26.622,10.2854,-8.1777,-5.4282
2026-07-20T16:55:26.641,10.311,-7.7469,-5.4478
2026-07-20T16:55:26.641,10.311,-7.8644,-5.1541
2026-07-20T16:55:26.658,10.311,-7.8057,-5.2324
2026-07-20T16:55:26.669,10.3436,-7.649,-5.4478
2026-07-20T16:55:26.669,10.3456,-7.6686,-5.1736
2026-07-20T16:55:26.683,10.3488,-8.0015,-5.1736
2026-07-20T16:55:26.700,10.3624,-7.7861,-5.2911
2026-07-20T16:55:26.700,10.3624,-7.5903,-5.389
2026-07-20T16:55:26.719,10.3754,-7.7469,-5.1149
2026-07-20T16:55:26.735,10.3934,-8.0406,-5.1932
2026-07-20T16:55:26.735,10.3934,-7.7078,-5.252
2026-07-20T16:55:26.756,10.4251,-7.6686,-5.2715
2026-07-20T16:55:26.766,10.4269,-7.9427,-5.1541
2026-07-20T16:55:26.766,10.4269,-7.7665,-5.4282
2026-07-20T16:55:26.782,10.4412,-7.7665,-5.1345
2026-07-20T16:55:26.782,10.4412,-7.8448,-5.0757
2026-07-20T16:55:26.799,10.4412,-8.0994,-5.3107
2026-07-20T16:55:26.810,10.4729,-7.8057,-5.3303
2026-07-20T16:55:26.813,10.4729,-7.884,-5.0562
2026-07-20T16:55:26.833,10.4966,-8.0602,-5.0757
2026-07-20T16:55:26.837,10.4966,-7.9623,-5.2911
2026-07-20T16:55:26.845,10.4966,-7.8057,-5.2715
2026-07-20T16:55:26.865,10.5201,-7.9232,-5.1736
2026-07-20T16:55:26.869,10.5221,-8.0994,-5.2128
2026-07-20T16:55:26.881,10.5428,-7.7469,-5.2911
2026-07-20T16:55:26.881,10.5428,-7.8253,-5.1149
2026-07-20T16:55:26.903,10.5517,-8.1581,-5.1149
2026-07-20T16:55:26.908,10.5517,-7.9623,-5.3694
2026-07-20T16:55:26.915,10.5835,-7.8057,-5.1736
2026-07-20T16:55:26.924,10.5906,-7.9819,-5.2128
2026-07-20T16:55:26.940,10.5926,-7.9232,-5.3694
2026-07-20T16:55:26.948,10.5994,-7.7861,-5.0953
2026-07-20T16:55:26.965,10.6151,-7.9427,-5.1345
2026-07-20T16:55:26.972,10.6309,-8.0994,-5.2324
2026-07-20T16:55:26.972,10.6309,-7.7861,-5.3499
2026-07-20T16:55:26.987,10.6466,-7.9427,-4.9387
2026-07-20T16:55:27.003,10.6709,-8.0602,-5.1736
2026-07-20T16:55:27.003,10.6709,-7.8644,-5.3499
2026-07-20T16:55:27.019,10.6938,-7.9427,-5.2715
2026-07-20T16:55:27.035,10.6938,-8.0798,-5.2128
2026-07-20T16:55:27.035,10.6938,-7.7469,-5.2715
2026-07-20T16:55:27.054,10.7247,-7.7861,-5.2324
2026-07-20T16:55:27.066,10.7247,-7.9819,-5.0953
2026-07-20T16:55:27.066,10.7247,-8.0406,-5.2715
2026-07-20T16:55:27.081,10.757,-7.7469,-5.2911
2026-07-20T16:55:27.094,10.7606,-7.9036,-5.1541
2026-07-20T16:55:27.097,10.7606,-8.1581,-5.1736
2026-07-20T16:55:27.113,10.7863,-7.884,-5.3107
2026-07-20T16:55:27.128,10.7863,-7.884,-5.0366
2026-07-20T16:55:27.129,10.7886,-8.1777,-5.1541
2026-07-20T16:55:27.145,10.8037,-7.884,-5.3694
2026-07-20T16:55:27.145,10.8037,-7.8057,-5.0953
2026-07-20T16:55:27.161,10.8037,-8.1386,-4.9191
2026-07-20T16:55:27.169,10.8362,-8.0211,-5.2128
2026-07-20T16:55:27.176,10.8362,-7.8644,-5.2911
2026-07-20T16:55:27.176,10.8362,-8.0015,-4.9974
2026-07-20T16:55:27.208,10.8666,-7.9623,-5.252
2026-07-20T16:55:27.208,10.8686,-7.649,-5.3303
2026-07-20T16:55:27.223,10.8981,-7.9036,-5.1541
2026-07-20T16:55:27.239,10.8981,-8.0994,-5.1541
2026-07-20T16:55:27.241,10.8981,-7.8253,-5.2911
2026-07-20T16:55:27.255,10.9138,-7.8644,-5.2128
2026-07-20T16:55:27.265,10.9138,-8.0015,-5.0953
2026-07-20T16:55:27.270,10.9138,-7.9036,-5.2911
2026-07-20T16:55:27.270,10.9452,-7.8644,-5.2128
2026-07-20T16:55:27.286,10.9452,-8.1386,-5.1541
2026-07-20T16:55:27.302,10.9592,-8.1581,-5.2128
2026-07-20T16:55:27.309,10.9849,-7.8448,-5.3694
2026-07-20T16:55:27.318,10.9849,-7.8448,-5.0562
2026-07-20T16:55:27.318,10.9849,-8.1581,-5.0366
2026-07-20T16:55:27.350,11.0175,-7.9036,-5.4086
2026-07-20T16:55:27.350,11.0175,-7.8057,-5.1932
2026-07-20T16:55:27.357,11.0175,-8.1386,-5.1345
2026-07-20T16:55:27.371,11.0461,-8.119,-5.2715
2026-07-20T16:55:27.381,11.0461,-7.8057,-5.3107
2026-07-20T16:55:27.390,11.0461,-7.9623,-5.0366
2026-07-20T16:55:27.412,11.0761,-8.1581,-5.2128
2026-07-20T16:55:27.412,11.0771,-7.7665,-5.3107
2026-07-20T16:55:27.418,11.0782,-7.9819,-5.0562
2026-07-20T16:55:27.430,11.104,-7.9427,-5.2128
2026-07-20T16:55:27.445,11.104,-7.8448,-5.2911
2026-07-20T16:55:27.453,11.135,-7.8253,-5.1345
2026-07-20T16:55:27.460,11.137,-8.2365,-5.1541
2026-07-20T16:55:27.465,11.137,-7.9036,-5.3303
2026-07-20T16:55:27.482,11.137,-7.7861,-5.2911
2026-07-20T16:55:27.482,11.1664,-7.9623,-5.0366
2026-07-20T16:55:27.492,11.1664,-8.0211,-5.2715
2026-07-20T16:55:27.509,11.1664,-7.8057,-5.3107
2026-07-20T16:55:27.523,11.1977,-7.9036,-5.017
2026-07-20T16:55:27.523,11.1977,-7.8448,-5.1932
2026-07-20T16:55:27.539,11.1977,-7.7469,-5.252
2026-07-20T16:55:27.566,11.2135,-7.8644,-4.9778
2026-07-20T16:55:27.566,11.2135,-8.0406,-5.0366
2026-07-20T16:55:27.570,11.2291,-8.0015,-5.2324
2026-07-20T16:55:27.570,11.2451,-7.7274,-5.0562
2026-07-20T16:55:27.586,11.2451,-7.9036,-5.1345
2026-07-20T16:55:27.586,11.2451,-8.1581,-5.2324
2026-07-20T16:55:27.617,11.2885,-7.7861,-5.3499
2026-07-20T16:55:27.617,11.2885,-7.8644,-4.9974
2026-07-20T16:55:27.617,11.2885,-8.0211,-5.252
2026-07-20T16:55:27.641,11.3195,-7.9819,-5.252
2026-07-20T16:55:27.649,11.3195,-7.7469,-5.1149
2026-07-20T16:55:27.661,11.3195,-7.9623,-5.0562
2026-07-20T16:55:27.673,11.3399,-8.0211,-5.3107
2026-07-20T16:55:27.680,11.3399,-7.8448,-5.1932
2026-07-20T16:55:27.680,11.3399,-7.884,-4.9778
2026-07-20T16:55:27.705,11.3809,-8.119,-5.1932
2026-07-20T16:55:27.712,11.3809,-7.9036,-5.1149
2026-07-20T16:55:27.712,11.3809,-7.9623,-4.9778
2026-07-20T16:55:27.735,11.4078,-8.1581,-5.1345
2026-07-20T16:55:27.744,11.4078,-7.9819,-5.2715
2026-07-20T16:55:27.744,11.4078,-7.6295,-5.2128
2026-07-20T16:55:27.760,11.4342,-7.9036,-5.0953
2026-07-20T16:55:27.780,11.4449,-8.1777,-5.1932
2026-07-20T16:55:27.780,11.4449,-7.8253,-5.252
2026-07-20T16:55:27.791,11.4669,-8.0015,-4.9778
2026-07-20T16:55:27.807,11.4669,-8.0798,-5.2715
2026-07-20T16:55:27.807,11.4669,-7.7274,-5.2715
2026-07-20T16:55:27.820,11.4815,-7.8253,-4.9974
2026-07-20T16:55:27.839,11.5047,-8.0211,-5.1736
2026-07-20T16:55:27.839,11.5047,-7.884,-5.2911
2026-07-20T16:55:27.854,11.5047,-7.8644,-5.1345
2026-07-20T16:55:27.863,11.5288,-8.0406,-5.0757
2026-07-20T16:55:27.877,11.5288,-8.0602,-5.252
2026-07-20T16:55:27.877,11.5288,-7.7274,-5.2128
2026-07-20T16:55:27.892,11.5611,-7.8253,-5.0366
2026-07-20T16:55:27.901,11.5611,-8.2365,-5.1345
2026-07-20T16:55:27.901,11.5611,-7.8448,-5.3107
2026-07-20T16:55:27.933,11.5982,-7.8057,-5.0953
2026-07-20T16:55:27.933,11.5982,-8.1973,-5.252
2026-07-20T16:55:27.933,11.5982,-7.9623,-5.2128
2026-07-20T16:55:27.952,11.6228,-7.8253,-5.1736
2026-07-20T16:55:27.966,11.6228,-7.884,-5.1149
2026-07-20T16:55:27.970,11.6228,-7.884,-5.2715
2026-07-20T16:55:27.995,11.6545,-7.7469,-5.1932
2026-07-20T16:55:27.995,11.6545,-7.9232,-4.9582
2026-07-20T16:55:27.995,11.6545,-8.0602,-5.1345
2026-07-20T16:55:28.013,11.691,-7.7861,-5.4086
2026-07-20T16:55:28.027,11.693,-7.884,-5.1541
2026-07-20T16:55:28.027,11.694,-8.2169,-5.0562
2026-07-20T16:55:28.043,11.7229,-8.0211,-5.1736
2026-07-20T16:55:28.060,11.7229,-7.8253,-4.9387
2026-07-20T16:55:28.063,11.7229,-8.1386,-5.2715
2026-07-20T16:55:28.066,11.7486,-8.1777,-5.2324
2026-07-20T16:55:28.090,11.7561,-7.8253,-5.2911
2026-07-20T16:55:28.090,11.7561,-7.8253,-5.0757
2026-07-20T16:55:28.095,11.7561,-8.1581,-5.1345
2026-07-20T16:55:28.121,11.7941,-7.8644,-5.252
2026-07-20T16:55:28.121,11.7941,-7.8448,-4.9974
2026-07-20T16:55:28.128,11.7958,-8.0211,-5.0366
2026-07-20T16:55:28.154,11.8115,-7.9623,-5.2324
2026-07-20T16:55:28.154,11.8115,-7.7665,-5.2911
2026-07-20T16:55:28.154,11.8115,-7.884,-4.9387
2026-07-20T16:55:28.178,11.85,-8.119,-5.2911
2026-07-20T16:55:28.184,11.85,-7.884,-5.2911
2026-07-20T16:55:28.184,11.85,-7.8644,-4.9778
2026-07-20T16:55:28.215,11.878,-8.119,-5.0953
2026-07-20T16:55:28.215,11.878,-7.8448,-5.2911
2026-07-20T16:55:28.222,11.878,-7.8057,-5.1736
2026-07-20T16:55:28.232,11.894,-8.0602,-5.1736
2026-07-20T16:55:28.247,11.906,-8.0994,-5.2128
2026-07-20T16:55:28.250,11.906,-7.7469,-5.3107
2026-07-20T16:55:28.266,11.9216,-7.9036,-5.0562
2026-07-20T16:55:28.266,11.9216,-8.0406,-5.0953
2026-07-20T16:55:28.278,11.9216,-7.7665,-5.252
2026-07-20T16:55:28.294,11.9533,-7.7274,-5.0757
2026-07-20T16:55:28.294,11.9533,-8.119,-5.1736
2026-07-20T16:55:28.314,11.986,-7.7861,-5.2715
2026-07-20T16:55:28.326,11.986,-7.7469,-5.1736
2026-07-20T16:55:28.326,11.986,-8.0211,-5.0953
2026-07-20T16:55:28.342,12.0007,-8.1777,-5.1932
2026-07-20T16:55:28.342,12.0164,-7.8448,-5.3303
2026-07-20T16:55:28.358,12.0164,-7.8448,-5.0953
2026-07-20T16:55:28.373,12.0321,-8.0602,-5.0953
2026-07-20T16:55:28.373,12.0321,-7.9427,-5.1541
2026-07-20T16:55:28.389,12.0457,-7.7665,-5.2324
2026-07-20T16:55:28.404,12.0634,-7.884,-5.0366
2026-07-20T16:55:28.404,12.0634,-8.0406,-5.2324
2026-07-20T16:55:28.420,12.0953,-7.7469,-5.2911
2026-07-20T16:55:28.436,12.0953,-7.9232,-5.0757
2026-07-20T16:55:28.436,12.0953,-8.1777,-5.1541
2026-07-20T16:55:28.451,12.1103,-7.9623,-5.252
2026-07-20T16:55:28.467,12.1103,-7.8057,-5.0953
2026-07-20T16:55:28.468,12.1103,-8.2169,-5.0562
2026-07-20T16:55:28.483,12.1417,-7.8253,-5.3303
2026-07-20T16:55:28.483,12.1417,-7.8644,-5.0757
2026-07-20T16:55:28.507,12.1729,-8.0015,-5.0757
2026-07-20T16:55:28.514,12.1729,-8.1777,-5.1345
2026-07-20T16:55:28.514,12.1729,-7.8253,-5.3499
2026-07-20T16:55:28.530,12.1944,-7.8057,-5.1149
2026-07-20T16:55:28.545,12.2047,-8.0994,-5.0562
2026-07-20T16:55:28.545,12.2047,-8.0015,-5.3499
2026-07-20T16:55:28.567,12.2307,-7.8448,-5.1736
2026-07-20T16:55:28.567,12.2307,-8.0994,-5.1932
2026-07-20T16:55:28.586,12.252,-8.0015,-5.252
2026-07-20T16:55:28.593,12.252,-7.7078,-5.1736
2026-07-20T16:55:28.603,12.252,-7.6882,-5.017
2026-07-20T16:55:28.615,12.268,-7.8253,-4.8799
2026-07-20T16:55:28.624,12.2837,-7.5903,-5.0757
2026-07-20T16:55:28.632,12.2865,-7.3162,-4.41
2026-07-20T16:55:28.640,12.2998,-7.4336,-4.3512
2026-07-20T16:55:28.640,12.2998,-7.3357,-4.4491
2026-07-20T16:55:28.659,12.3311,-6.9637,-4.1554
2026-07-20T16:55:28.672,12.3409,-6.7875,-3.6268
2026-07-20T16:55:28.672,12.3434,-7.0225,-3.6463
2026-07-20T16:55:28.698,12.3626,-6.6896,-3.5484
2026-07-20T16:55:28.703,12.3737,-6.2392,-3.0002
2026-07-20T16:55:28.703,12.3737,-6.4546,-2.4127
2026-07-20T16:55:28.722,12.3784,-6.298,-2.2757
2026-07-20T16:55:28.728,12.4033,-6.0043,-2.0603
2026-07-20T16:55:28.735,12.4073,-5.9651,-1.2771
2026-07-20T16:55:28.751,12.4102,-5.9847,-1.3358
2026-07-20T16:55:28.767,12.437,-5.6714,-0.9246
2026-07-20T16:55:28.771,12.439,-5.456,-0.2197
2026-07-20T16:55:28.783,12.4421,-5.5147,-0.0239
2026-07-20T16:55:28.796,12.4581,-5.3581,0.1915
2026-07-20T16:55:28.800,12.4739,-4.9861,0.4656
2026-07-20T16:55:28.814,12.4794,-5.221,1.1314
2026-07-20T16:55:28.814,12.4794,-5.1819,1.0335
2026-07-20T16:55:28.830,12.5072,-4.8686,1.3859
2026-07-20T16:55:28.830,12.5072,-4.849,1.8363
2026-07-20T16:55:28.852,12.5144,-5.1231,2.0125
2026-07-20T16:55:28.862,12.5367,-5.0644,1.8754
2026-07-20T16:55:28.867,12.5367,-4.6336,2.0321
2026-07-20T16:55:28.887,12.5464,-4.7511,2.4433
2026-07-20T16:55:28.887,12.5522,-4.849,2.3258
2026-07-20T16:55:28.909,12.5754,-4.5944,2.2279
2026-07-20T16:55:28.909,12.5754,-4.4182,2.7957
2026-07-20T16:55:28.924,12.5841,-4.6532,2.8545
2026-07-20T16:55:28.935,12.6094,-4.5161,2.8153
2026-07-20T16:55:28.941,12.6158,-4.2224,2.9328
2026-07-20T16:55:28.956,12.6181,-4.3595,3.3244
2026-07-20T16:55:28.960,12.6315,-4.4965,3.3832
2026-07-20T16:55:28.972,12.6475,-4.3399,3.5398
2026-07-20T16:55:28.972,12.6475,-4.1441,4.1468
2026-07-20T16:55:28.994,12.6475,-4.3203,4.3035
2026-07-20T16:55:29.004,12.6787,-4.2811,4.1468
2026-07-20T16:55:29.004,12.6787,-4.1245,4.5384
2026-07-20T16:55:29.020,12.6787,-4.242,4.9496
2026-07-20T16:55:29.035,12.7096,-4.4182,4.9496
2026-07-20T16:55:29.035,12.7153,-4.0658,5.0671
2026-07-20T16:55:29.051,12.7153,-3.9874,5.5762
2026-07-20T16:55:29.051,12.7153,-3.9679,5.9091
2026-07-20T16:55:29.071,12.7455,-3.8504,6.0853
2026-07-20T16:55:29.082,12.7526,-3.7329,6.8098
2026-07-20T16:55:29.096,12.7583,-3.7525,7.0056
2026-07-20T16:55:29.104,12.7733,-3.6937,7.0448
2026-07-20T16:55:29.113,12.7733,-3.5958,7.1035
2026-07-20T16:55:29.125,12.7893,-3.5175,7.3972
2026-07-20T16:55:29.133,12.7969,-3.6154,7.4168
2026-07-20T16:55:29.140,12.8239,-3.3217,7.456
2026-07-20T16:55:29.146,12.8343,-3.165,7.9455
2026-07-20T16:55:29.146,12.8365,-3.2042,8.3175
2026-07-20T16:55:29.173,12.842,-3.1455,8.3175
2026-07-20T16:55:29.183,12.8636,-2.7147,8.7091
2026-07-20T16:55:29.193,12.8668,-2.7734,9.2574
2026-07-20T16:55:29.207,12.8725,-2.8713,9.3161
2026-07-20T16:55:29.214,12.8768,-2.4014,9.5511
2026-07-20T16:55:29.224,12.9019,-2.2447,9.9231
2026-07-20T16:55:29.224,12.9057,-2.421,9.7077
2026-07-20T16:55:29.245,12.9097,-2.2056,9.4336
2026-07-20T16:55:29.249,12.9149,-1.9119,9.8644
2026-07-20T16:55:29.267,12.9402,-1.9902,9.9819
2026-07-20T16:55:29.267,12.9402,-2.1077,9.8448
2026-07-20T16:55:29.282,12.9464,-1.7161,9.7273
2026-07-20T16:55:29.292,12.9534,-1.6182,9.9819
2026-07-20T16:55:29.303,12.9806,-1.8923,9.7469
2026-07-20T16:55:29.312,12.9806,-2.0489,9.3749
2026-07-20T16:55:29.319,12.9866,-1.8531,9.7469
2026-07-20T16:55:29.339,13.0096,-2.1273,9.7273
2026-07-20T16:55:29.339,13.0196,-1.9315,9.5903
2026-07-20T16:55:29.353,13.0226,-1.7356,9.6294
2026-07-20T16:55:29.365,13.0296,-1.7748,9.9036
2026-07-20T16:55:29.373,13.055,-2.1664,9.649
2026-07-20T16:55:29.382,13.057,-1.7748,9.4336
2026-07-20T16:55:29.395,13.0667,-1.6769,9.6098
2026-07-20T16:55:29.404,13.0718,-1.9315,9.649
2026-07-20T16:55:29.421,13.1011,-2.0098,9.2574
2026-07-20T16:55:29.421,13.1011,-1.4615,9.4924
2026-07-20T16:55:29.439,13.1062,-1.7356,9.6294
2026-07-20T16:55:29.445,13.1084,-1.8923,9.414
2026-07-20T16:55:29.461,13.1374,-1.5594,9.3553
2026-07-20T16:55:29.461,13.14,-1.5594,9.6882
2026-07-20T16:55:29.473,13.14,-1.7552,9.649
2026-07-20T16:55:29.481,13.1485,-1.6182,9.277
2026-07-20T16:55:29.493,13.1716,-1.4224,9.3357
2026-07-20T16:55:29.493,13.1716,-1.7748,9.2574
2026-07-20T16:55:29.512,13.1797,-1.579,8.9049
2026-07-20T16:55:29.521,13.1825,-1.3832,8.9637
2026-07-20T16:55:29.539,13.2098,-1.6573,9.1007
2026-07-20T16:55:29.544,13.2138,-1.951,8.9833
2026-07-20T16:55:29.558,13.2217,-1.6573,8.7287
2026-07-20T16:55:29.568,13.2494,-1.5986,8.9441
2026-07-20T16:55:29.570,13.2494,-1.9119,8.9637
2026-07-20T16:55:29.582,13.2536,-1.6769,8.7483
2026-07-20T16:55:29.594,13.2536,-1.6573,8.8658
2026-07-20T16:55:29.604,13.2825,-1.7552,8.6895
2026-07-20T16:55:29.604,13.2873,-2.0881,8.5525
2026-07-20T16:55:29.626,13.2894,-1.7356,8.2783
2026-07-20T16:55:29.626,13.2923,-1.6769,8.67
2026-07-20T16:55:29.640,13.3239,-1.8727,8.6504
2026-07-20T16:55:29.655,13.3239,-1.9902,8.435
2026-07-20T16:55:29.668,13.3357,-1.5986,8.4154
2026-07-20T16:55:29.680,13.3569,-1.7552,8.7287
2026-07-20T16:55:29.680,13.3569,-2.0294,8.3567
2026-07-20T16:55:29.696,13.3686,-1.7748,8.1021
2026-07-20T16:55:29.704,13.3711,-1.7748,8.3958
2026-07-20T16:55:29.717,13.398,-2.0685,8.2392
2026-07-20T16:55:29.728,13.4013,-1.9706,7.9846
2026-07-20T16:55:29.729,13.4045,-1.6965,8.2
2026-07-20T16:55:29.743,13.4045,-1.8335,8.4154
2026-07-20T16:55:29.759,13.4346,-2.1077,8.2392
2026-07-20T16:55:29.759,13.4365,-1.6769,8.2196
2026-07-20T16:55:29.777,13.4389,-1.7552,8.2196
2026-07-20T16:55:29.784,13.4411,-1.9902,8.1413
2026-07-20T16:55:29.791,13.4662,-2.0098,7.9259
2026-07-20T16:55:29.791,13.4662,-1.6377,7.9651
2026-07-20T16:55:29.813,13.4662,-1.9315,8.2979
2026-07-20T16:55:29.824,13.5002,-2.0098,8.1609
2026-07-20T16:55:29.827,13.5036,-1.5986,8.1609
2026-07-20T16:55:29.838,13.5081,-1.7552,8.4546
2026-07-20T16:55:29.858,13.5398,-1.8727,8.2392
2026-07-20T16:55:29.868,13.5398,-1.6377,8.063
2026-07-20T16:55:29.876,13.5445,-1.5594,8.3175
2026-07-20T16:55:29.886,13.5455,-1.7161,8.3371
2026-07-20T16:55:29.894,13.5774,-1.8727,8.0238
2026-07-20T16:55:29.902,13.5774,-1.4615,8.1413
2026-07-20T16:55:29.912,13.5854,-1.5203,8.435
2026-07-20T16:55:29.918,13.5876,-1.7552,8.3371
2026-07-20T16:55:29.934,13.6143,-1.6377,8.1217
2026-07-20T16:55:29.936,13.6143,-1.4615,8.2783
2026-07-20T16:55:29.950,13.6215,-1.6573,8.3958
2026-07-20T16:55:29.960,13.6269,-1.6377,8.1804
2026-07-20T16:55:29.970,13.6403,-1.4028,8.0238
2026-07-20T16:55:29.981,13.6534,-1.5007,8.3958
2026-07-20T16:55:29.987,13.6559,-1.579,8.2
2026-07-20T16:55:30.008,13.6871,-1.5203,8.0434
2026-07-20T16:55:30.013,13.6922,-1.5007,8.2196
2026-07-20T16:55:30.013,13.6922,-1.6965,8.2979
2026-07-20T16:55:30.028,13.6965,-1.7944,8.0238
2026-07-20T16:55:30.044,13.723,-1.2461,7.9063
2026-07-20T16:55:30.044,13.7277,-1.5203,8.1217
2026-07-20T16:55:30.064,13.7343,-1.8923,7.9455
2026-07-20T16:55:30.069,13.7343,-1.6573,7.6713
2026-07-20T16:55:30.084,13.7619,-1.3832,7.828
2026-07-20T16:55:30.095,13.7658,-1.6965,7.9651
2026-07-20T16:55:30.107,13.7716,-1.7161,7.7105
2026-07-20T16:55:30.107,13.7716,-1.4811,7.8476
2026-07-20T16:55:30.122,13.7981,-1.3832,7.9846
2026-07-20T16:55:30.122,13.7981,-1.6769,8.0042
2026-07-20T16:55:30.144,13.7981,-1.7356,7.8867
2026-07-20T16:55:30.154,13.8313,-1.5007,7.6909
2026-07-20T16:55:30.154,13.8341,-1.5007,8.0238
2026-07-20T16:55:30.170,13.8376,-1.7552,7.9846
2026-07-20T16:55:30.185,13.8621,-1.7161,7.7888
2026-07-20T16:55:30.198,13.8667,-1.579,7.5343
2026-07-20T16:55:30.206,13.8714,-1.6573,7.8672
2026-07-20T16:55:30.212,13.8734,-1.8727,7.8476
2026-07-20T16:55:30.221,13.9,-1.6965,7.4951
2026-07-20T16:55:30.239,13.9076,-1.6182,7.7888
2026-07-20T16:55:30.246,13.9096,-1.814,7.9259
2026-07-20T16:55:30.259,13.9325,-1.8727,7.6322
2026-07-20T16:55:30.265,13.9353,-1.4811,7.8672
2026-07-20T16:55:30.272,13.9391,-1.6769,7.9846
2026-07-20T16:55:30.282,13.9446,-1.7356,7.9455
2026-07-20T16:55:30.291,13.9705,-1.3832,7.9259
2026-07-20T16:55:30.296,13.9705,-1.344,8.2783
2026-07-20T16:55:30.311,13.9797,-1.6377,8.3958
2026-07-20T16:55:30.317,14.0068,-1.4615,8.2196
2026-07-20T16:55:30.329,14.01,-1.1482,8.3567
2026-07-20T16:55:30.343,14.0149,-1.4028,8.6112
2026-07-20T16:55:30.352,14.0197,-1.4028,8.3175
2026-07-20T16:55:30.366,14.0334,-0.9524,8.3763
2026-07-20T16:55:30.374,14.0512,-1.0112,8.67
2026-07-20T16:55:30.387,14.0512,-1.207,8.6112
2026-07-20T16:55:30.392,14.0512,-1.3049,8.3958
2026-07-20T16:55:30.403,14.0806,-0.8741,8.5916
2026-07-20T16:55:30.406,14.0806,-1.0112,8.7874
2026-07-20T16:55:30.423,14.0875,-1.1286,8.807
2026-07-20T16:55:30.437,14.1119,-0.7762,8.7091
2026-07-20T16:55:30.437,14.1119,-0.6195,9.0028
2026-07-20T16:55:30.453,14.1119,-0.8741,9.0028
2026-07-20T16:55:30.463,14.1271,-0.972,8.8658
2026-07-20T16:55:30.470,14.1537,-0.5804,8.8462
2026-07-20T16:55:30.470,14.1586,-0.7566,9.1595
2026-07-20T16:55:30.499,14.1634,-0.8741,8.9637
2026-07-20T16:55:30.499,14.1676,-0.6,8.8266
2026-07-20T16:55:30.518,14.1907,-0.4237,9.1595
2026-07-20T16:55:30.526,14.1907,-0.8349,8.9833
2026-07-20T16:55:30.540,14.1973,-0.4042,9.0224
2026-07-20T16:55:30.547,14.2239,-0.3846,9.2965
2026-07-20T16:55:30.547,14.2272,-0.5804,9.3161
2026-07-20T16:55:30.563,14.2272,-0.5608,9.1595
2026-07-20T16:55:30.573,14.2378,-0.13,9.2965
2026-07-20T16:55:30.583,14.2535,-0.4825,9.4532
2026-07-20T16:55:30.600,14.2694,-0.5216,9.1399
2026-07-20T16:55:30.600,14.2716,-0.2279,9.0224
2026-07-20T16:55:30.618,14.2972,-0.5216,9.1791
2026-07-20T16:55:30.626,14.3009,-0.6587,8.67
2026-07-20T16:55:30.644,14.3032,-0.6587,8.4937
2026-07-20T16:55:30.644,14.3032,-0.6,8.5721
2026-07-20T16:55:30.655,14.3327,-0.737,8.4937
2026-07-20T16:55:30.657,14.3327,-0.8545,8.2979
2026-07-20T16:55:30.675,14.3417,-0.5216,8.5329
2026-07-20T16:55:30.687,14.3678,-0.7566,8.6895
2026-07-20T16:55:30.691,14.3678,-0.8545,8.3371
2026-07-20T16:55:30.705,14.3783,-0.6783,8.3567
2026-07-20T16:55:30.714,14.38,-0.6587,8.6504
2026-07-20T16:55:30.725,14.4079,-0.9916,8.4546
2026-07-20T16:55:30.736,14.4079,-0.6783,8.2783
2026-07-20T16:55:30.740,14.4112,-0.6195,8.6504
2026-07-20T16:55:30.756,14.4171,-0.8937,8.4937
2026-07-20T16:55:30.770,14.4425,-0.8545,8.4154
2026-07-20T16:55:30.770,14.4425,-0.5412,8.5721
2026-07-20T16:55:30.789,14.4537,-0.9133,8.5916
2026-07-20T16:55:30.789,14.4537,-0.8545,8.4937
2026-07-20T16:55:30.800,14.4748,-0.5608,8.7483
2026-07-20T16:55:30.815,14.4748,-0.4237,8.8854
2026-07-20T16:55:30.826,14.4851,-0.7566,8.9245
2026-07-20T16:55:30.836,14.5126,-0.6979,8.7483
2026-07-20T16:55:30.836,14.5176,-0.2083,9.0812
2026-07-20T16:55:30.847,14.5176,-0.3846,9.1791
2026-07-20T16:55:30.862,14.5444,-0.3454,9.0812
2026-07-20T16:55:30.878,14.5444,-0.2083,9.2182
2026-07-20T16:55:30.885,14.556,-0.4237,9.4728
2026-07-20T16:55:30.890,14.5583,-0.5216,9.3553
2026-07-20T16:55:30.905,14.5822,-0.4237,9.277
2026-07-20T16:55:30.910,14.5851,-0.13,9.4728
2026-07-20T16:55:30.917,14.5873,-0.3454,9.9231
2026-07-20T16:55:30.933,14.6137,-0.3846,9.649
2026-07-20T16:55:30.942,14.6176,-0.0125,9.8252
2026-07-20T16:55:30.955,14.6176,0.0462,10.256
2026-07-20T16:55:30.964,14.6176,-0.0321,10.256
2026-07-20T16:55:30.975,14.6503,0.0462,10.3539
2026-07-20T16:55:30.975,14.6503,0.3987,10.4518
2026-07-20T16:55:30.990,14.6503,0.3399,10.6672
2026-07-20T16:55:31.005,14.6793,0.1637,10.5497
2026-07-20T16:55:31.007,14.6906,0.3595,10.4322
2026-07-20T16:55:31.023,14.6945,0.5749,10.7651
2026-07-20T16:55:31.023,14.698,0.2029,10.9217
2026-07-20T16:55:31.042,14.7309,0.4378,10.6476
2026-07-20T16:55:31.052,14.7309,0.5161,10.863
2026-07-20T16:55:31.067,14.739,0.3399,11.0197
2026-07-20T16:55:31.070,14.7421,0.1637,10.9413
2026-07-20T16:55:31.082,14.7739,0.4182,10.5693
2026-07-20T16:55:31.095,14.7739,0.3203,10.8238
2026-07-20T16:55:31.111,14.7809,0.1833,10.7259
2026-07-20T16:55:31.114,14.7809,0.4574,10.4322
2026-07-20T16:55:31.124,14.814,0.4182,10.7455
2026-07-20T16:55:31.129,14.8163,0.1245,10.5301
2026-07-20T16:55:31.146,14.8193,0.2224,10.2756
2026-07-20T16:55:31.153,14.8193,0.4574,10.2168
2026-07-20T16:55:31.171,14.8613,0.0854,10.2364
2026-07-20T16:55:31.176,14.8613,-0.1692,9.9427
2026-07-20T16:55:31.189,14.8666,0.0854,9.8252
2026-07-20T16:55:31.192,14.8666,0.0854,9.9231
2026-07-20T16:55:31.203,14.885,-0.2867,9.7861
2026-07-20T16:55:31.224,14.9042,-0.2083,9.5315
2026-07-20T16:55:31.234,14.9042,0.0658,9.649
2026-07-20T16:55:31.239,14.9101,-0.2083,9.7469
2026-07-20T16:55:31.247,14.9125,-0.4237,9.5119
2026-07-20T16:55:31.257,14.9373,-0.0713,9.3749
2026-07-20T16:55:31.257,14.9373,-0.0713,9.8448
2026-07-20T16:55:31.277,14.9429,-0.2279,9.5315
2026-07-20T16:55:31.282,14.9456,-0.3846,9.3161
2026-07-20T16:55:31.293,14.9762,-0.0517,9.414
2026-07-20T16:55:31.302,14.9772,-0.5021,9.414
2026-07-20T16:55:31.315,14.9772,-0.4825,9.4924
2026-07-20T16:55:31.320,15.009,-0.1496,9.277
2026-07-20T16:55:31.334,15.0184,-0.1104,9.6294
2026-07-20T16:55:31.334,15.0231,-0.4825,9.5511
2026-07-20T16:55:31.359,15.026,-0.3062,9.2182
2026-07-20T16:55:31.369,15.0405,-0.2279,9.4924
2026-07-20T16:55:31.371,15.0563,-0.3846,9.6098
2026-07-20T16:55:31.381,15.0636,-0.4042,9.1986
2026-07-20T16:55:31.395,15.0636,-0.1496,9.3749
2026-07-20T16:55:31.398,15.0876,-0.2671,9.5707
2026-07-20T16:55:31.413,15.1007,-0.5021,9.3553
2026-07-20T16:55:31.413,15.1033,-0.365,9.1595
2026-07-20T16:55:31.436,15.1033,-0.2867,9.4336
2026-07-20T16:55:31.444,15.1033,-0.4629,9.3945
2026-07-20T16:55:31.453,15.137,-0.6,9.1791
2026-07-20T16:55:31.460,15.1413,-0.2475,9.1399
2026-07-20T16:55:31.476,15.1457,-0.3258,9.3945
2026-07-20T16:55:31.484,15.1512,-0.737,9.1791
2026-07-20T16:55:31.492,15.1678,-0.5021,8.9637
2026-07-20T16:55:31.492,15.1804,-0.3258,9.3749
2026-07-20T16:55:31.522,15.1828,-0.4433,9.3553
2026-07-20T16:55:31.523,15.1908,-0.6,9.1986
2026-07-20T16:55:31.531,15.2169,-0.2083,9.1986
2026-07-20T16:55:31.540,15.2222,-0.1496,9.7273
2026-07-20T16:55:31.555,15.2222,-0.4433,9.3945
2026-07-20T16:55:31.563,15.227,-0.0321,9.414
2026-07-20T16:55:31.572,15.2555,-0.0517,9.4728
2026-07-20T16:55:31.589,15.2555,-0.2671,9.6098
2026-07-20T16:55:31.594,15.2555,-0.365,9.3945
2026-07-20T16:55:31.609,15.2889,-0.0517,9.2574
2026-07-20T16:55:31.622,15.2936,-0.0713,9.5119
2026-07-20T16:55:31.622,15.2936,-0.365,9.5315
2026-07-20T16:55:31.634,15.2991,-0.1104,9.1007
2026-07-20T16:55:31.645,15.3303,-0.0517,9.4336
2026-07-20T16:55:31.650,15.3303,-0.365,9.5315
2026-07-20T16:55:31.666,15.3412,-0.5608,9.4336
2026-07-20T16:55:31.676,15.3463,-0.2083,9.3553
2026-07-20T16:55:31.686,15.372,-0.1104,9.649
2026-07-20T16:55:31.698,15.3753,-0.1692,9.649
2026-07-20T16:55:31.703,15.3784,-0.2475,9.3553
2026-07-20T16:55:31.713,15.3804,0.0266,9.649
2026-07-20T16:55:31.729,15.4065,-0.1104,9.7077
2026-07-20T16:55:31.729,15.4108,-0.2671,9.414
2026-07-20T16:55:31.744,15.4108,-0.0321,9.1791
2026-07-20T16:55:31.753,15.4197,-0.13,9.5119
2026-07-20T16:55:31.774,15.4359,-0.3846,9.3357
2026-07-20T16:55:31.774,15.4359,-0.2279,9.1595
2026-07-20T16:55:31.783,15.4543,-0.1496,9.3749
2026-07-20T16:55:31.794,15.4675,-0.3846,9.5315
2026-07-20T16:55:31.802,15.4834,-0.3062,9.3161
2026-07-20T16:55:31.808,15.4834,-0.13,9.4336
2026-07-20T16:55:31.827,15.4834,-0.2475,9.5903
2026-07-20T16:55:31.835,15.5193,-0.5412,9.4532
2026-07-20T16:55:31.840,15.5193,-0.1496,9.2378
2026-07-20T16:55:31.856,15.5308,-0.0713,9.6098
2026-07-20T16:55:31.856,15.5308,-0.2867,9.5119
2026-07-20T16:55:31.874,15.5627,-0.4237,9.3945
2026-07-20T16:55:31.887,15.5627,-0.1692,9.2965
2026-07-20T16:55:31.892,15.5627,-0.5412,9.4532
2026-07-20T16:55:31.903,15.5627,-0.4629,9.1595
2026-07-20T16:55:31.903,15.6024,-0.3258,9.1791
2026-07-20T16:55:31.925,15.6054,-0.4042,9.414
2026-07-20T16:55:31.935,15.6103,-0.6979,9.042
2026-07-20T16:55:31.935,15.6129,-0.5216,9.0028
2026-07-20T16:55:31.951,15.6468,-0.365,9.1986
2026-07-20T16:55:31.972,15.6468,-0.5608,9.3553
2026-07-20T16:55:31.983,15.6468,-0.8545,9.1203
2026-07-20T16:55:31.983,15.6468,-0.5804,9.0224
2026-07-20T16:55:31.999,15.6913,-0.4042,9.1595
2026-07-20T16:55:31.999,15.6913,-0.7174,9.2965
2026-07-20T16:55:32.017,15.6913,-0.7762,8.9441
2026-07-20T16:55:32.019,15.7016,-0.2867,8.9833
2026-07-20T16:55:32.034,15.7425,-0.3846,9.2378
2026-07-20T16:55:32.046,15.7451,-0.6979,9.1595
2026-07-20T16:55:32.046,15.7486,-0.5216,8.9245
2026-07-20T16:55:32.064,15.7518,-0.2671,9.3161
2026-07-20T16:55:32.077,15.757,-0.6783,9.1986
2026-07-20T16:55:32.085,15.7839,-0.6979,8.9441
2026-07-20T16:55:32.103,15.7839,-0.2867,9.1203
2026-07-20T16:55:32.108,15.7839,-0.3062,9.4336
2026-07-20T16:55:32.117,15.7839,-0.6783,9.3553
2026-07-20T16:55:32.124,15.8,-0.2867,9.2182
2026-07-20T16:55:32.142,15.8317,-0.3846,9.4728
2026-07-20T16:55:32.142,15.8336,-0.6,9.277
2026-07-20T16:55:32.156,15.8363,-0.3062,9.1203
2026-07-20T16:55:32.156,15.8363,-0.3454,9.4728
2026-07-20T16:55:32.172,15.8363,-0.5216,9.4336
2026-07-20T16:55:32.184,15.8832,-0.8153,9.1007
2026-07-20T16:55:32.188,15.8863,-0.3454,9.042
2026-07-20T16:55:32.203,15.8883,-0.5021,9.3553
2026-07-20T16:55:32.209,15.8999,-0.737,9.2182
2026-07-20T16:55:32.227,15.9258,-0.6391,8.9833
2026-07-20T16:55:32.244,15.9258,-0.3062,9.3749
2026-07-20T16:55:32.244,15.9258,-0.6391,9.3553
2026-07-20T16:55:32.261,15.9416,-0.7958,9.042
2026-07-20T16:55:32.267,15.9416,-0.5216,9.2378
2026-07-20T16:55:32.276,15.9526,-0.4042,9.4728
2026-07-20T16:55:32.287,15.9812,-0.6,9.277
2026-07-20T16:55:32.298,15.9812,-0.365,9.0812
2026-07-20T16:55:32.298,15.9812,-0.3846,9.5119
2026-07-20T16:55:32.314,15.991,-0.6587,9.3161
2026-07-20T16:55:32.325,15.991,-0.3062,9.3161
2026-07-20T16:55:32.345,16.0268,-0.1692,9.5707
2026-07-20T16:55:32.345,16.0268,-0.4433,9.5903
2026-07-20T16:55:32.354,16.0328,-0.6195,9.3553
2026-07-20T16:55:32.363,16.0328,-0.13,9.3945
2026-07-20T16:55:32.378,16.0682,-0.1496,9.8056
2026-07-20T16:55:32.378,16.0682,-0.3062,9.5511
2026-07-20T16:55:32.399,16.074,-0.2083,9.414
2026-07-20T16:55:32.405,16.0789,-0.1104,9.7861
2026-07-20T16:55:32.412,16.082,-0.2867,9.5315
2026-07-20T16:55:32.425,16.1161,-0.4042,9.4924
2026-07-20T16:55:32.425,16.1161,-0.1104,9.3161
2026-07-20T16:55:32.446,16.1219,0.007,9.7077
2026-07-20T16:55:32.454,16.1248,-0.4629,9.6294
2026-07-20T16:55:32.465,16.1584,-0.3062,9.4336
2026-07-20T16:55:32.473,16.1633,-0.0909,9.3749
2026-07-20T16:55:32.488,16.1673,-0.0909,9.6882
2026-07-20T16:55:32.497,16.173,-0.4042,9.5119
2026-07-20T16:55:32.508,16.2088,-0.3846,9.277
2026-07-20T16:55:32.520,16.2109,-0.2475,9.5511
2026-07-20T16:55:32.520,16.2109,-0.3062,9.6098
2026-07-20T16:55:32.531,16.2195,-0.4433,9.414
2026-07-20T16:55:32.545,16.2195,-0.13,9.4532
2026-07-20T16:55:32.560,16.2522,-0.1888,9.7861
2026-07-20T16:55:32.560,16.2522,-0.4433,9.5903
2026-07-20T16:55:32.573,16.2603,-0.2279,9.4728
2026-07-20T16:55:32.583,16.2673,-0.1496,9.8644
2026-07-20T16:55:32.592,16.2673,-0.3062,9.8252
2026-07-20T16:55:32.607,16.3005,-0.365,9.7077
2026-07-20T16:55:32.615,16.3078,-0.0125,9.6686
2026-07-20T16:55:32.625,16.3078,0.0266,10.021
2026-07-20T16:55:32.633,16.3172,-0.3258,9.9036
2026-07-20T16:55:32.646,16.3237,-0.4237,9.7861
2026-07-20T16:55:32.654,16.3375,0.007,9.9819
2026-07-20T16:55:32.662,16.3375,-0.2083,10.1777
2026-07-20T16:55:32.680,16.3572,-0.2279,10.0015
2026-07-20T16:55:32.690,16.36,-0.0909,9.7861
2026-07-20T16:55:32.696,16.3661,0.1441,10.1189
2026-07-20T16:55:32.705,16.3846,-0.1888,10.1189
2026-07-20T16:55:32.710,16.4014,-0.3258,9.7861
2026-07-20T16:55:32.736,16.4014,0.0462,9.9231
2026-07-20T16:55:32.741,16.4014,-0.0125,10.1385
2026-07-20T16:55:32.757,16.4319,-0.1692,10.1385
2026-07-20T16:55:32.757,16.4319,-0.1104,9.9819
2026-07-20T16:55:32.757,16.4319,-0.0125,10.0798
2026-07-20T16:55:32.774,16.4461,-0.2475,10.2756
2026-07-20T16:55:32.791,16.4881,-0.3258,9.8448
2026-07-20T16:55:32.804,16.493,0.007,9.7861
2026-07-20T16:55:32.804,16.493,-0.1104,10.0994
2026-07-20T16:55:32.804,16.4951,-0.4237,10.0406
2026-07-20T16:55:32.830,16.5051,-0.0909,9.8252
2026-07-20T16:55:32.841,16.5358,0.0462,10.0798
2026-07-20T16:55:32.841,16.5358,-0.2671,10.1973
2026-07-20T16:55:32.853,16.5415,-0.2867,10.0798
2026-07-20T16:55:32.865,16.5426,0.1245,9.9231
2026-07-20T16:55:32.877,16.5496,0.0266,10.2952
2026-07-20T16:55:32.885,16.5806,-0.1104,10.1973
2026-07-20T16:55:32.900,16.5806,0.0854,9.884
2026-07-20T16:55:32.908,16.5899,0.1245,10.0994
2026-07-20T16:55:32.915,16.5918,-0.1104,10.2756
2026-07-20T16:55:32.926,16.5974,-0.1496,9.9819
2026-07-20T16:55:32.931,16.6242,0.0854,9.884
2026-07-20T16:55:32.946,16.6268,0.1049,10.1777
2026-07-20T16:55:32.953,16.6299,-0.1888,10.3735
2026-07-20T16:55:32.964,16.6299,-0.0713,10.2364
2026-07-20T16:55:32.978,16.6624,0.1833,10.1189
2026-07-20T16:55:32.978,16.6681,0.242,10.4518
2026-07-20T16:55:32.999,16.6717,-0.0125,10.4714
2026-07-20T16:55:33.002,16.6765,0.242,10.256
2026-07-20T16:55:33.019,16.7015,0.3987,10.5106
2026-07-20T16:55:33.026,16.7015,0.2812,10.6672
2026-07-20T16:55:33.040,16.7015,0.1441,10.5106
2026-07-20T16:55:33.049,16.7115,0.4182,10.3931
2026-07-20T16:55:33.058,16.7413,0.4574,10.7455
2026-07-20T16:55:33.058,16.7434,0.2029,10.6476
2026-07-20T16:55:33.074,16.7529,0.2812,10.4322
2026-07-20T16:55:33.084,16.7529,0.3399,10.6868
2026-07-20T16:55:33.096,16.7752,0.0462,10.5889
2026-07-20T16:55:33.105,16.78,0.1637,10.1973
2026-07-20T16:55:33.116,16.78,0.2029,10.1189
2026-07-20T16:55:33.125,16.7872,-0.0125,10.256
2026-07-20T16:55:33.137,16.8121,-0.365,9.7077
2026-07-20T16:55:33.137,16.8164,-0.2279,9.3749
2026-07-20T16:55:33.152,16.8164,-0.3454,9.1399
2026-07-20T16:55:33.168,16.8438,-0.9524,8.5721
2026-07-20T16:55:33.174,16.8438,-1.0112,8.0434
2026-07-20T16:55:33.189,16.8438,-1.4224,7.7105
2026-07-20T16:55:33.197,16.8596,-1.951,7.0448
2026-07-20T16:55:33.204,16.8831,-2.5776,5.8112
2026-07-20T16:55:33.204,16.8831,-3.1063,4.8321
2026-07-20T16:55:33.232,16.909,-3.9874,3.9118
2026-07-20T16:55:33.236,16.915,-5.221,2.2083
2026-07-20T16:55:33.243,16.9385,-5.9063,0.446
2026-07-20T16:55:33.255,16.9385,-6.435,-0.6505
2026-07-20T16:55:33.267,16.9602,-6.905,-1.8057
2026-07-20T16:55:33.281,16.9602,-7.0812,-2.7065
2026-07-20T16:55:33.285,16.9702,-6.6896,-2.9218
2026-07-20T16:55:33.298,16.9973,-6.9637,-3.6072
2026-07-20T16:55:33.298,17.004,-7.2574,-4.2533
2026-07-20T16:55:33.311,17.0067,-7.1399,-4.7429
2026-07-20T16:55:33.327,17.0067,-7.1791,-4.8799
2026-07-20T16:55:33.333,17.0067,-7.8253,-5.1932
2026-07-20T16:55:33.342,17.0198,-7.6882,-5.5848
2026-07-20T16:55:33.358,17.0444,-7.8253,-5.4282
2026-07-20T16:55:33.358,17.0492,-8.0211,-5.2911
2026-07-20T16:55:33.379,17.0523,-7.8448,-5.5261
2026-07-20T16:55:33.392,17.0552,-7.649,-5.389
2026-07-20T16:55:33.401,17.081,-7.884,-4.9778
2026-07-20T16:55:33.406,17.081,-7.884,-5.1932
2026-07-20T16:55:33.417,17.081,-7.3945,-5.1736
2026-07-20T16:55:33.428,17.081,-7.6295,-4.9191
2026-07-20T16:55:33.437,17.1022,-7.6686,-5.1932
2026-07-20T16:55:33.441,17.1022,-7.3945,-5.1932
2026-07-20T16:55:33.453,17.1128,-7.4336,-4.9387
2026-07-20T16:55:33.469,17.1356,-7.8448,-5.0757
2026-07-20T16:55:33.475,17.1356,-7.6099,-5.2911
2026-07-20T16:55:33.485,17.1356,-7.512,-5.0757
2026-07-20T16:55:33.495,17.1642,-7.7665,-5.0757
2026-07-20T16:55:33.506,17.1642,-7.9819,-5.1932
2026-07-20T16:55:33.508,17.1759,-7.7078,-5.3107
2026-07-20T16:55:33.532,17.1916,-7.5511,-5.1541
2026-07-20T16:55:33.532,17.1916,-7.8448,-5.1736
2026-07-20T16:55:33.539,17.1916,-7.8253,-5.3303
2026-07-20T16:55:33.548,17.2171,-7.6882,-5.0953
2026-07-20T16:55:33.564,17.2191,-7.8644,-5.017
2026-07-20T16:55:33.577,17.2394,-7.884,-5.2324
2026-07-20T16:55:33.580,17.2394,-7.6882,-5.3499
2026-07-20T16:55:33.603,17.2563,-7.7469,-5.017
2026-07-20T16:55:33.612,17.2705,-7.8644,-5.1736
2026-07-20T16:55:33.612,17.2705,-7.7469,-5.2715
2026-07-20T16:55:33.629,17.2986,-7.6295,-5.1932
2026-07-20T16:55:33.629,17.2986,-7.9427,-4.9974
2026-07-20T16:55:33.643,17.3016,-8.0602,-5.2128
2026-07-20T16:55:33.654,17.3183,-7.8253,-5.1541
2026-07-20T16:55:33.659,17.3183,-7.8057,-5.0757
2026-07-20T16:55:33.674,17.3288,-7.9819,-5.1932
2026-07-20T16:55:33.682,17.3496,-7.5511,-5.3107
2026-07-20T16:55:33.691,17.3496,-7.8253,-4.9778
2026-07-20T16:55:33.710,17.3655,-8.0015,-5.017
2026-07-20T16:55:33.710,17.3655,-7.9036,-5.252
2026-07-20T16:55:33.722,17.3813,-7.8057,-5.3107
2026-07-20T16:55:33.738,17.4045,-7.8448,-4.9387
2026-07-20T16:55:33.738,17.4045,-8.0015,-5.0953
2026-07-20T16:55:33.754,17.4284,-7.7078,-5.2715
2026-07-20T16:55:33.769,17.4284,-7.9232,-5.0562
2026-07-20T16:55:33.776,17.4284,-7.9819,-5.0953
2026-07-20T16:55:33.800,17.4442,-7.9819,-5.2715
2026-07-20T16:55:33.800,17.4442,-7.649,-5.252
2026-07-20T16:55:33.801,17.459,-7.9623,-4.9387
2026-07-20T16:55:33.817,17.4757,-8.0211,-5.1149
2026-07-20T16:55:33.817,17.4757,-7.8253,-5.3694
2026-07-20T16:55:33.832,17.5081,-7.7469,-5.0953
2026-07-20T16:55:33.848,17.5081,-7.9819,-4.9778
2026-07-20T16:55:33.848,17.5081,-8.0015,-5.252
2026-07-20T16:55:33.866,17.5351,-7.7469,-5.017
2026-07-20T16:55:33.875,17.5387,-7.8644,-4.8799
2026-07-20T16:55:33.880,17.5589,-8.1386,-5.1541
2026-07-20T16:55:33.897,17.5703,-7.8644,-5.2911
2026-07-20T16:55:33.905,17.5703,-7.7861,-4.9974
2026-07-20T16:55:33.914,17.586,-8.0211,-5.0757
2026-07-20T16:55:33.927,17.6017,-7.9427,-5.2128
2026-07-20T16:55:33.931,17.6027,-7.8448,-5.1149
2026-07-20T16:55:33.943,17.6027,-8.0798,-4.9974
2026-07-20T16:55:33.958,17.6176,-8.119,-5.2128
2026-07-20T16:55:33.958,17.6176,-7.7469,-5.3303
2026-07-20T16:55:33.975,17.6176,-7.8644,-5.0366
2026-07-20T16:55:33.990,17.6492,-8.0211,-4.9778
2026-07-20T16:55:33.990,17.6492,-7.8253,-5.2715
2026-07-20T16:55:34.006,17.6492,-7.7665,-5.1541
2026-07-20T16:55:34.013,17.6806,-7.9232,-4.9974
2026-07-20T16:55:34.021,17.6806,-8.1973,-5.1736
2026-07-20T16:55:34.021,17.6806,-7.6882,-5.2911
2026-07-20T16:55:34.053,17.712,-7.8644,-5.017
2026-07-20T16:55:34.053,17.712,-8.1386,-5.0757
2026-07-20T16:55:34.072,17.7424,-7.9036,-5.2715
2026-07-20T16:55:34.084,17.7424,-7.6099,-5.1736
2026-07-20T16:55:34.084,17.7441,-8.0602,-5.017
2026-07-20T16:55:34.100,17.7683,-8.0994,-5.2324
2026-07-20T16:55:34.100,17.7683,-7.7078,-5.2911
2026-07-20T16:55:34.116,17.7683,-8.0602,-4.9974
2026-07-20T16:55:34.132,17.7912,-8.1581,-5.1345
2026-07-20T16:55:34.132,17.7912,-7.9036,-5.2911
2026-07-20T16:55:34.141,17.7912,-7.8057,-5.1932
2026-07-20T16:55:34.163,17.8229,-8.0015,-4.9974
2026-07-20T16:55:34.163,17.8229,-7.9623,-5.2128
2026-07-20T16:55:34.163,17.8229,-7.8448,-5.2715
2026-07-20T16:55:34.181,17.8386,-7.8253,-5.0757
2026-07-20T16:55:34.181,17.8386,-8.1581,-5.2128
2026-07-20T16:55:34.205,17.87,-7.7469,-5.1736
2026-07-20T16:55:34.211,17.87,-7.7469,-5.1345
2026-07-20T16:55:34.227,17.9029,-8.0406,-4.9191
2026-07-20T16:55:34.231,17.9029,-8.1386,-5.1345
2026-07-20T16:55:34.242,17.9029,-7.7665,-5.3303
2026-07-20T16:55:34.260,17.9325,-7.8644,-5.0366
2026-07-20T16:55:34.273,17.9325,-8.0798,-5.0562
2026-07-20T16:55:34.275,17.9325,-7.9427,-5.2715
2026-07-20T16:55:34.305,17.9652,-7.8057,-5.1932
2026-07-20T16:55:34.305,17.9652,-7.8448,-5.017
2026-07-20T16:55:34.305,17.9652,-8.1581,-5.1345
2026-07-20T16:55:34.305,17.9774,-7.7861,-5.2911
2026-07-20T16:55:34.321,18.006,-7.7861,-4.9582
2026-07-20T16:55:34.338,18.006,-8.0602,-5.0562
2026-07-20T16:55:34.338,18.0113,-8.0015,-5.1736
2026-07-20T16:55:34.358,18.0429,-7.8057,-5.252
2026-07-20T16:55:34.375,18.0429,-7.9427,-5.017
2026-07-20T16:55:34.375,18.0429,-8.0211,-5.252
2026-07-20T16:55:34.384,18.0429,-7.6882,-5.3303
2026-07-20T16:55:34.384,18.0743,-7.7078,-5.0953
2026-07-20T16:55:34.399,18.0743,-8.0994,-5.0366
2026-07-20T16:55:34.415,18.0743,-8.0015,-5.2715
2026-07-20T16:55:34.415,18.0743,-7.884,-5.1932
2026-07-20T16:55:34.447,18.1119,-7.8448,-4.9778
2026-07-20T16:55:34.447,18.1119,-8.0015,-5.1541
2026-07-20T16:55:34.447,18.1119,-7.8644,-4.9582
2026-07-20T16:55:34.464,18.1423,-7.9623,-4.9582
2026-07-20T16:55:34.478,18.1423,-8.1581,-5.0366
2026-07-20T16:55:34.484,18.1423,-7.8644,-5.2715
2026-07-20T16:55:34.496,18.174,-7.8057,-5.2324
2026-07-20T16:55:34.510,18.174,-8.0798,-4.8995
2026-07-20T16:55:34.515,18.174,-8.1386,-5.2324
2026-07-20T16:55:34.530,18.2032,-7.884,-5.2128
2026-07-20T16:55:34.541,18.2032,-7.8057,-4.9974
2026-07-20T16:55:34.546,18.2032,-8.1973,-5.0757
2026-07-20T16:55:34.546,18.2137,-7.884,-5.2911
2026-07-20T16:55:34.563,18.2317,-7.6686,-5.0366
2026-07-20T16:55:34.575,18.2424,-7.8644,-4.9778
2026-07-20T16:55:34.586,18.2446,-8.1386,-5.1541
2026-07-20T16:55:34.595,18.2719,-7.7078,-5.3303
2026-07-20T16:55:34.604,18.2719,-7.9427,-4.9191
2026-07-20T16:55:34.617,18.2719,-8.0798,-5.1345
2026-07-20T16:55:34.635,18.2947,-8.0798,-5.2128
2026-07-20T16:55:34.635,18.2947,-7.9427,-4.8995
2026-07-20T16:55:34.644,18.2947,-8.0211,-4.9974
2026-07-20T16:55:34.656,18.3107,-8.0994,-5.1736
2026-07-20T16:55:34.667,18.3107,-7.7665,-5.252
2026-07-20T16:55:34.676,18.3107,-7.8448,-5.0757
2026-07-20T16:55:34.683,18.3546,-8.1973,-5.0757
2026-07-20T16:55:34.683,18.3546,-7.9232,-5.1736
2026-07-20T16:55:34.683,18.3546,-7.7861,-5.0562
2026-07-20T16:55:34.711,18.3884,-8.0602,-5.0366
2026-07-20T16:55:34.727,18.3884,-8.0798,-5.1932
2026-07-20T16:55:34.727,18.3884,-7.7861,-5.252
2026-07-20T16:55:34.743,18.417,-7.8448,-4.9778
2026-07-20T16:55:34.758,18.418,-8.0406,-5.0562
2026-07-20T16:55:34.773,18.4491,-8.0798,-5.2128
2026-07-20T16:55:34.780,18.4491,-7.7274,-5.1345
2026-07-20T16:55:34.780,18.4491,-7.884,-4.9974
2026-07-20T16:55:34.810,18.4645,-8.1581,-5.0953
2026-07-20T16:55:34.810,18.4801,-7.8448,-5.252
2026-07-20T16:55:34.810,18.4801,-7.8253,-5.0562
2026-07-20T16:55:34.821,18.4801,-7.9427,-4.9778
2026-07-20T16:55:34.837,18.5035,-7.884,-5.2128
2026-07-20T16:55:34.837,18.5035,-7.8644,-5.1932
2026-07-20T16:55:34.852,18.5117,-7.9819,-4.8603
2026-07-20T16:55:34.864,18.5281,-8.0602,-5.0757
2026-07-20T16:55:34.876,18.538,-7.8448,-5.1932
2026-07-20T16:55:34.884,18.5589,-7.884,-5.0366
2026-07-20T16:55:34.900,18.5589,-8.0211,-5.0953
2026-07-20T16:55:34.900,18.5589,-8.0798,-5.2128
2026-07-20T16:55:34.916,18.5903,-7.6882,-5.2128
2026-07-20T16:55:34.931,18.5903,-7.7861,-5.1345
2026-07-20T16:55:34.931,18.5903,-8.1386,-5.0757
2026-07-20T16:55:34.949,18.6221,-8.0211,-5.252
2026-07-20T16:55:34.963,18.6221,-7.7274,-5.0366
2026-07-20T16:55:34.963,18.6221,-8.1386,-5.0562
2026-07-20T16:55:34.979,18.6377,-8.0406,-5.1932
2026-07-20T16:55:34.979,18.6377,-7.8253,-5.2715
2026-07-20T16:55:34.994,18.6377,-7.8448,-4.8995
2026-07-20T16:55:35.010,18.6694,-8.0211,-5.017
2026-07-20T16:55:35.010,18.6694,-7.9623,-5.2128
2026-07-20T16:55:35.010,18.6694,-7.8448,-4.9778
2026-07-20T16:55:35.042,18.7037,-8.0015,-4.9387
2026-07-20T16:55:35.042,18.7037,-8.0406,-5.2324
2026-07-20T16:55:35.042,18.7037,-7.7861,-5.2715
2026-07-20T16:55:35.076,18.7322,-8.0211,-4.9387
2026-07-20T16:55:35.076,18.7322,-8.119,-5.1932
2026-07-20T16:55:35.089,18.748,-7.7274,-5.2715
2026-07-20T16:55:35.090,18.7614,-7.884,-5.0757
2026-07-20T16:55:35.105,18.7648,-8.1973,-5.0953
2026-07-20T16:55:35.120,18.7795,-7.9232,-5.2324
2026-07-20T16:55:35.120,18.7795,-7.884,-5.1149
2026-07-20T16:55:35.137,18.7795,-8.0602,-5.0953
2026-07-20T16:55:35.145,18.8108,-8.0211,-5.3107
2026-07-20T16:55:35.152,18.8108,-7.884,-5.1932
2026-07-20T16:55:35.152,18.8108,-8.1386,-5.0562
2026-07-20T16:55:35.176,18.8474,-8.256,-5.252
2026-07-20T16:55:35.183,18.8474,-7.6882,-5.017
2026-07-20T16:55:35.196,18.8474,-7.8057,-4.6841
2026-07-20T16:55:35.214,18.8797,-7.9232,-4.4687
2026-07-20T16:55:35.214,18.8797,-7.3749,-4.0575
2026-07-20T16:55:35.220,18.8863,-7.2378,-3.3526
2026-07-20T16:55:35.232,18.9056,-7.0616,-3.0981
2026-07-20T16:55:35.246,18.9189,-6.7287,-2.6869
2026-07-20T16:55:35.259,18.9213,-6.2392,-1.7274
2026-07-20T16:55:35.269,18.9559,-6.063,-1.14
2026-07-20T16:55:35.278,18.9611,-5.691,-0.7484
2026-07-20T16:55:35.287,18.9714,-5.0448,0.1719
2026-07-20T16:55:35.301,18.9743,-4.7902,0.9943
2026-07-20T16:55:35.310,19.0041,-4.5553,1.523
2026-07-20T16:55:35.325,19.0041,-3.9874,2.2083
2026-07-20T16:55:35.325,19.0041,-3.5175,3.2069
2026-07-20T16:55:35.344,19.0203,-3.5175,3.7356
2026-07-20T16:55:35.347,19.0203,-3.0084,3.8531
2026-07-20T16:55:35.357,19.0451,-2.558,4.6559
2026-07-20T16:55:35.373,19.0517,-2.5972,5.2237
2026-07-20T16:55:35.376,19.0569,-2.2643,5.5958
2026-07-20T16:55:35.393,19.0569,-1.6182,5.8503
2026-07-20T16:55:35.396,19.0638,-1.6182,6.3594
2026-07-20T16:55:35.429,19.092,-1.6769,6.5552
2026-07-20T16:55:35.429,19.092,-1.3049,6.7119
2026-07-20T16:55:35.436,19.092,-0.8545,6.7902
2026-07-20T16:55:35.436,19.0952,-0.9133,7.0839
2026-07-20T16:55:35.452,19.1266,-1.0895,6.9664
2026-07-20T16:55:35.452,19.1266,-0.737,7.0643
2026-07-20T16:55:35.467,19.1329,-0.4629,7.4364
2026-07-20T16:55:35.483,19.1643,-0.5804,7.3581
2026-07-20T16:55:35.483,19.1643,-0.2083,7.5147
2026-07-20T16:55:35.497,19.1643,-0.0909,7.9455
2026-07-20T16:55:35.505,19.1734,-0.1888,8.0042
2026-07-20T16:55:35.516,19.1892,-0.2083,8.0238
2026-07-20T16:55:35.516,19.2047,0.1637,8.1804
2026-07-20T16:55:35.537,19.2087,0.007,8.5721
2026-07-20T16:55:35.549,19.2124,-0.0321,8.3763
2026-07-20T16:55:35.556,19.2424,0.1441,8.2783
2026-07-20T16:55:35.561,19.2424,0.1049,8.6112
2026-07-20T16:55:35.585,19.2424,-0.0125,8.5916
2026-07-20T16:55:35.585,19.252,0.1637,8.3371
2026-07-20T16:55:35.593,19.2755,0.1833,8.4937
2026-07-20T16:55:35.593,19.2786,-0.0125,8.7287
2026-07-20T16:55:35.615,19.2835,-0.0713,8.5525
2026-07-20T16:55:35.624,19.2905,0.3399,8.6504
2026-07-20T16:55:35.634,19.3147,0.2224,8.8854
2026-07-20T16:55:35.648,19.3188,-0.0321,8.7091
2026-07-20T16:55:35.656,19.3235,0.2224,8.4937
2026-07-20T16:55:35.663,19.3255,0.1637,8.8266
2026-07-20T16:55:35.677,19.3538,-0.0909,8.6504
2026-07-20T16:55:35.687,19.3562,-0.1692,8.4154
2026-07-20T16:55:35.700,19.3606,0.0854,8.3763
2026-07-20T16:55:35.708,19.3862,-0.1496,8.6504
2026-07-20T16:55:35.718,19.3862,-0.2083,8.6308
2026-07-20T16:55:35.726,19.3936,0.0462,8.435
2026-07-20T16:55:35.741,19.4188,-0.0713,8.7091
2026-07-20T16:55:35.750,19.4188,-0.2083,8.3567
2026-07-20T16:55:35.756,19.4188,0.0266,8.1217
2026-07-20T16:55:35.768,19.4289,-0.0713,8.3175
2026-07-20T16:55:35.782,19.4569,-0.4042,8.0238
2026-07-20T16:55:35.782,19.4569,-0.4237,7.5734
2026-07-20T16:55:35.791,19.4569,-0.2671,7.8867
2026-07-20T16:55:35.806,19.4901,-0.5412,7.8476
2026-07-20T16:55:35.818,19.4901,-0.7174,7.4168
2026-07-20T16:55:35.827,19.4901,-0.365,7.4755
2026-07-20T16:55:35.841,19.505,-0.7174,7.6909
2026-07-20T16:55:35.841,19.5247,-0.8741,7.3972
2026-07-20T16:55:35.850,19.5247,-0.5021,7.5147
2026-07-20T16:55:35.862,19.5389,-0.6195,7.6126
2026-07-20T16:55:35.877,19.5389,-0.972,7.4951
2026-07-20T16:55:35.885,19.5677,-0.6587,7.2601
2026-07-20T16:55:35.897,19.5722,-0.6391,7.6126
2026-07-20T16:55:35.911,19.5791,-0.8741,7.3385
2026-07-20T16:55:35.914,19.6051,-0.6391,7.2797
2026-07-20T16:55:35.925,19.6111,-0.5608,7.5539
2026-07-20T16:55:35.925,19.6111,-0.7566,7.5147
2026-07-20T16:55:35.956,19.619,-0.8153,7.3189
2026-07-20T16:55:35.956,19.619,-0.3258,7.6126
2026-07-20T16:55:35.972,19.6485,-0.4825,7.8476
2026-07-20T16:55:35.977,19.6485,-0.5804,7.7105
2026-07-20T16:55:35.991,19.6565,-0.2867,7.9651
2026-07-20T16:55:36.001,19.6844,-0.365,8.0434
2026-07-20T16:55:36.003,19.6844,-0.5412,7.9455
2026-07-20T16:55:36.021,19.6844,-0.13,8.0434
2026-07-20T16:55:36.021,19.6844,0.0266,8.3175
2026-07-20T16:55:36.050,19.7259,-0.1888,8.3567
2026-07-20T16:55:36.050,19.7259,-0.13,8.2
2026-07-20T16:55:36.057,19.7259,0.1245,8.5133
2026-07-20T16:55:36.066,19.7313,-0.0125,8.5525
2026-07-20T16:55:36.079,19.7626,-0.0909,8.67
2026-07-20T16:55:36.082,19.7648,0.2616,8.4742
2026-07-20T16:55:36.098,19.7648,0.3008,9.0028
2026-07-20T16:55:36.108,19.7707,0.1245,9.1595
2026-07-20T16:55:36.128,19.7959,0.3595,8.9441
2026-07-20T16:55:36.128,19.7994,0.6532,9.1595
2026-07-20T16:55:36.137,19.8039,0.3595,9.3357
2026-07-20T16:55:36.150,19.8268,0.4182,9.042
2026-07-20T16:55:36.152,19.8352,0.8099,9.1791
2026-07-20T16:55:36.168,19.8352,0.5357,9.3553
2026-07-20T16:55:36.178,19.8399,0.3791,9.2574
2026-07-20T16:55:36.185,19.8658,0.5357,9.1986
2026-07-20T16:55:36.197,19.8713,0.7511,9.5707
2026-07-20T16:55:36.208,19.8736,0.5749,9.4728
2026-07-20T16:55:36.221,19.9007,0.5945,9.414
2026-07-20T16:55:36.232,19.9027,0.7315,9.6882
2026-07-20T16:55:36.238,19.9057,0.7119,9.9036
2026-07-20T16:55:36.246,19.9057,0.6924,9.649
2026-07-20T16:55:36.259,19.939,0.7903,9.649
2026-07-20T16:55:36.259,19.939,0.614,9.8252
2026-07-20T16:55:36.275,19.9458,0.3595,9.4924
2026-07-20T16:55:36.278,19.9817,0.3987,9.3357
2026-07-20T16:55:36.291,19.9844,0.6728,9.5511
2026-07-20T16:55:36.306,19.9871,0.3987,9.4728
2026-07-20T16:55:36.318,19.9911,0.2812,9.1203
2026-07-20T16:55:36.322,19.9934,0.6336,9.1203
2026-07-20T16:55:36.334,20.0161,0.5161,9.3553
2026-07-20T16:55:36.348,20.0215,0.2224,9.1399
2026-07-20T16:55:36.357,20.0215,0.477,8.8462
2026-07-20T16:55:36.366,20.0289,0.477,9.2378
2026-07-20T16:55:36.378,20.0561,0.1833,9.0028
2026-07-20T16:55:36.378,20.0561,0.477,8.8266
2026-07-20T16:55:36.394,20.0604,0.3791,8.9833
2026-07-20T16:55:36.403,20.0705,0.1833,8.9049
2026-07-20T16:55:36.417,20.0962,0.1049,8.807
2026-07-20T16:55:36.428,20.1002,-0.0517,9.0616
2026-07-20T16:55:36.443,20.106,-0.2279,8.8266
2026-07-20T16:55:36.449,20.1293,-0.0909,8.5525
2026-07-20T16:55:36.463,20.1353,0.1049,8.6308
2026-07-20T16:55:36.469,20.1377,-0.0713,8.5916
2026-07-20T16:55:36.473,20.1427,-0.2279,8.2392
2026-07-20T16:55:36.488,20.1672,0.0462,8.3175
2026-07-20T16:55:36.496,20.1713,-0.3258,8.6308
2026-07-20T16:55:36.512,20.176,-0.2279,8.0825
2026-07-20T16:55:36.517,20.1781,-0.0517,8.3567
2026-07-20T16:55:36.528,20.2041,-0.2867,8.435
2026-07-20T16:55:36.528,20.2041,-0.6391,8.2392
2026-07-20T16:55:36.544,20.2061,-0.4825,8.0434
2026-07-20T16:55:36.559,20.2355,-0.2671,8.3175
2026-07-20T16:55:36.559,20.2389,-0.7762,8.1021
2026-07-20T16:55:36.576,20.2389,-0.6979,7.7692
2026-07-20T16:55:36.578,20.2688,-0.4825,7.7497
2026-07-20T16:55:36.592,20.2729,-0.5608,7.7692
2026-07-20T16:55:36.611,20.2772,-1.0307,7.5343
2026-07-20T16:55:36.621,20.2772,-0.7762,7.5147
2026-07-20T16:55:36.631,20.3036,-0.5021,7.8476
2026-07-20T16:55:36.638,20.3064,-0.7174,7.8672
2026-07-20T16:55:36.645,20.3105,-0.9328,7.593
2026-07-20T16:55:36.653,20.3352,-0.7174,7.7105
2026-07-20T16:55:36.671,20.3442,-0.6391,7.9455
2026-07-20T16:55:36.676,20.3474,-0.8741,7.5734
2026-07-20T16:55:36.685,20.3474,-0.5804,7.456
2026-07-20T16:55:36.702,20.3799,-0.7762,7.6126
2026-07-20T16:55:36.708,20.383,-1.0112,7.5539
2026-07-20T16:55:36.716,20.3868,-0.9916,7.3189
2026-07-20T16:55:36.720,20.3912,-0.6783,7.2797
2026-07-20T16:55:36.736,20.4174,-0.8153,7.5539
2026-07-20T16:55:36.736,20.4221,-1.0699,7.2797
2026-07-20T16:55:36.759,20.426,-0.737,7.2797
2026-07-20T16:55:36.768,20.426,-0.9133,7.4364
2026-07-20T16:55:36.779,20.455,-1.2853,7.4951
2026-07-20T16:55:36.794,20.4622,-1.0503,7.2797
2026-07-20T16:55:36.798,20.465,-0.8153,7.4755
2026-07-20T16:55:36.798,20.4848,-1.0699,7.5734
2026-07-20T16:55:36.810,20.4848,-0.9916,7.2993
2026-07-20T16:55:36.827,20.4973,-0.6979,7.3972
2026-07-20T16:55:36.837,20.5009,-0.737,7.7105
2026-07-20T16:55:36.847,20.5258,-0.8741,7.4364
2026-07-20T16:55:36.857,20.5258,-0.7958,7.2014
2026-07-20T16:55:36.876,20.5325,-0.7566,7.4951
2026-07-20T16:55:36.876,20.5325,-1.0307,7.4364
2026-07-20T16:55:36.889,20.5661,-1.0307,7.1231
2026-07-20T16:55:36.898,20.5661,-0.8545,7.2014
2026-07-20T16:55:36.905,20.5695,-0.9916,7.4755
2026-07-20T16:55:36.921,20.5956,-1.344,7.1622
2026-07-20T16:55:36.921,20.5956,-1.0307,7.0643
2026-07-20T16:55:36.938,20.6059,-1.2265,7.2601
2026-07-20T16:55:36.946,20.6089,-1.3636,7.1231
2026-07-20T16:55:36.956,20.6367,-1.2461,6.8881
2026-07-20T16:55:36.968,20.64,-1.1091,7.1035
2026-07-20T16:55:36.981,20.6433,-1.2265,7.1622
2026-07-20T16:55:36.992,20.6721,-1.1482,6.9273
2026-07-20T16:55:36.992,20.6752,-1.0503,7.0839
2026-07-20T16:55:37.009,20.6767,-1.3636,7.2014
2026-07-20T16:55:37.016,20.683,-1.2461,7.0448
2026-07-20T16:55:37.031,20.709,-1.1286,6.986
2026-07-20T16:55:37.031,20.713,-1.5203,7.0643
2026-07-20T16:55:37.049,20.716,-1.6377,6.9469
2026-07-20T16:55:37.055,20.716,-1.344,6.614
2026-07-20T16:55:37.065,20.745,-1.4028,6.9664
2026-07-20T16:55:37.065,20.7497,-1.6377,6.8881
2026-07-20T16:55:37.088,20.7555,-1.4028,6.6531
2026-07-20T16:55:37.100,20.7878,-1.2657,6.9273
2026-07-20T16:55:37.111,20.7878,-1.579,6.849
2026-07-20T16:55:37.117,20.7878,-1.5986,6.6531
2026-07-20T16:55:37.128,20.7878,-1.2657,6.7315
2026-07-20T16:55:37.141,20.8258,-1.6182,6.9664
2026-07-20T16:55:37.143,20.8333,-1.6965,6.6336
2026-07-20T16:55:37.143,20.8333,-1.3832,6.614
2026-07-20T16:55:37.160,20.8413,-1.5203,6.8881
2026-07-20T16:55:37.180,20.8658,-1.7356,6.7706
2026-07-20T16:55:37.193,20.8734,-1.4615,6.614
2026-07-20T16:55:37.205,20.8767,-1.6377,6.9664
2026-07-20T16:55:37.208,20.8767,-1.6182,6.9273
2026-07-20T16:55:37.217,20.8814,-1.4811,6.6727
2026-07-20T16:55:37.236,20.9102,-1.2853,6.751
2026-07-20T16:55:37.236,20.9102,-1.3244,7.0643
2026-07-20T16:55:37.246,20.9102,-1.5203,6.8098
2026-07-20T16:55:37.254,20.9397,-1.207,6.8294
2026-07-20T16:55:37.265,20.9473,-1.3049,7.1622
2026-07-20T16:55:37.283,20.9473,-1.4028,7.2014
2026-07-20T16:55:37.283,20.954,-1.1678,7.1427
2026-07-20T16:55:37.303,20.9717,-1.0112,7.4364
2026-07-20T16:55:37.312,20.9868,-1.1091,7.5734
2026-07-20T16:55:37.320,20.9888,-1.2853,7.3581
2026-07-20T16:55:37.328,20.9976,-0.9524,7.3972
2026-07-20T16:55:37.344,21.0284,-0.8153,7.6713
2026-07-20T16:55:37.344,21.0284,-1.1286,7.3776
2026-07-20T16:55:37.361,21.0346,-1.0112,7.2406
2026-07-20T16:55:37.370,21.0346,-0.7762,7.221
2026-07-20T16:55:37.375,21.0346,-1.0307,7.4755
2026-07-20T16:55:37.391,21.0627,-1.1678,7.2014
2026-07-20T16:55:37.391,21.0627,-0.737,7.3189
2026-07-20T16:55:37.407,21.0693,-0.7566,7.5734
2026-07-20T16:55:37.422,21.0986,-1.1678,7.3776
2026-07-20T16:55:37.422,21.0986,-0.9133,7.3189
2026-07-20T16:55:37.435,21.1023,-0.737,7.6322
2026-07-20T16:55:37.445,21.1074,-1.0112,7.3581
2026-07-20T16:55:37.454,21.1348,-0.8349,7.2406
2026-07-20T16:55:37.471,21.137,-0.8349,7.2993
2026-07-20T16:55:37.480,21.1425,-0.9524,7.2993
2026-07-20T16:55:37.490,21.1698,-0.9916,7.1427
2026-07-20T16:55:37.490,21.1762,-0.7174,7.3776
2026-07-20T16:55:37.509,21.1762,-1.0503,7.3189
2026-07-20T16:55:37.515,21.1762,-1.0503,7.1818
2026-07-20T16:55:37.529,21.2075,-0.8153,7.3581
2026-07-20T16:55:37.533,21.2075,-1.0112,7.5147
2026-07-20T16:55:37.549,21.2176,-1.0699,7.2406
2026-07-20T16:55:37.549,21.2204,-0.8349,7.2797
2026-07-20T16:55:37.568,21.2455,-0.737,7.4755
2026-07-20T16:55:37.568,21.2512,-0.9916,7.456
2026-07-20T16:55:37.590,21.2573,-0.8349,7.2406
2026-07-20T16:55:37.598,21.2601,-0.6979,7.2797
2026-07-20T16:55:37.605,21.2834,-0.9133,7.3972
2026-07-20T16:55:37.618,21.288,-1.0895,7.1035
2026-07-20T16:55:37.630,21.288,-0.8349,7.0839
2026-07-20T16:55:37.644,21.3188,-0.8349,7.2406
2026-07-20T16:55:37.644,21.3188,-1.2461,7.1427
2026-07-20T16:55:37.660,21.3208,-0.8349,6.9664
2026-07-20T16:55:37.669,21.3208,-0.8153,7.2601
2026-07-20T16:55:37.680,21.3509,-1.1482,7.1427
2026-07-20T16:55:37.691,21.3509,-1.0895,6.9469
2026-07-20T16:55:37.693,21.3619,-0.9524,7.1427
2026-07-20T16:55:37.707,21.388,-1.1874,7.1818
2026-07-20T16:55:37.707,21.3941,-1.1091,7.1231
2026-07-20T16:55:37.723,21.3983,-0.8349,7.1035
2026-07-20T16:55:37.738,21.4017,-0.9133,7.3776
2026-07-20T16:55:37.754,21.4251,-1.0895,7.3189
2026-07-20T16:55:37.760,21.429,-0.6587,7.456
2026-07-20T16:55:37.771,21.4351,-0.6783,7.5539
2026-07-20T16:55:37.778,21.4655,-0.7958,7.456
2026-07-20T16:55:37.786,21.4688,-0.5608,7.3972
2026-07-20T16:55:37.797,21.4688,-0.6,7.593
2026-07-20T16:55:37.807,21.4759,-0.7958,7.5539
2026-07-20T16:55:37.822,21.5011,-0.7566,7.3189
2026-07-20T16:55:37.835,21.5038,-0.4042,7.6322
2026-07-20T16:55:37.841,21.5081,-0.6195,7.7105
2026-07-20T16:55:37.848,21.5109,-0.6979,7.3581
2026-07-20T16:55:37.859,21.5392,-0.3846,7.5147
2026-07-20T16:55:37.864,21.5392,-0.6979,7.6713
2026-07-20T16:55:37.876,21.5435,-0.8153,7.3581
2026-07-20T16:55:37.896,21.5742,-0.3846,7.5734
2026-07-20T16:55:37.896,21.5742,-0.4825,7.7301
2026-07-20T16:55:37.911,21.5787,-0.7566,7.4951
2026-07-20T16:55:37.918,21.5836,-0.3258,7.593
2026-07-20T16:55:37.927,21.6124,-0.365,8.0825
2026-07-20T16:55:37.943,21.6134,-0.6783,7.7497
2026-07-20T16:55:37.947,21.6172,-0.3454,7.7888
2026-07-20T16:55:37.958,21.6199,-0.4825,8.0238
2026-07-20T16:55:37.958,21.6439,-0.5804,7.7888
2026-07-20T16:55:37.975,21.6485,-0.2671,7.7888
2026-07-20T16:55:37.992,21.6485,-0.3258,8.0238
2026-07-20T16:55:38.001,21.6806,-0.6195,7.9651
2026-07-20T16:55:38.005,21.6806,-0.2867,7.6909
2026-07-20T16:55:38.021,21.6872,-0.3062,8.0434
2026-07-20T16:55:38.021,21.6929,-0.6,7.8672
2026-07-20T16:55:38.037,21.7159,-0.5216,7.6126
2026-07-20T16:55:38.037,21.7159,-0.4433,7.9455
2026-07-20T16:55:38.053,21.7159,-0.6587,7.8476
2026-07-20T16:55:38.072,21.7531,-0.8153,7.6713
2026-07-20T16:55:38.085,21.7531,-0.6391,7.5147
2026-07-20T16:55:38.088,21.7531,-0.4433,7.8476
2026-07-20T16:55:38.088,21.7644,-0.8349,7.5734
2026-07-20T16:55:38.100,21.7916,-0.8349,7.4364
2026-07-20T16:55:38.116,21.7926,-0.6195,7.3972
2026-07-20T16:55:38.125,21.7926,-0.7174,7.6713
2026-07-20T16:55:38.139,21.7926,-0.9916,7.4951
2026-07-20T16:55:38.149,21.8345,-0.7174,7.2993
2026-07-20T16:55:38.149,21.8345,-0.6,7.4364
2026-07-20T16:55:38.165,21.8392,-0.8937,7.5147
2026-07-20T16:55:38.165,21.8415,-1.0112,7.4364
2026-07-20T16:55:38.187,21.8703,-0.6587,7.3776
2026-07-20T16:55:38.195,21.875,-0.6979,7.6322
2026-07-20T16:55:38.207,21.875,-0.8937,7.5539
2026-07-20T16:55:38.214,21.8807,-0.5804,7.3776
2026-07-20T16:55:38.227,21.9086,-0.5804,7.7497
2026-07-20T16:55:38.227,21.9086,-0.737,7.5734
2026-07-20T16:55:38.247,21.9162,-0.972,7.3581
2026-07-20T16:55:38.253,21.9178,-0.6391,7.3385
2026-07-20T16:55:38.274,21.9493,-0.6587,7.6909
2026-07-20T16:55:38.274,21.9493,-0.9916,7.4364
2026-07-20T16:55:38.290,21.9584,-0.6391,7.2797
2026-07-20T16:55:38.300,21.9867,-0.7174,7.6713
2026-07-20T16:55:38.306,21.9867,-0.9133,7.456
2026-07-20T16:55:38.322,21.9948,-1.0503,7.3385
2026-07-20T16:55:38.331,21.9966,-0.6391,7.3189
2026-07-20T16:55:38.342,22.0333,-0.5804,7.6909
2026-07-20T16:55:38.353,22.038,-0.8545,7.6713
2026-07-20T16:55:38.359,22.038,-0.7762,7.3189
2026-07-20T16:55:38.367,22.0443,-0.4825,7.6909
2026-07-20T16:55:38.381,22.075,-0.5804,7.8084
2026-07-20T16:55:38.397,22.076,-0.9328,7.6126
2026-07-20T16:55:38.397,22.076,-0.5608,7.5734
2026-07-20T16:55:38.410,22.076,-0.3846,7.9259
2026-07-20T16:55:38.420,22.076,-0.8741,7.6126
2026-07-20T16:55:38.428,22.1133,-0.8741,7.3776
2026-07-20T16:55:38.434,22.1168,-0.4825,7.7301
2026-07-20T16:55:38.448,22.1208,-0.737,7.7888
2026-07-20T16:55:38.448,22.1253,-1.0112,7.5343
2026-07-20T16:55:38.469,22.155,-0.6391,7.5147
2026-07-20T16:55:38.481,22.1586,-0.7566,7.6518
2026-07-20T16:55:38.489,22.1586,-0.8153,7.6518
2026-07-20T16:55:38.498,22.1586,-0.8545,7.456
2026-07-20T16:55:38.512,22.1942,-0.5412,7.5539
2026-07-20T16:55:38.512,22.1979,-0.7174,7.7497
2026-07-20T16:55:38.527,22.1979,-0.8741,7.3972
2026-07-20T16:55:38.531,22.2058,-0.6391,7.5539
2026-07-20T16:55:38.551,22.2338,-0.6979,7.7692
2026-07-20T16:55:38.559,22.2338,-0.9133,7.6126
2026-07-20T16:55:38.570,22.2408,-0.6,7.5734
2026-07-20T16:55:38.578,22.2429,-0.5804,7.7888
2026-07-20T16:55:38.590,22.2791,-0.737,7.828
2026-07-20T16:55:38.590,22.2813,-0.9916,7.4951
2026-07-20T16:55:38.606,22.2849,-0.6,7.5539
2026-07-20T16:55:38.615,22.2873,-0.6587,7.8084
2026-07-20T16:55:38.622,22.3137,-0.9133,7.6713
2026-07-20T16:55:38.638,22.3137,-0.7762,7.3776
2026-07-20T16:55:38.657,22.3137,-0.6587,7.828
2026-07-20T16:55:38.660,22.3137,-0.737,7.7497
2026-07-20T16:55:38.665,22.3285,-1.0112,7.456
2026-07-20T16:55:38.685,22.3582,-0.8153,7.6518
2026-07-20T16:55:38.686,22.3582,-0.8153,7.8476
2026-07-20T16:55:38.686,22.3643,-1.0699,7.5734
2026-07-20T16:55:38.711,22.3922,-0.9524,7.4951
2026-07-20T16:55:38.717,22.3994,-0.737,7.7692
2026-07-20T16:55:38.730,22.3994,-1.0699,7.5539
2026-07-20T16:55:38.737,22.4092,-0.9328,7.2993
2026-07-20T16:55:38.749,22.4331,-0.8349,7.6518
2026-07-20T16:55:38.749,22.4331,-0.9524,7.7301
2026-07-20T16:55:38.772,22.4331,-1.1678,7.5147
2026-07-20T16:55:38.783,22.4423,-1.0112,7.456
2026-07-20T16:55:38.791,22.4675,-0.7762,7.7888
2026-07-20T16:55:38.797,22.472,-1.0895,7.5539
2026-07-20T16:55:38.805,22.4741,-0.8545,7.4168
2026-07-20T16:55:38.815,22.4799,-0.9328,7.6713
2026-07-20T16:55:38.829,22.5055,-1.1091,7.6322
2026-07-20T16:55:38.840,22.5075,-1.207,7.3972
2026-07-20T16:55:38.852,22.5117,-0.8937,7.3385
2026-07-20T16:55:38.860,22.5371,-0.8741,7.6713
2026-07-20T16:55:38.864,22.5427,-1.2265,7.456
2026-07-20T16:55:38.880,22.5459,-0.8937,7.2014
2026-07-20T16:55:38.888,22.5503,-0.7762,7.593
2026-07-20T16:55:38.892,22.5757,-1.1482,7.4755
2026-07-20T16:55:38.915,22.5778,-1.0307,7.2406
2026-07-20T16:55:38.918,22.5824,-0.8349,7.4364
2026-07-20T16:55:38.933,22.6072,-1.1482,7.5343
2026-07-20T16:55:38.941,22.6117,-1.2265,7.2406
2026-07-20T16:55:38.954,22.6191,-0.8741,7.2993
2026-07-20T16:55:38.958,22.6191,-1.0699,7.6126
2026-07-20T16:55:38.962,22.6452,-1.2853,7.3581
2026-07-20T16:55:38.979,22.6494,-0.8741,7.3189
2026-07-20T16:55:38.991,22.6535,-1.1286,7.5539
2026-07-20T16:55:39.002,22.6812,-1.3244,7.3972
2026-07-20T16:55:39.004,22.6812,-0.9524,7.2993
2026-07-20T16:55:39.022,22.6812,-0.7958,7.593
2026-07-20T16:55:39.026,22.6925,-1.0699,7.4755
2026-07-20T16:55:39.037,22.7208,-0.9524,7.221
2026-07-20T16:55:39.049,22.7262,-0.8545,7.4755
2026-07-20T16:55:39.053,22.7262,-1.1678,7.456
2026-07-20T16:55:39.065,22.7378,-0.8349,7.2601
2026-07-20T16:55:39.082,22.7628,-0.737,7.593
2026-07-20T16:55:39.093,22.7686,-1.0112,7.6518
2026-07-20T16:55:39.099,22.7729,-0.9916,7.4364
2026-07-20T16:55:39.110,22.7772,-0.6783,7.4168
2026-07-20T16:55:39.127,22.8037,-0.6587,7.6713
2026-07-20T16:55:39.127,22.8037,-0.972,7.5147
2026-07-20T16:55:39.141,22.8061,-0.7174,7.456
2026-07-20T16:55:39.150,22.8096,-0.737,7.5734
2026-07-20T16:55:39.159,22.8337,-1.1286,7.4951
2026-07-20T16:55:39.159,22.8337,-0.7958,7.5147
2026-07-20T16:55:39.182,22.8421,-0.8349,7.9259
2026-07-20T16:55:39.191,22.8692,-0.9916,7.5147
2026-07-20T16:55:39.191,22.8692,-0.7958,7.5734
2026-07-20T16:55:39.214,22.8692,-0.6783,7.8867
2026-07-20T16:55:39.222,22.9052,-0.972,7.6909
2026-07-20T16:55:39.228,22.9052,-0.6979,7.593
2026-07-20T16:55:39.242,22.9099,-0.6,7.7888
2026-07-20T16:55:39.242,22.9169,-0.8545,7.6713
2026-07-20T16:55:39.258,22.9483,-0.7762,7.4168
2026-07-20T16:55:39.269,22.9516,-0.4042,7.8476
2026-07-20T16:55:39.278,22.9543,-0.7566,7.6713
2026-07-20T16:55:39.289,22.9589,-0.8349,7.4755
2026-07-20T16:55:39.303,22.9889,-0.6587,7.828
2026-07-20T16:55:39.317,22.9935,-0.7762,7.7497
2026-07-20T16:55:39.324,22.9975,-0.6,7.5343
2026-07-20T16:55:39.331,23.0052,-0.7174,7.7888
2026-07-20T16:55:39.343,23.032,-1.0895,7.5734
2026-07-20T16:55:39.349,23.0367,-0.8349,7.4168
2026-07-20T16:55:39.361,23.0367,-0.5608,7.6713
2026-07-20T16:55:39.370,23.0427,-0.8153,7.7497
2026-07-20T16:55:39.380,23.0508,-0.8349,7.456
2026-07-20T16:55:39.387,23.0702,-0.5608,7.6126
2026-07-20T16:55:39.395,23.0866,-0.7762,7.7888
2026-07-20T16:55:39.409,23.0889,-0.9916,7.3189
2026-07-20T16:55:39.425,23.0889,-0.6195,7.4364
2026-07-20T16:55:39.427,23.0889,-0.8937,7.6713
2026-07-20T16:55:39.443,23.1216,-1.0503,7.3385
2026-07-20T16:55:39.443,23.1255,-0.5608,7.4168
2026-07-20T16:55:39.459,23.1255,-0.8545,7.5734
2026-07-20T16:55:39.461,23.1508,-1.1091,7.3776
2026-07-20T16:55:39.490,23.1637,-0.7566,7.2601
2026-07-20T16:55:39.490,23.1672,-0.7566,7.4951
2026-07-20T16:55:39.498,23.1672,-0.9524,7.2797
2026-07-20T16:55:39.515,23.1982,-0.6195,7.2014
2026-07-20T16:55:39.523,23.1982,-0.7174,7.5343
2026-07-20T16:55:39.536,23.1982,-0.8937,7.4951
2026-07-20T16:55:39.540,23.2058,-0.8937,7.2014
2026-07-20T16:55:39.544,23.2319,-0.9133,7.5147
2026-07-20T16:55:39.567,23.24,-1.1091,7.4755
2026-07-20T16:55:39.567,23.24,-0.8153,7.3385
2026-07-20T16:55:39.580,23.2472,-0.8545,7.593
2026-07-20T16:55:39.591,23.2763,-1.1874,7.2797
2026-07-20T16:55:39.598,23.2801,-1.0895,7.2014
2026-07-20T16:55:39.612,23.2852,-0.8741,7.4364
2026-07-20T16:55:39.624,23.2893,-1.0895,7.5343
2026-07-20T16:55:39.630,23.3163,-1.1678,7.2601
2026-07-20T16:55:39.630,23.3163,-0.8545,7.2993
2026-07-20T16:55:39.649,23.3207,-1.2265,7.3972
2026-07-20T16:55:39.662,23.3287,-1.0699,7.1427
2026-07-20T16:55:39.669,23.3557,-0.9133,7.0448
2026-07-20T16:55:39.677,23.3578,-1.2657,7.1427
2026-07-20T16:55:39.689,23.3578,-1.344,7.1035
2026-07-20T16:55:39.701,23.3648,-0.7958,7.1818
2026-07-20T16:55:39.710,23.3921,-1.0895,7.2993
2026-07-20T16:55:39.710,23.3959,-1.3049,7.1622
2026-07-20T16:55:39.730,23.4023,-0.9916,7.0448
2026-07-20T16:55:39.737,23.4048,-0.8741,7.3581
2026-07-20T16:55:39.748,23.4322,-1.1286,7.221
2026-07-20T16:55:39.756,23.4322,-0.8153,7.1231
2026-07-20T16:55:39.768,23.4322,-1.0503,7.4168
2026-07-20T16:55:39.777,23.4322,-1.2853,7.3385
2026-07-20T16:55:39.787,23.4706,-1.0699,7.0448
2026-07-20T16:55:39.793,23.4706,-0.972,7.3581
2026-07-20T16:55:39.804,23.4766,-1.2265,7.3385
2026-07-20T16:55:39.818,23.4766,-1.1874,7.1622
2026-07-20T16:55:39.834,23.5093,-0.9133,7.3776
2026-07-20T16:55:39.834,23.5103,-1.2657,7.3189
2026-07-20T16:55:39.849,23.516,-1.0699,7.1427
2026-07-20T16:55:39.861,23.5399,-0.9328,7.2797
2026-07-20T16:55:39.865,23.5399,-1.0112,7.5539
2026-07-20T16:55:39.882,23.5556,-1.1678,7.3776
2026-07-20T16:55:39.888,23.5594,-0.9328,7.2601
2026-07-20T16:55:39.903,23.5868,-0.8741,7.5147
2026-07-20T16:55:39.912,23.5917,-1.2461,7.3385
2026-07-20T16:55:39.912,23.5938,-0.7958,7.2601
2026-07-20T16:55:39.928,23.5995,-0.9524,7.5147
2026-07-20T16:55:39.943,23.6187,-1.2657,7.5147
2026-07-20T16:55:39.943,23.6317,-0.972,7.2797
2026-07-20T16:55:39.966,23.6346,-0.8153,7.5539
2026-07-20T16:55:39.977,23.6346,-1.207,7.5539
2026-07-20T16:55:39.977,23.6416,-1.1678,7.3776
2026-07-20T16:55:39.991,23.6672,-0.8349,7.5734
2026-07-20T16:55:40.004,23.6737,-0.9916,7.6322
2026-07-20T16:55:40.007,23.6737,-0.9524,7.3972
2026-07-20T16:55:40.023,23.6978,-0.8153,7.6909
2026-07-20T16:55:40.024,23.6978,-0.972,7.6126
2026-07-20T16:55:40.040,23.7073,-1.1286,7.3972
2026-07-20T16:55:40.050,23.7106,-0.9133,7.3776
2026-07-20T16:55:40.058,23.7385,-1.0112,7.6518
2026-07-20T16:55:40.058,23.7385,-1.2853,7.593
2026-07-20T16:55:40.083,23.7385,-1.0699,7.4364
2026-07-20T16:55:40.086,23.7705,-1.0307,7.7497
2026-07-20T16:55:40.102,23.7767,-1.1091,7.5343
2026-07-20T16:55:40.111,23.7767,-0.9524,7.3776
2026-07-20T16:55:40.123,23.7767,-0.8545,7.6713
2026-07-20T16:55:40.131,23.8053,-1.1678,7.5734
2026-07-20T16:55:40.133,23.8109,-0.972,7.3581
2026-07-20T16:55:40.149,23.8152,-0.8741,7.6909
2026-07-20T16:55:40.149,23.8152,-1.1482,7.6518
2026-07-20T16:55:40.165,23.8407,-1.1874,7.3189
2026-07-20T16:55:40.178,23.8487,-0.972,7.4755
2026-07-20T16:55:40.188,23.8556,-1.2853,7.6322
2026-07-20T16:55:40.200,23.8777,-1.2265,7.3385
2026-07-20T16:55:40.212,23.8792,-1.2461,7.6126
2026-07-20T16:55:40.213,23.8873,-1.4419,7.6322
2026-07-20T16:55:40.235,23.9079,-1.2853,7.3189
2026-07-20T16:55:40.244,23.9112,-1.1091,7.5343
2026-07-20T16:55:40.247,23.9112,-1.9119,7.3972
2026-07-20T16:55:40.260,23.9216,-1.4224,7.1818
2026-07-20T16:55:40.269,23.9406,-1.4224,7.456
2026-07-20T16:55:40.284,23.9479,-1.5986,7.2993
2026-07-20T16:55:40.294,23.9536,-1.4224,7.1427
2026-07-20T16:55:40.301,23.9815,-1.2461,7.3189
2026-07-20T16:55:40.306,23.9815,-1.5594,7.3972
2026-07-20T16:55:40.324,23.9856,-1.4224,7.2406
2026-07-20T16:55:40.326,23.9856,-1.207,7.1231
2026-07-20T16:55:40.338,24.0114,-1.6377,7.1622
2026-07-20T16:55:40.349,24.0199,-1.4028,6.8881
2026-07-20T16:55:40.358,24.0199,-1.5007,7.1818
2026-07-20T16:55:40.370,24.0482,-1.6769,7.1231
2026-07-20T16:55:40.370,24.0524,-1.814,6.9077
2026-07-20T16:55:40.392,24.0524,-1.5594,6.8685
2026-07-20T16:55:40.399,24.0605,-1.7356,7.0448
2026-07-20T16:55:40.405,24.0868,-1.9902,6.751
2026-07-20T16:55:40.425,24.0921,-1.7161,6.751
2026-07-20T16:55:40.425,24.0921,-1.8335,7.0056
2026-07-20T16:55:40.445,24.1229,-2.1273,6.9664
2026-07-20T16:55:40.449,24.1249,-1.7552,6.6336
2026-07-20T16:55:40.459,24.1292,-1.7552,6.9077
2026-07-20T16:55:40.464,24.1334,-2.0881,6.7706
2026-07-20T16:55:40.484,24.161,-1.9315,6.6923
2026-07-20T16:55:40.484,24.161,-1.7944,6.8881
2026-07-20T16:55:40.501,24.1652,-2.0685,6.8685
2026-07-20T16:55:40.506,24.1709,-2.0294,6.4965
2026-07-20T16:55:40.512,24.1975,-1.8335,6.8098
2026-07-20T16:55:40.533,24.2019,-2.1664,6.614
2026-07-20T16:55:40.537,24.2019,-2.1664,6.4573
2026-07-20T16:55:40.553,24.2309,-1.951,6.614
2026-07-20T16:55:40.559,24.2375,-2.0881,6.6336
2026-07-20T16:55:40.574,24.2401,-2.0098,6.3594
2026-07-20T16:55:40.574,24.2424,-1.814,6.5944
2026-07-20T16:55:40.589,24.2644,-2.0294,6.7315
2026-07-20T16:55:40.589,24.2739,-2.0294,6.3986
2026-07-20T16:55:40.610,24.282,-1.9119,6.6923
2026-07-20T16:55:40.619,24.3102,-2.186,6.7315
2026-07-20T16:55:40.626,24.3137,-2.2447,6.379
2026-07-20T16:55:40.637,24.3177,-1.951,6.4965
2026-07-20T16:55:40.652,24.3217,-2.0685,6.7119
2026-07-20T16:55:40.661,24.3501,-2.2643,6.4378
2026-07-20T16:55:40.672,24.3501,-2.0685,6.3399
2026-07-20T16:55:40.672,24.3501,-2.1077,6.614
2026-07-20T16:55:40.694,24.3561,-2.4797,6.379
2026-07-20T16:55:40.694,24.3586,-2.0685,6.1636
2026-07-20T16:55:40.700,24.3855,-2.1273,6.3986
2026-07-20T16:55:40.715,24.3909,-2.4993,6.3007
2026-07-20T16:55:40.731,24.3982,-2.3818,6.0657
2026-07-20T16:55:40.738,24.4261,-2.2447,6.4378
2026-07-20T16:55:40.747,24.4302,-2.558,6.2615
2026-07-20T16:55:40.762,24.4302,-2.3426,6.0266
2026-07-20T16:55:40.773,24.4374,-2.3231,6.2224
2026-07-20T16:55:40.781,24.4669,-2.5189,6.2419
2026-07-20T16:55:40.795,24.469,-2.4993,5.9482
2026-07-20T16:55:40.798,24.4747,-2.3035,6.0461
2026-07-20T16:55:40.810,24.4794,-2.4797,6.2419
2026-07-20T16:55:40.822,24.5076,-2.4601,6.1049
2026-07-20T16:55:40.825,24.5076,-2.2839,6.0461
2026-07-20T16:55:40.841,24.5124,-2.4406,6.3203
2026-07-20T16:55:40.849,24.5174,-2.5385,5.9874
2026-07-20T16:55:40.857,24.5479,-2.3426,6.1049
2026-07-20T16:55:40.873,24.5479,-2.4406,6.3007
2026-07-20T16:55:40.880,24.5516,-2.6755,6.1832
2026-07-20T16:55:40.890,24.5516,-2.4993,5.8699
2026-07-20T16:55:40.901,24.5861,-2.4014,6.2615
2026-07-20T16:55:40.905,24.5903,-2.7538,6.1049
2026-07-20T16:55:40.920,24.5903,-2.5385,5.8112
2026-07-20T16:55:40.931,24.5972,-2.4406,6.144
2026-07-20T16:55:40.936,24.6225,-2.793,6.0853
2026-07-20T16:55:40.952,24.6271,-2.6364,5.8895
2026-07-20T16:55:40.963,24.6348,-2.4797,6.2615
2026-07-20T16:55:40.970,24.6348,-2.793,6.2419
2026-07-20T16:55:40.985,24.6587,-2.7343,5.9287
2026-07-20T16:55:40.985,24.6587,-2.4797,6.2224
2026-07-20T16:55:41.007,24.6712,-2.6168,6.379
2026-07-20T16:55:41.007,24.6712,-2.6755,6.1636
2026-07-20T16:55:41.020,24.6975,-2.4406,6.1832
2026-07-20T16:55:41.020,24.7035,-2.6168,6.4965
2026-07-20T16:55:41.031,24.7059,-2.4601,6.2028
2026-07-20T16:55:41.049,24.732,-2.3426,6.4965
2026-07-20T16:55:41.056,24.7348,-2.4014,6.7902
2026-07-20T16:55:41.076,24.7386,-2.558,6.7315
2026-07-20T16:55:41.078,24.7426,-2.4014,6.8685
2026-07-20T16:55:41.091,24.7717,-2.3818,7.2601
2026-07-20T16:55:41.096,24.777,-2.4601,7.1818
2026-07-20T16:55:41.115,24.777,-2.186,7.3581
2026-07-20T16:55:41.117,24.8127,-2.2839,7.5734
2026-07-20T16:55:41.126,24.8166,-2.2839,7.5343
2026-07-20T16:55:41.144,24.8217,-2.0294,7.3972
2026-07-20T16:55:41.149,24.8254,-2.0881,7.6909
2026-07-20T16:55:41.160,24.8489,-2.3622,7.5343
2026-07-20T16:55:41.173,24.8547,-2.2839,7.4168
2026-07-20T16:55:41.182,24.8547,-2.1468,7.5343
2026-07-20T16:55:41.189,24.8547,-2.421,7.4364
2026-07-20T16:55:41.200,24.8642,-2.3818,7.1035
2026-07-20T16:55:41.212,24.8795,-2.2839,7.0643
2026-07-20T16:55:41.221,24.8956,-2.8126,6.8098
2026-07-20T16:55:41.237,24.9027,-2.7734,6.2615
2026-07-20T16:55:41.237,24.9069,-2.8909,6.2615
2026-07-20T16:55:41.252,24.9271,-3.4392,5.9287
2026-07-20T16:55:41.252,24.9351,-3.6937,5.0671
2026-07-20T16:55:41.275,24.9377,-4.0853,4.8713
2026-07-20T16:55:41.279,24.941,-4.6728,4.2643
2026-07-20T16:55:41.287,24.9674,-4.9861,3.344
2026-07-20T16:55:41.299,24.9674,-5.5147,2.8741
2026-07-20T16:55:41.310,24.9744,-6.2196,1.9733
2026-07-20T16:55:41.325,25.0129,-6.8854,0.5439
2026-07-20T16:55:41.331,25.0129,-7.2574,-0.4155
2026-07-20T16:55:41.340,25.0129,-8.1386,-1.7078
2026-07-20T16:55:41.347,25.0222,-8.4323,-2.9806
2026-07-20T16:55:41.363,25.0222,-8.5693,-3.6463
2026-07-20T16:55:41.371,25.0575,-9.0001,-4.2925
2026-07-20T16:55:41.385,25.0575,-8.6672,-4.9191
2026-07-20T16:55:41.385,25.0694,-8.6672,-5.1932
2026-07-20T16:55:41.394,25.0741,-8.8043,-5.389
2026-07-20T16:55:41.412,25.105,-8.7064,-5.8981
2026-07-20T16:55:41.412,25.105,-8.4518,-5.9373
2026-07-20T16:55:41.430,25.1111,-8.3931,-5.7219
2026-07-20T16:55:41.442,25.1167,-8.4714,-5.8002
2026-07-20T16:55:41.457,25.1333,-8.0015,-5.7415
2026-07-20T16:55:41.462,25.1425,-8.1386,-5.5261
2026-07-20T16:55:41.469,25.1464,-8.3931,-5.4478
2026-07-20T16:55:41.477,25.1502,-7.8253,-5.5065
2026-07-20T16:55:41.489,25.1502,-7.8057,-5.2128
2026-07-20T16:55:41.489,25.1731,-7.9232,-5.1932
2026-07-20T16:55:41.506,25.1731,-7.5316,-5.2324
2026-07-20T16:55:41.520,25.1731,-7.6686,-4.9582
2026-07-20T16:55:41.533,25.2011,-7.7469,-5.1736
2026-07-20T16:55:41.536,25.2011,-7.6882,-5.389
2026-07-20T16:55:41.552,25.2011,-7.9036,-5.0757
2026-07-20T16:55:41.568,25.2269,-7.9819,-5.1932
2026-07-20T16:55:41.568,25.2269,-7.649,-5.2324
2026-07-20T16:55:41.573,25.2269,-7.5903,-5.2715
2026-07-20T16:55:41.590,25.2427,-7.8448,-5.1932
2026-07-20T16:55:41.599,25.2427,-7.7078,-5.3303
2026-07-20T16:55:41.615,25.2742,-7.5903,-5.1736
2026-07-20T16:55:41.615,25.2742,-7.9427,-5.1932
2026-07-20T16:55:41.635,25.2902,-7.7469,-5.3499
2026-07-20T16:55:41.646,25.304,-7.8448,-5.1736
2026-07-20T16:55:41.646,25.304,-7.9623,-5.1149
2026-07-20T16:55:41.659,25.3288,-7.8644,-5.2324
2026-07-20T16:55:41.663,25.3288,-7.6686,-5.1932
2026-07-20T16:55:41.695,25.3552,-8.0406,-5.0562
2026-07-20T16:55:41.699,25.3552,-8.0211,-5.252
2026-07-20T16:55:41.701,25.3552,-7.6686,-5.2715
2026-07-20T16:55:41.710,25.3824,-7.7861,-5.0757
2026-07-20T16:55:41.725,25.3852,-8.0211,-5.2128
2026-07-20T16:55:41.728,25.3852,-7.8644,-5.2715
2026-07-20T16:55:41.738,25.405,-7.8057,-4.9778
2026-07-20T16:55:41.741,25.405,-8.0798,-5.1736
2026-07-20T16:55:41.758,25.4137,-7.8253,-5.3303
2026-07-20T16:55:41.777,25.4381,-7.884,-4.9778
2026-07-20T16:55:41.777,25.4381,-8.119,-5.0953
2026-07-20T16:55:41.796,25.4627,-7.7665,-5.2324
2026-07-20T16:55:41.804,25.4627,-7.9232,-5.1345
2026-07-20T16:55:41.810,25.4627,-8.1777,-5.2911
2026-07-20T16:55:41.821,25.4946,-7.9036,-5.252
2026-07-20T16:55:41.835,25.4946,-7.8448,-4.9582
2026-07-20T16:55:41.835,25.4964,-8.1386,-5.1149
2026-07-20T16:55:41.851,25.5221,-7.9623,-5.2128
2026-07-20T16:55:41.851,25.5221,-7.9232,-5.0366
2026-07-20T16:55:41.869,25.5221,-8.0994,-5.1932
2026-07-20T16:55:41.886,25.5415,-7.7665,-5.1541
2026-07-20T16:55:41.886,25.5415,-8.1777,-5.0757
2026-07-20T16:55:41.905,25.5729,-8.1581,-5.252
2026-07-20T16:55:41.914,25.5729,-7.8644,-5.1932
2026-07-20T16:55:41.914,25.5729,-7.9819,-5.0757
2026-07-20T16:55:41.931,25.6033,-8.0602,-5.2128
2026-07-20T16:55:41.945,25.6048,-7.8448,-5.2715
2026-07-20T16:55:41.945,25.6048,-7.884,-4.9778
2026-07-20T16:55:41.961,25.6204,-7.9623,-5.2324
2026-07-20T16:55:41.961,25.6311,-7.7665,-5.252
2026-07-20T16:55:41.977,25.6311,-8.0406,-4.9974
2026-07-20T16:55:41.993,25.6521,-8.1777,-5.1932
2026-07-20T16:55:41.993,25.6521,-7.7665,-5.1932
2026-07-20T16:55:42.009,25.6681,-8.0015,-5.0562
2026-07-20T16:55:42.024,25.6681,-8.0602,-5.2715
2026-07-20T16:55:42.024,25.684,-7.6882,-5.2128
2026-07-20T16:55:42.040,25.7066,-8.0015,-5.0366
2026-07-20T16:55:42.040,25.7066,-7.9232,-5.2324
2026-07-20T16:55:42.064,25.7323,-7.884,-5.0562
