wall_time,elapsed_s,F1_N,F2_N
2026-07-21T15:40:44.042,0.1041,0.3062,1.9861
2026-07-21T15:40:44.042,0.1041,0.365,2.084
2026-07-21T15:40:44.054,0.1041,0.4041,2.1427
2026-07-21T15:40:44.058,0.1196,0.4041,2.2602
2026-07-21T15:40:44.074,0.1347,0.4433,2.4364
2026-07-21T15:40:44.080,0.1465,0.4825,2.6714
2026-07-21T15:40:44.090,0.166,0.5021,3.0043
2026-07-21T15:40:44.090,0.1779,0.6,3.298
2026-07-21T15:40:44.106,0.1958,0.737,3.7092
2026-07-21T15:40:44.121,0.1958,0.9328,4.277
2026-07-21T15:40:44.145,0.2523,1.0307,4.7861
2026-07-21T15:40:44.153,0.2523,1.1482,5.1386
2026-07-21T15:40:44.156,0.2523,1.4223,5.726
2026-07-21T15:40:44.158,0.2643,1.6377,6.3526
2026-07-21T15:40:44.173,0.2643,1.8531,7.0575
2026-07-21T15:40:44.188,0.2742,2.2056,8.1736
2026-07-21T15:40:44.200,0.2742,2.558,9.4268
2026-07-21T15:40:44.200,0.2892,2.9692,10.9149
2026-07-21T15:40:44.220,0.2972,3.5566,12.5401
2026-07-21T15:40:44.237,0.3072,4.1441,14.1849
2026-07-21T15:40:44.237,0.3124,4.8686,15.7905
2026-07-21T15:40:44.249,0.3124,5.5147,17.2395
2026-07-21T15:40:44.249,0.3124,6.1609,18.5906
2026-07-21T15:40:44.267,0.321,6.7679,20.0983
2026-07-21T15:40:44.276,0.3371,7.2183,21.8018
2026-07-21T15:40:44.281,0.3527,7.8448,23.8382
2026-07-21T15:40:44.295,0.3527,8.5302,25.9921
2026-07-21T15:40:44.306,0.3725,9.2938,28.2635
2026-07-21T15:40:44.318,0.3768,10.0379,30.6915
2026-07-21T15:40:44.328,0.3768,10.8407,33.374
2026-07-21T15:40:44.328,0.3845,11.6239,36.1545
2026-07-21T15:40:44.351,0.3845,12.368,38.7392
2026-07-21T15:40:44.361,0.3845,12.8771,40.6189
2026-07-21T15:40:44.366,0.3845,13.4058,42.1266
2026-07-21T15:40:44.375,0.3966,13.8953,43.4581
2026-07-21T15:40:44.391,0.4003,14.3456,44.7309
2026-07-21T15:40:44.393,0.4003,14.6394,46.1015
2026-07-21T15:40:44.406,0.4204,14.8743,47.5113
2026-07-21T15:40:44.406,0.4204,14.9331,48.5295
2026-07-21T15:40:44.426,0.4274,13.8757,49.6261
2026-07-21T15:40:44.438,0.4316,12.4463,50.6443
2026-07-21T15:40:44.438,0.4316,12.6225,51.2904
2026-07-21T15:40:44.454,0.4316,12.8771,51.8974
2026-07-21T15:40:44.470,0.448,13.0729,52.3674
2026-07-21T15:40:44.474,0.4644,13.347,52.8961
2026-07-21T15:40:44.485,0.4719,13.5624,53.4639
2026-07-21T15:40:44.485,0.4947,13.7191,53.973
2026-07-21T15:40:44.502,0.4947,13.8561,54.3254
2026-07-21T15:40:44.502,0.5053,13.9932,54.6192
2026-07-21T15:40:44.526,0.5104,14.3261,54.7954
2026-07-21T15:40:44.534,0.5276,14.4827,54.9325
2026-07-21T15:40:44.548,0.5276,14.6785,54.8737
2026-07-21T15:40:44.548,0.5418,14.9135,54.7954
2026-07-21T15:40:44.564,0.5418,15.0897,54.815
2026-07-21T15:40:44.574,0.5575,15.2855,54.9325
2026-07-21T15:40:44.581,0.5575,15.5988,55.0304
2026-07-21T15:40:44.595,0.5732,15.8338,55.1478
2026-07-21T15:40:44.595,0.596,16.1471,55.2849
2026-07-21T15:40:44.611,0.596,16.48,55.5003
2026-07-21T15:40:44.611,0.6046,16.9695,55.7548
2026-07-21T15:40:44.637,0.6277,17.459,56.0486
2026-07-21T15:40:44.642,0.6277,17.8702,56.5381
2026-07-21T15:40:44.658,0.6277,18.066,56.8709
2026-07-21T15:40:44.658,0.656,18.3793,57.38
2026-07-21T15:40:44.675,0.656,18.5555,57.5563
2026-07-21T15:40:44.681,0.656,18.6338,57.7912
2026-07-21T15:40:44.690,0.6838,18.7905,58.0066
2026-07-21T15:40:44.706,0.6838,18.9863,58.2612
2026-07-21T15:40:44.710,0.6838,19.1625,58.5157
2026-07-21T15:40:44.721,0.7096,19.1625,58.692
2026-07-21T15:40:44.737,0.7135,19.1625,58.7311
2026-07-21T15:40:44.737,0.7309,19.1625,58.829
2026-07-21T15:40:44.753,0.7309,19.1625,58.8878
2026-07-21T15:40:44.763,0.7309,19.2408,58.9857
2026-07-21T15:40:44.775,0.7622,19.3975,59.1423
2026-07-21T15:40:44.784,0.7622,19.5541,59.1815
2026-07-21T15:40:44.784,0.7745,19.6912,59.2011
2026-07-21T15:40:44.800,0.7947,19.9066,59.299
2026-07-21T15:40:44.816,0.7947,20.0436,59.3381
2026-07-21T15:40:44.816,0.7947,20.2786,59.4752
2026-07-21T15:40:44.839,0.8257,20.5332,59.6906
2026-07-21T15:40:44.839,0.8257,20.7094,59.9647
2026-07-21T15:40:44.848,0.8277,20.8269,60.1997
2026-07-21T15:40:44.864,0.8515,20.9052,60.4346
2026-07-21T15:40:44.875,0.8535,21.0423,60.7088
2026-07-21T15:40:44.881,0.8729,21.1793,61.0025
2026-07-21T15:40:44.895,0.8729,21.336,61.4137
2026-07-21T15:40:44.907,0.8729,21.5514,61.6682
2026-07-21T15:40:44.911,0.9043,21.6884,61.9228
2026-07-21T15:40:44.926,0.9102,21.8647,62.1773
2026-07-21T15:40:44.926,0.9102,22.08,62.471
2026-07-21T15:40:44.943,0.9277,22.3542,62.5885
2026-07-21T15:40:44.958,0.9377,22.5304,62.7452
2026-07-21T15:40:44.964,0.9377,22.7262,62.941
2026-07-21T15:40:44.978,0.9617,22.8045,63.2151
2026-07-21T15:40:44.981,0.9617,22.9808,63.313
2026-07-21T15:40:44.991,0.9673,22.9416,63.548
2026-07-21T15:40:45.006,0.983,23.0591,63.548
2026-07-21T15:40:45.015,0.983,23.1374,63.6263
2026-07-21T15:40:45.021,1.0144,23.2157,63.6655
2026-07-21T15:40:45.037,1.0144,23.3528,63.783
2026-07-21T15:40:45.037,1.0223,23.4703,63.8417
2026-07-21T15:40:45.052,1.0304,23.6857,63.9592
2026-07-21T15:40:45.068,1.0472,23.8815,64.0375
2026-07-21T15:40:45.076,1.0472,23.999,64.2137
2026-07-21T15:40:45.084,1.0758,24.0577,64.3116
2026-07-21T15:40:45.084,1.0758,24.1752,64.4683
2026-07-21T15:40:45.101,1.0781,24.3514,64.5466
2026-07-21T15:40:45.116,1.0938,24.4493,64.7816
2026-07-21T15:40:45.116,1.0938,24.5081,64.9382
2026-07-21T15:40:45.132,1.0938,24.606,65.0557
2026-07-21T15:40:45.147,1.1277,24.5472,65.2124
2026-07-21T15:40:45.147,1.1329,24.4689,65.1928
2026-07-21T15:40:45.176,1.1571,24.5472,65.1536
2026-07-21T15:40:45.176,1.1571,24.3514,65.0557
2026-07-21T15:40:45.190,1.1571,24.4885,65.0165
2026-07-21T15:40:45.197,1.1768,24.6647,65.0361
2026-07-21T15:40:45.197,1.1768,24.7626,65.0753
2026-07-21T15:40:45.211,1.1768,24.8605,64.9774
2026-07-21T15:40:45.228,1.2043,24.8997,64.8991
2026-07-21T15:40:45.230,1.2043,24.978,64.8795
2026-07-21T15:40:45.242,1.2279,24.8018,64.9774
2026-07-21T15:40:45.256,1.2279,24.7626,64.8795
2026-07-21T15:40:45.258,1.2517,24.5864,64.8012
2026-07-21T15:40:45.277,1.2517,24.4689,64.6837
2026-07-21T15:40:45.281,1.2579,24.3906,64.6837
2026-07-21T15:40:45.290,1.2676,24.3123,64.6053
2026-07-21T15:40:45.290,1.2676,24.3318,64.5858
2026-07-21T15:40:45.312,1.2956,24.2535,64.3508
2026-07-21T15:40:45.321,1.2991,24.2927,64.0571
2026-07-21T15:40:45.337,1.3219,24.2731,63.8221
2026-07-21T15:40:45.337,1.3219,24.2731,63.783
2026-07-21T15:40:45.354,1.3234,24.5081,63.8221
2026-07-21T15:40:45.371,1.3366,24.4102,63.7438
2026-07-21T15:40:45.377,1.3482,24.4493,63.6655
2026-07-21T15:40:45.390,1.362,24.4885,63.5676
2026-07-21T15:40:45.390,1.362,24.4493,63.4109
2026-07-21T15:40:45.402,1.3779,24.4102,63.3326
2026-07-21T15:40:45.416,1.3933,24.3906,63.3522
2026-07-21T15:40:45.416,1.3933,24.4689,63.4501
2026-07-21T15:40:45.432,1.4089,24.5081,63.5088
2026-07-21T15:40:45.447,1.4179,24.5864,63.4892
2026-07-21T15:40:45.463,1.4305,24.7039,63.4892
2026-07-21T15:40:45.463,1.4409,24.7039,63.313
2026-07-21T15:40:45.479,1.4566,24.6843,63.2347
2026-07-21T15:40:45.484,1.4566,24.7039,63.176
2026-07-21T15:40:45.495,1.4566,24.743,63.1564
2026-07-21T15:40:45.510,1.4738,24.8214,63.2151
2026-07-21T15:40:45.510,1.4892,24.8801,63.1172
2026-07-21T15:40:45.527,1.5048,24.978,63.0389
2026-07-21T15:40:45.527,1.5048,25.0759,63.0193
2026-07-21T15:40:45.543,1.5048,25.1151,63.0585
2026-07-21T15:40:45.558,1.5358,25.0759,62.9997
2026-07-21T15:40:45.558,1.5358,25.1151,63.078
2026-07-21T15:40:45.578,1.5607,25.1542,63.1564
2026-07-21T15:40:45.582,1.5607,25.2326,63.2151
2026-07-21T15:40:45.589,1.5681,25.2913,63.2151
2026-07-21T15:40:45.605,1.5831,25.4088,63.1172
2026-07-21T15:40:45.614,1.5831,25.3892,62.9997
2026-07-21T15:40:45.622,1.5989,25.2521,62.8235
2026-07-21T15:40:45.637,1.5989,25.2717,62.7648
2026-07-21T15:40:45.637,1.5989,25.2913,62.7843
2026-07-21T15:40:45.652,1.6325,25.3892,62.7648
2026-07-21T15:40:45.652,1.6372,25.5067,62.7648
2026-07-21T15:40:45.682,1.6558,25.4479,62.6081
2026-07-21T15:40:45.686,1.6558,25.3305,62.5689
2026-07-21T15:40:45.691,1.6776,25.2521,62.4319
2026-07-21T15:40:45.701,1.6776,25.213,61.8445
2026-07-21T15:40:45.716,1.6934,25.3305,61.7074
2026-07-21T15:40:45.731,1.6934,25.4088,61.727
2026-07-21T15:40:45.731,1.6934,25.5263,61.7661
2026-07-21T15:40:45.747,1.7283,25.6437,61.7661
2026-07-21T15:40:45.747,1.7283,25.82,61.7074
2026-07-21T15:40:45.770,1.7405,25.8983,61.5703
2026-07-21T15:40:45.778,1.7405,25.8983,61.5116
2026-07-21T15:40:45.787,1.7566,25.8591,61.4528
2026-07-21T15:40:45.794,1.7797,25.82,61.5507
2026-07-21T15:40:45.794,1.7797,25.8787,61.5899
2026-07-21T15:40:45.810,1.8033,25.8787,61.6682
2026-07-21T15:40:45.826,1.8033,25.9375,61.6682
2026-07-21T15:40:45.833,1.8108,25.8591,61.6878
2026-07-21T15:40:45.843,1.8285,25.8983,61.5703
2026-07-21T15:40:45.857,1.8285,25.9375,61.4528
2026-07-21T15:40:45.864,1.8353,26.0354,61.4333
2026-07-21T15:40:45.879,1.8505,26.1137,61.5899
2026-07-21T15:40:45.889,1.8505,26.1724,61.492
2026-07-21T15:40:45.899,1.8662,26.1724,61.6095
2026-07-21T15:40:45.904,1.8662,26.2899,61.5703
2026-07-21T15:40:45.920,1.8976,26.427,61.6095
2026-07-21T15:40:45.920,1.8976,26.6032,61.6878
2026-07-21T15:40:45.936,1.8976,26.6815,61.7857
2026-07-21T15:40:45.951,1.9257,26.7011,61.7857
2026-07-21T15:40:45.951,1.9291,26.8382,61.864
2026-07-21T15:40:45.967,1.9518,27.1906,62.1578
2026-07-21T15:40:45.971,1.9518,27.4452,62.3927
2026-07-21T15:40:45.985,1.9586,27.6997,62.5689
2026-07-21T15:40:45.998,1.9776,27.7389,62.6669
2026-07-21T15:40:46.005,1.9776,27.7585,62.7256
2026-07-21T15:40:46.014,1.9935,27.9151,62.9214
2026-07-21T15:40:46.022,1.9935,28.1305,63.078
2026-07-21T15:40:46.031,2.0072,28.2676,63.3326
2026-07-21T15:40:46.047,2.0291,28.4046,63.4109
2026-07-21T15:40:46.047,2.0334,28.5613,63.5676
2026-07-21T15:40:46.061,2.0555,28.8942,63.8025
2026-07-21T15:40:46.080,2.056,29.3445,64.0179
2026-07-21T15:40:46.087,2.056,29.697,64.2333
2026-07-21T15:40:46.097,2.0704,29.7949,64.3704
2026-07-21T15:40:46.108,2.0834,30.069,64.6445
2026-07-21T15:40:46.110,2.0862,30.3431,64.8991
2026-07-21T15:40:46.124,2.1019,30.5781,65.1928
2026-07-21T15:40:46.140,2.1105,30.6368,65.5256
2026-07-21T15:40:46.140,2.1291,30.7152,65.7019
2026-07-21T15:40:46.155,2.1291,30.9501,65.8977
2026-07-21T15:40:46.164,2.1501,31.2243,66.1326
2026-07-21T15:40:46.180,2.1501,31.5963,66.348
2026-07-21T15:40:46.188,2.1596,32.0662,66.6417
2026-07-21T15:40:46.188,2.1805,32.5753,67.1117
2026-07-21T15:40:46.204,2.1805,32.869,67.6208
2026-07-21T15:40:46.218,2.2084,33.2019,68.0711
2026-07-21T15:40:46.223,2.2084,33.3781,68.3844
2026-07-21T15:40:46.234,2.2119,33.5348,68.6977
2026-07-21T15:40:46.250,2.2364,33.6914,69.0502
2026-07-21T15:40:46.260,2.2364,33.6719,69.2851
2026-07-21T15:40:46.266,2.2439,33.6327,69.4026
2026-07-21T15:40:46.266,2.2595,33.5544,69.618
2026-07-21T15:40:46.290,2.2675,33.4956,69.7355
2026-07-21T15:40:46.297,2.2675,33.5348,69.7159
2026-07-21T15:40:46.313,2.2905,33.6523,69.6963
2026-07-21T15:40:46.313,2.2905,33.7698,69.7551
2026-07-21T15:40:46.329,2.3066,33.7502,69.7747
2026-07-21T15:40:46.331,2.3066,33.6914,69.8726
2026-07-21T15:40:46.344,2.3223,33.6914,70.1075
2026-07-21T15:40:46.360,2.3381,33.6914,70.2838
2026-07-21T15:40:46.360,2.3381,33.6719,70.46
2026-07-21T15:40:46.383,2.3636,33.4565,70.5579
2026-07-21T15:40:46.383,2.3636,33.4956,70.5187
2026-07-21T15:40:46.397,2.3636,33.4956,70.4796
2026-07-21T15:40:46.397,2.3898,33.5348,70.3229
2026-07-21T15:40:46.417,2.3898,33.4565,70.1271
2026-07-21T15:40:46.424,2.4023,33.4369,70.1271
2026-07-21T15:40:46.439,2.4177,33.5348,70.1271
2026-07-21T15:40:46.443,2.4199,33.5152,70.1663
2026-07-21T15:40:46.456,2.4409,33.4956,70.1271
2026-07-21T15:40:46.456,2.4409,33.4369,70.0292
2026-07-21T15:40:46.474,2.4409,33.2998,69.8334
2026-07-21T15:40:46.486,2.4661,33.2215,69.7747
2026-07-21T15:40:46.494,2.4661,33.0257,69.7159
2026-07-21T15:40:46.506,2.4799,33.0061,69.7355
2026-07-21T15:40:46.520,2.4934,32.9474,69.7747
2026-07-21T15:40:46.524,2.4956,32.967,69.8334
2026-07-21T15:40:46.533,2.5123,32.9474,69.8726
2026-07-21T15:40:46.547,2.5123,32.9082,69.853
2026-07-21T15:40:46.556,2.5354,32.9278,69.8922
2026-07-21T15:40:46.566,2.5354,32.8495,69.8334
2026-07-21T15:40:46.566,2.559,32.7907,69.8334
2026-07-21T15:40:46.583,2.559,32.7711,69.7551
2026-07-21T15:40:46.597,2.5833,32.7907,69.853
2026-07-21T15:40:46.597,2.5833,32.9865,69.9509
2026-07-21T15:40:46.618,2.5906,33.0649,70.1663
2026-07-21T15:40:46.628,2.6084,33.2215,70.2446
2026-07-21T15:40:46.628,2.6084,33.1628,70.1271
2026-07-21T15:40:46.644,2.6292,33.2411,69.9705
2026-07-21T15:40:46.653,2.6384,33.3586,69.8138
2026-07-21T15:40:46.670,2.6384,33.3781,69.7551
2026-07-21T15:40:46.678,2.6543,33.2998,69.7551
2026-07-21T15:40:46.683,2.6543,33.2802,69.7355
2026-07-21T15:40:46.697,2.6709,33.2411,69.8334
2026-07-21T15:40:46.708,2.6901,33.2019,69.9509
2026-07-21T15:40:46.708,2.6932,33.2411,70.1271
2026-07-21T15:40:46.724,2.6932,33.339,70.3033
2026-07-21T15:40:46.740,2.7133,33.4173,70.4404
2026-07-21T15:40:46.746,2.7175,33.5544,70.5383
2026-07-21T15:40:46.757,2.7332,33.6914,70.5775
2026-07-21T15:40:46.767,2.7332,34.0635,70.5775
2026-07-21T15:40:46.783,2.7646,34.3572,70.5971
2026-07-21T15:40:46.787,2.7646,34.4159,70.695
2026-07-21T15:40:46.787,2.7646,34.4159,70.695
2026-07-21T15:40:46.805,2.7911,34.4943,70.695
2026-07-21T15:40:46.818,2.7911,34.4747,70.7145
2026-07-21T15:40:46.818,2.8156,34.5334,70.695
2026-07-21T15:40:46.834,2.8156,34.4747,70.7145
2026-07-21T15:40:46.850,2.8195,34.4551,70.6362
2026-07-21T15:40:46.857,2.8295,34.3963,70.5775
2026-07-21T15:40:46.869,2.8295,34.3572,70.4992
2026-07-21T15:40:46.873,2.8607,34.2789,70.5187
2026-07-21T15:40:46.883,2.8607,34.3768,70.6754
2026-07-21T15:40:46.898,2.8678,34.6313,70.5383
2026-07-21T15:40:46.903,2.8847,34.8075,70.6754
2026-07-21T15:40:46.914,2.8916,35.0033,70.695
2026-07-21T15:40:46.921,2.9075,35.2383,70.7929
2026-07-21T15:40:46.938,2.9075,35.4145,70.9691
2026-07-21T15:40:46.945,2.9075,35.4733,71.1062
2026-07-21T15:40:46.945,2.9356,35.4341,71.1845
2026-07-21T15:40:46.961,2.9398,35.2579,71.1257
2026-07-21T15:40:46.977,2.9542,35.1796,71.1257
2026-07-21T15:40:46.989,2.9542,35.0425,70.8908
2026-07-21T15:40:46.996,2.9743,34.9054,70.6166
2026-07-21T15:40:47.008,2.9858,34.7096,70.3425
2026-07-21T15:40:47.008,2.9858,34.4943,70.088
2026-07-21T15:40:47.028,3.0129,34.4551,70.0488
2026-07-21T15:40:47.028,3.0152,34.3572,69.9509
2026-07-21T15:40:47.048,3.033,34.3376,69.9313
2026-07-21T15:40:47.058,3.033,34.1222,69.9117
2026-07-21T15:40:47.069,3.033,34.1418,70.1467
2026-07-21T15:40:47.083,3.0487,34.1418,70.1075
2026-07-21T15:40:47.087,3.0647,34.181,69.9117
2026-07-21T15:40:47.087,3.0657,34.0635,69.6376
2026-07-21T15:40:47.102,3.0813,33.9068,69.5984
2026-07-21T15:40:47.119,3.0898,33.9264,69.5789
2026-07-21T15:40:47.123,3.1125,33.9264,69.5593
2026-07-21T15:40:47.135,3.1125,33.9068,69.481
2026-07-21T15:40:47.149,3.1125,33.7893,69.3439
2026-07-21T15:40:47.157,3.1298,33.7502,69.3243
2026-07-21T15:40:47.166,3.1444,33.4956,69.246
2026-07-21T15:40:47.166,3.1444,33.2215,69.2068
2026-07-21T15:40:47.183,3.1607,32.9474,69.1677
2026-07-21T15:40:47.196,3.1607,32.8886,69.2264
2026-07-21T15:40:47.198,3.1915,32.7907,69.1677
2026-07-21T15:40:47.214,3.1915,32.7711,69.0698
2026-07-21T15:40:47.229,3.2092,32.8299,68.9327
2026-07-21T15:40:47.235,3.2231,32.967,69.011
2026-07-21T15:40:47.245,3.2231,33.104,69.011
2026-07-21T15:40:47.256,3.2299,33.1628,68.9914
2026-07-21T15:40:47.263,3.2389,33.1823,68.9719
2026-07-21T15:40:47.277,3.2547,33.2019,68.9327
2026-07-21T15:40:47.283,3.2547,33.2215,68.9719
2026-07-21T15:40:47.292,3.2703,33.2215,69.0306
2026-07-21T15:40:47.308,3.2703,33.1823,69.0698
2026-07-21T15:40:47.308,3.2861,33.0453,68.9719
2026-07-21T15:40:47.324,3.3017,32.9278,68.7173
2026-07-21T15:40:47.324,3.3017,32.6537,68.4432
2026-07-21T15:40:47.342,3.3261,32.5949,68.2865
2026-07-21T15:40:47.355,3.3299,32.497,68.1103
2026-07-21T15:40:47.371,3.3523,32.5166,67.9732
2026-07-21T15:40:47.371,3.3523,32.5753,67.9537
2026-07-21T15:40:47.387,3.3592,32.5753,67.9341
2026-07-21T15:40:47.403,3.3814,32.4579,67.9145
2026-07-21T15:40:47.406,3.3814,32.2816,67.9732
2026-07-21T15:40:47.413,3.3972,32.2229,67.8753
2026-07-21T15:40:47.424,3.3972,32.1837,67.7578
2026-07-21T15:40:47.435,3.4132,32.3208,67.7187
2026-07-21T15:40:47.446,3.4132,32.4187,67.7383
2026-07-21T15:40:47.451,3.4383,32.3795,67.6404
2026-07-21T15:40:47.467,3.4383,32.3208,67.562
2026-07-21T15:40:47.467,3.4603,32.4187,67.6599
2026-07-21T15:40:47.484,3.4603,32.4383,67.6012
2026-07-21T15:40:47.492,3.4603,32.5753,67.6208
2026-07-21T15:40:47.514,3.4763,32.4187,67.4641
2026-07-21T15:40:47.514,3.492,32.3795,67.3662
2026-07-21T15:40:47.530,3.5076,32.3208,67.19
2026-07-21T15:40:47.530,3.5076,32.0467,66.8963
2026-07-21T15:40:47.546,3.5076,31.8508,66.7005
2026-07-21T15:40:47.561,3.536,31.6355,66.4851
2026-07-21T15:40:47.561,3.5401,31.5571,66.3676
2026-07-21T15:40:47.585,3.563,31.4397,66.3872
2026-07-21T15:40:47.585,3.563,31.4984,66.4264
2026-07-21T15:40:47.594,3.5843,31.6746,66.6026
2026-07-21T15:40:47.609,3.5863,31.7725,66.7592
2026-07-21T15:40:47.617,3.5863,31.7529,66.6026
2026-07-21T15:40:47.624,3.6098,31.6159,66.4068
2026-07-21T15:40:47.638,3.6116,31.4592,66.2893
2026-07-21T15:40:47.646,3.6312,31.4592,66.1914
2026-07-21T15:40:47.656,3.6341,31.4201,66.2697
2026-07-21T15:40:47.665,3.6341,31.4592,66.3872
2026-07-21T15:40:47.678,3.6502,31.3809,66.4264
2026-07-21T15:40:47.688,3.6502,31.283,66.348
2026-07-21T15:40:47.704,3.6827,31.1851,66.2697
2026-07-21T15:40:47.704,3.6827,31.0285,66.0935
2026-07-21T15:40:47.718,3.6827,30.9501,66.0347
2026-07-21T15:40:47.720,3.6985,30.8326,65.8977
2026-07-21T15:40:47.736,3.6985,30.6368,65.7998
2026-07-21T15:40:47.752,3.7317,30.6564,65.7802
2026-07-21T15:40:47.752,3.7346,30.6173,65.8977
2026-07-21T15:40:47.752,3.7346,30.5781,65.7998
2026-07-21T15:40:47.767,3.7579,30.4606,65.7215
2026-07-21T15:40:47.788,3.761,30.3431,65.5061
2026-07-21T15:40:47.799,3.7856,30.4019,65.369
2026-07-21T15:40:47.799,3.7856,30.4606,65.3103
2026-07-21T15:40:47.815,3.7925,30.3627,65.2515
2026-07-21T15:40:47.815,3.8081,30.2452,65.1536
2026-07-21T15:40:47.839,3.8162,30.1277,65.1732
2026-07-21T15:40:47.846,3.8429,30.0494,65.134
2026-07-21T15:40:47.862,3.8449,29.8732,65.0361
2026-07-21T15:40:47.870,3.8477,29.834,64.8207
2026-07-21T15:40:47.880,3.8477,29.6382,64.6837
2026-07-21T15:40:47.893,3.8713,29.5012,64.527
2026-07-21T15:40:47.899,3.8718,29.3641,64.4095
2026-07-21T15:40:47.910,3.8943,29.3641,64.3704
2026-07-21T15:40:47.915,3.8967,29.3249,64.2725
2026-07-21T15:40:47.930,3.8967,29.3053,64.2137
2026-07-21T15:40:47.942,3.9183,29.1879,64.2137
2026-07-21T15:40:47.942,3.9183,29.0116,64.155
2026-07-21T15:40:47.956,3.943,28.855,64.0571
2026-07-21T15:40:47.956,3.943,28.6592,63.9592
2026-07-21T15:40:47.980,3.9548,28.483,63.7634
2026-07-21T15:40:47.988,3.966,28.4046,63.6263
2026-07-21T15:40:47.997,3.9745,28.2284,63.3913
2026-07-21T15:40:48.007,3.9745,28.2284,63.176
2026-07-21T15:40:48.020,3.9818,28.3263,63.0389
2026-07-21T15:40:48.028,3.9995,28.483,63.0585
2026-07-21T15:40:48.035,4.02,28.5221,63.0585
2026-07-21T15:40:48.053,4.02,28.483,63.0585
2026-07-21T15:40:48.053,4.02,28.3655,63.078
2026-07-21T15:40:48.067,4.0443,28.3655,63.0193
2026-07-21T15:40:48.074,4.0443,28.4046,62.9214
2026-07-21T15:40:48.086,4.0623,28.5025,62.9018
2026-07-21T15:40:48.098,4.0623,28.7179,62.8431
2026-07-21T15:40:48.116,4.0919,28.8746,62.8431
2026-07-21T15:40:48.116,4.0919,29.0116,62.8627
2026-07-21T15:40:48.116,4.0919,29.2074,62.8822
2026-07-21T15:40:48.146,4.1218,29.1879,62.8822
2026-07-21T15:40:48.146,4.1239,29.1487,62.706
2026-07-21T15:40:48.162,4.1395,29.0508,62.6081
2026-07-21T15:40:48.162,4.1395,28.9725,62.5298
2026-07-21T15:40:48.180,4.1395,29.0116,62.6473
2026-07-21T15:40:48.193,4.1708,29.1879,62.706
2026-07-21T15:40:48.193,4.1708,29.1487,62.8039
2026-07-21T15:40:48.209,4.1791,29.2466,62.8627
2026-07-21T15:40:48.218,4.1876,29.1291,62.7256
2026-07-21T15:40:48.224,4.2054,29.2074,62.6669
2026-07-21T15:40:48.233,4.218,29.4033,62.5885
2026-07-21T15:40:48.241,4.218,29.5599,62.6669
2026-07-21T15:40:48.259,4.2334,29.6578,62.6277
2026-07-21T15:40:48.259,4.2576,29.7753,62.6669
2026-07-21T15:40:48.272,4.2576,29.7165,62.6669
2026-07-21T15:40:48.287,4.2576,29.5795,62.706
2026-07-21T15:40:48.298,4.2807,29.4424,62.6277
2026-07-21T15:40:48.303,4.2807,29.3641,62.5494
2026-07-21T15:40:48.319,4.2807,29.2662,62.4515
2026-07-21T15:40:48.319,4.3103,29.09,62.3731
2026-07-21T15:40:48.334,4.3133,28.9725,62.2752
2026-07-21T15:40:48.354,4.3394,28.8354,62.2165
2026-07-21T15:40:48.354,4.3394,28.8354,62.1186
2026-07-21T15:40:48.367,4.3437,28.9529,62.0598
2026-07-21T15:40:48.367,4.3594,29.1291,62.1578
2026-07-21T15:40:48.387,4.3594,29.3837,62.099
2026-07-21T15:40:48.397,4.3594,29.4033,62.1186
2026-07-21T15:40:48.413,4.3909,29.462,62.1773
2026-07-21T15:40:48.413,4.3909,29.4424,62.1382
2026-07-21T15:40:48.429,4.4173,29.5599,62.2165
2026-07-21T15:40:48.429,4.4173,29.3837,62.1773
2026-07-21T15:40:48.451,4.4228,29.227,62.099
2026-07-21T15:40:48.451,4.4429,29.0116,62.0011
2026-07-21T15:40:48.461,4.4429,28.8158,62.0207
2026-07-21T15:40:48.476,4.4543,28.7571,62.0207
2026-07-21T15:40:48.492,4.47,28.6983,62.0011
2026-07-21T15:40:48.497,4.4744,28.7571,61.9619
2026-07-21T15:40:48.508,4.4744,28.855,62.0207
2026-07-21T15:40:48.508,4.4859,28.9921,62.0598
2026-07-21T15:40:48.528,4.5017,29.1879,62.1578
2026-07-21T15:40:48.539,4.5173,29.5012,62.334
2026-07-21T15:40:48.539,4.5173,29.6186,62.4319
2026-07-21T15:40:48.555,4.5281,29.5991,62.5102
2026-07-21T15:40:48.571,4.5341,29.462,62.6669
2026-07-21T15:40:48.571,4.5498,29.3249,62.7256
2026-07-21T15:40:48.588,4.5652,29.3837,62.9214
2026-07-21T15:40:48.588,4.5652,29.5599,63.0389
2026-07-21T15:40:48.603,4.5833,29.5012,63.078
2026-07-21T15:40:48.619,4.5833,29.4228,62.9997
2026-07-21T15:40:48.630,4.5966,29.4033,63.0976
2026-07-21T15:40:48.637,4.6186,29.4033,63.313
2026-07-21T15:40:48.637,4.6186,29.462,63.4109
2026-07-21T15:40:48.650,4.644,29.2662,63.3718
2026-07-21T15:40:48.666,4.644,29.1879,63.1955
2026-07-21T15:40:48.672,4.6502,29.1683,63.2151
2026-07-21T15:40:48.688,4.6701,29.227,63.2934
2026-07-21T15:40:48.704,4.676,29.4424,63.4697
2026-07-21T15:40:48.704,4.6953,29.6382,63.7438
2026-07-21T15:40:48.714,4.6953,29.6774,64.0767
2026-07-21T15:40:48.724,4.6953,29.6578,64.3704
2026-07-21T15:40:48.730,4.7242,29.4816,64.4095
2026-07-21T15:40:48.749,4.7262,29.2662,64.2333
2026-07-21T15:40:48.749,4.7262,29.0508,64.155
2026-07-21T15:40:48.768,4.7423,28.9725,64.1942
2026-07-21T15:40:48.780,4.755,29.1487,64.4291
2026-07-21T15:40:48.789,4.7756,29.4033,64.6053
2026-07-21T15:40:48.796,4.7776,29.5991,64.6053
2026-07-21T15:40:48.809,4.7786,29.5403,64.5074
2026-07-21T15:40:48.827,4.7865,29.4228,64.2921
2026-07-21T15:40:48.827,4.7865,29.2858,64.1942
2026-07-21T15:40:48.838,4.8234,29.1879,64.1942
2026-07-21T15:40:48.840,4.8234,29.0704,64.155
2026-07-21T15:40:48.856,4.8234,29.1683,64.3508
2026-07-21T15:40:48.865,4.8366,29.3445,64.6053
2026-07-21T15:40:48.877,4.8498,29.6578,64.997
2026-07-21T15:40:48.890,4.8654,29.7557,65.2319
2026-07-21T15:40:48.890,4.8654,29.5795,65.1536
2026-07-21T15:40:48.903,4.882,29.3445,64.9578
2026-07-21T15:40:48.919,4.8982,29.2466,64.9186
2026-07-21T15:40:48.919,4.9057,29.3445,64.9186
2026-07-21T15:40:48.936,4.9057,29.4228,64.8795
2026-07-21T15:40:48.952,4.9273,29.3445,64.6445
2026-07-21T15:40:48.959,4.9298,29.227,64.3704
2026-07-21T15:40:48.970,4.9528,29.0704,64.2529
2026-07-21T15:40:48.979,4.9528,28.9921,64.1746
2026-07-21T15:40:48.989,4.9764,29.0508,64.0767
2026-07-21T15:40:48.998,4.9764,28.8942,64.0375
2026-07-21T15:40:49.006,4.9808,28.8354,64.0962
2026-07-21T15:40:49.015,5.005,28.7375,64.1354
2026-07-21T15:40:49.015,5.005,28.6592,64.1158
2026-07-21T15:40:49.040,5.0235,28.6004,64.1354
2026-07-21T15:40:49.048,5.0235,28.5417,64.1354
2026-07-21T15:40:49.060,5.0333,28.62,64.3116
2026-07-21T15:40:49.077,5.0393,28.7767,64.4487
2026-07-21T15:40:49.077,5.0393,28.8158,64.4487
2026-07-21T15:40:49.089,5.0602,28.6983,64.2529
2026-07-21T15:40:49.093,5.0712,28.4438,63.9788
2026-07-21T15:40:49.109,5.0812,28.3459,63.9396
2026-07-21T15:40:49.125,5.1043,28.2676,64.0179
2026-07-21T15:40:49.125,5.1043,28.1109,64.0767
2026-07-21T15:40:49.135,5.1083,28.0522,63.9788
2026-07-21T15:40:49.154,5.1191,28.0326,64.0375
2026-07-21T15:40:49.160,5.1191,28.2284,64.0962
2026-07-21T15:40:49.164,5.1362,28.4634,64.3312
2026-07-21T15:40:49.173,5.1509,28.62,64.7816
2026-07-21T15:40:49.185,5.1669,28.8158,64.997
2026-07-21T15:40:49.190,5.1669,28.8354,64.9774
2026-07-21T15:40:49.204,5.1828,28.6788,64.762
2026-07-21T15:40:49.221,5.1985,28.4634,64.8599
2026-07-21T15:40:49.221,5.1985,28.3459,64.9382
2026-07-21T15:40:49.242,5.2226,28.3067,65.0557
2026-07-21T15:40:49.252,5.226,28.248,65.1732
2026-07-21T15:40:49.252,5.226,28.1697,65.0557
2026-07-21T15:40:49.269,5.2457,28.1305,64.9186
2026-07-21T15:40:49.276,5.2523,28.0718,64.7816
2026-07-21T15:40:49.291,5.2729,28.0718,64.6445
2026-07-21T15:40:49.299,5.2729,27.9934,64.3312
2026-07-21T15:40:49.315,5.2923,27.8955,64.0375
2026-07-21T15:40:49.317,5.2923,27.778,63.9592
2026-07-21T15:40:49.330,5.2977,27.7976,64.0767
2026-07-21T15:40:49.330,5.308,27.8564,64.4095
2026-07-21T15:40:49.346,5.308,27.9934,64.6249
2026-07-21T15:40:49.351,5.3407,28.0522,64.9578
2026-07-21T15:40:49.362,5.3431,28.2088,65.1732
2026-07-21T15:40:49.378,5.3643,28.1697,65.2319
2026-07-21T15:40:49.390,5.3643,28.0522,65.0949
2026-07-21T15:40:49.397,5.3643,27.9543,64.8795
2026-07-21T15:40:49.409,5.3868,27.778,64.7228
2026-07-21T15:40:49.418,5.3868,27.5431,64.3508
2026-07-21T15:40:49.425,5.4024,27.1319,63.8417
2026-07-21T15:40:49.425,5.4024,26.6228,63.3913
2026-07-21T15:40:49.446,5.4372,26.0745,63.2151
2026-07-21T15:40:49.456,5.4372,25.6242,63.078
2026-07-21T15:40:49.472,5.4372,25.0955,62.7256
2026-07-21T15:40:49.472,5.4503,24.371,62.1969
2026-07-21T15:40:49.491,5.4663,23.5094,61.1983
2026-07-21T15:40:49.491,5.4819,22.0017,59.7297
2026-07-21T15:40:49.504,5.4819,20.6507,57.7325
2026-07-21T15:40:49.520,5.4819,19.515,55.2849
2026-07-21T15:40:49.520,5.4976,18.1443,52.1911
2026-07-21T15:40:49.536,5.5176,16.4604,48.1771
2026-07-21T15:40:49.536,5.5176,14.2869,42.6162
2026-07-21T15:40:49.551,5.5375,11.3106,35.9195
2026-07-21T15:40:49.571,5.5449,7.9427,28.1656
2026-07-21T15:40:49.583,5.5617,3.8112,19.9221
2026-07-21T15:40:49.591,5.5617,1.3049,14.1261
2026-07-21T15:40:49.599,5.5789,0.1692,10.5233
2026-07-21T15:40:49.605,5.5996,-0.3595,8.1736
2026-07-21T15:40:49.615,5.5996,-0.712,6.2155
2026-07-21T15:40:49.630,5.6165,-0.9861,4.2966
2026-07-21T15:40:49.647,5.6396,-1.0057,3.0434
2026-07-21T15:40:49.653,5.6396,-1.0252,2.2798
2026-07-21T15:40:49.653,5.6487,-1.0644,1.8098
2026-07-21T15:40:49.670,5.6487,-1.1623,1.3987
2026-07-21T15:40:49.686,5.6714,-1.4169,1.0266
2026-07-21T15:40:49.691,5.6714,-1.5539,0.8308
2026-07-21T15:40:49.702,5.6824,-1.6518,0.6546
2026-07-21T15:40:49.702,5.6873,-1.7106,0.5567
2026-07-21T15:40:49.709,5.7032,-1.4756,0.4392
2026-07-21T15:40:49.725,5.7032,-0.9273,0.4196
2026-07-21T15:40:49.736,5.7032,-0.4574,0.5958
2026-07-21T15:40:49.749,5.7357,0.0909,0.7525
2026-07-21T15:40:49.757,5.7438,-0.0266,0.4392
2026-07-21T15:40:49.757,5.7438,-0.0658,0.3805
2026-07-21T15:40:49.786,5.7662,0.0517,0.3217
2026-07-21T15:40:49.792,5.7662,0.1496,0.3609
2026-07-21T15:40:49.797,5.7662,0.2083,0.3413
2026-07-21T15:40:49.810,5.7876,0.2083,0.3609
2026-07-21T15:40:49.820,5.7876,0.1888,0.3217
2026-07-21T15:40:49.820,5.8053,0.1888,0.3805
2026-07-21T15:40:49.835,5.8053,0.1104,0.4588
2026-07-21T15:40:49.851,5.828,0.1104,0.3609
2026-07-21T15:40:49.859,5.8291,0.13,0.3805
2026-07-21T15:40:49.871,5.8479,0.2279,0.3805
2026-07-21T15:40:49.871,5.8479,0.0517,0.4
2026-07-21T15:40:49.885,5.8479,0.1104,0.4
2026-07-21T15:40:49.902,5.8678,0.1104,0.4196
2026-07-21T15:40:49.912,5.8765,0.13,0.4196
2026-07-21T15:40:49.914,5.8765,0.1104,0.4
2026-07-21T15:40:49.930,5.896,0.0909,0.4196
2026-07-21T15:40:49.930,5.896,0.0713,0.4196
2026-07-21T15:40:49.950,5.9235,0.1104,0.4196
2026-07-21T15:40:49.950,5.9235,0.0321,0.3609
2026-07-21T15:40:49.963,5.943,0.0909,0.4
2026-07-21T15:40:49.977,5.943,0.0909,0.4588
2026-07-21T15:40:49.994,5.9548,0.0909,0.4
2026-07-21T15:40:49.997,5.9548,0.0517,0.4392
2026-07-21T15:40:50.008,5.977,0.0909,0.4588
2026-07-21T15:40:50.008,5.977,0.0909,0.4392
2026-07-21T15:40:50.031,5.9875,0.13,0.4196
2026-07-21T15:40:50.041,6.0025,0.0125,0.4392
2026-07-21T15:40:50.041,6.0025,0.1104,0.5175
2026-07-21T15:40:50.056,6.0322,0.0713,0.4588
2026-07-21T15:40:50.056,6.034,0.0517,0.4196
2026-07-21T15:40:50.072,6.0497,0.0713,0.4392
2026-07-21T15:40:50.088,6.0497,0.13,0.4588
2026-07-21T15:40:50.096,6.0673,0.0517,0.4392
2026-07-21T15:40:50.119,6.0835,0.1104,0.5371
2026-07-21T15:40:50.121,6.0863,0.0321,0.3609
2026-07-21T15:40:50.136,6.0969,0.0321,0.4392
2026-07-21T15:40:50.137,6.0969,0.0517,0.4392
2026-07-21T15:40:50.150,6.1156,0.0517,0.4979
2026-07-21T15:40:50.150,6.1156,0.0517,0.4392
2026-07-21T15:40:50.169,6.1322,0.0125,0.4392
2026-07-21T15:40:50.169,6.1444,0.0517,0.4588
2026-07-21T15:40:50.186,6.1444,0.0517,0.4392
2026-07-21T15:40:50.198,6.1751,0.0517,0.4
2026-07-21T15:40:50.198,6.1761,0.13,0.4196
2026-07-21T15:40:50.221,6.1919,0.0517,0.4588
2026-07-21T15:40:50.221,6.1919,0.0713,0.4588
2026-07-21T15:40:50.245,6.2075,0.0321,0.4588
2026-07-21T15:40:50.245,6.2075,0.0517,0.4392
2026-07-21T15:40:50.261,6.2362,0.0713,0.4588
2026-07-21T15:40:50.261,6.2362,0.0713,0.4588
2026-07-21T15:40:50.286,6.2557,0.0909,0.4196
2026-07-21T15:40:50.290,6.2557,0.0909,0.4392
2026-07-21T15:40:50.294,6.2703,0.0713,0.4196
2026-07-21T15:40:50.309,6.2703,0.0321,0.4392
2026-07-21T15:40:50.324,6.2937,0.0909,0.4784
2026-07-21T15:40:50.324,6.3034,0.0321,0.4979
2026-07-21T15:40:50.340,6.3034,0.0321,0.4392
2026-07-21T15:40:50.356,6.3325,0.0909,0.4196
2026-07-21T15:40:50.357,6.3325,0.0713,0.4196
2026-07-21T15:40:50.372,6.35,0.0713,0.4979
2026-07-21T15:40:50.372,6.35,0.0321,0.4196
2026-07-21T15:40:50.388,6.3715,0.0321,0.4979
2026-07-21T15:40:50.394,6.3715,0.0321,0.4979
2026-07-21T15:40:50.404,6.3715,0.0321,0.4979
2026-07-21T15:40:50.420,6.3822,0.0517,0.4588
2026-07-21T15:40:50.425,6.3822,0.0909,0.4784
2026-07-21T15:40:50.436,6.3979,0.0713,0.4979
2026-07-21T15:40:50.436,6.4135,0.0517,0.4784
2026-07-21T15:40:50.452,6.4281,0.0517,0.4588
2026-07-21T15:40:50.467,6.4452,0.0713,0.5175
2026-07-21T15:40:50.482,6.4452,0.0517,0.5567
2026-07-21T15:40:50.486,6.4611,0.0517,0.5763
2026-07-21T15:40:50.499,6.4611,0.0713,0.4784
2026-07-21T15:40:50.499,6.4878,0.0713,0.4979
2026-07-21T15:40:50.515,6.4878,0.0517,0.4979
2026-07-21T15:40:50.530,6.4987,0.0321,0.5371
2026-07-21T15:40:50.530,6.5082,0.0517,0.5175
2026-07-21T15:40:50.552,6.5238,0.0909,0.5175
2026-07-21T15:40:50.552,6.5238,0.0321,0.5567
2026-07-21T15:40:50.577,6.541,0.0713,0.4979
2026-07-21T15:40:50.577,6.541,0.0321,0.5175
2026-07-21T15:40:50.586,6.5588,0.0713,0.4979
2026-07-21T15:40:50.595,6.5821,0.0321,0.5567
2026-07-21T15:40:50.612,6.5821,0.0321,0.5567
2026-07-21T15:40:50.625,6.5869,0.0125,0.4784
2026-07-21T15:40:50.625,6.5869,0.0321,0.5175
2026-07-21T15:40:50.641,6.6195,0.1888,0.4784
2026-07-21T15:40:50.641,6.6195,0.0517,0.4979
2026-07-21T15:40:50.657,6.6346,0.0517,0.4784
2026-07-21T15:40:50.672,6.6346,0.0713,0.4979
2026-07-21T15:40:50.673,6.6505,0.0713,0.5567
2026-07-21T15:40:50.688,6.6505,0.1104,0.5567
2026-07-21T15:40:50.695,6.6662,0.0125,0.4979
2026-07-21T15:40:50.704,6.6662,0.0909,0.5371
2026-07-21T15:40:50.720,6.6841,0.0713,0.5175
2026-07-21T15:40:50.720,6.6841,0.0321,0.5175
2026-07-21T15:40:50.738,6.7139,0.0321,0.5567
2026-07-21T15:40:50.752,6.7139,0.1104,0.6546
2026-07-21T15:40:50.752,6.7314,0.0321,0.5175
2026-07-21T15:40:50.768,6.7329,0.0321,0.5763
2026-07-21T15:40:50.783,6.7452,0.1104,0.5567
2026-07-21T15:40:50.787,6.7618,0.1104,0.4979
2026-07-21T15:40:50.799,6.7618,0.0713,0.5371
2026-07-21T15:40:50.799,6.7846,0.0517,0.4979
2026-07-21T15:40:50.815,6.7846,0.0321,0.5567
2026-07-21T15:40:50.838,6.7932,0.0517,0.6742
2026-07-21T15:40:50.838,6.7932,0.0713,0.5763
2026-07-21T15:40:50.847,6.8109,0.1104,0.5567
2026-07-21T15:40:50.847,6.8109,0.13,0.5371
2026-07-21T15:40:50.864,6.8403,0.0517,0.5567
2026-07-21T15:40:50.878,6.8559,0.0125,0.4588
2026-07-21T15:40:50.887,6.8559,0.0517,0.5371
2026-07-21T15:40:50.910,6.8725,0.0713,0.5763
2026-07-21T15:40:50.910,6.8725,0.0517,0.5175
2026-07-21T15:40:50.910,6.8878,0.0321,0.6154
2026-07-21T15:40:50.926,6.8878,0.0909,0.5763
2026-07-21T15:40:50.941,6.9078,0.0713,0.5567
2026-07-21T15:40:50.941,6.9078,0.1104,0.5763
2026-07-21T15:40:50.961,6.9334,0.0125,0.5567
2026-07-21T15:40:50.961,6.9334,0.0517,0.5958
2026-07-21T15:40:50.973,6.9518,-0.007,0.5567
2026-07-21T15:40:50.989,6.9518,0.1888,0.5763
2026-07-21T15:40:50.996,6.9675,0.0909,0.5567
2026-07-21T15:40:51.005,6.9822,0.0517,0.5567
2026-07-21T15:40:51.021,6.9822,0.0517,0.5958
2026-07-21T15:40:51.021,7.0013,0.13,0.5763
2026-07-21T15:40:51.036,7.0013,0.0909,0.5958
2026-07-21T15:40:51.055,7.0147,0.0909,0.5371
2026-07-21T15:40:51.055,7.0147,0.0321,0.5175
2026-07-21T15:40:51.068,7.0429,0.0517,0.5567
2026-07-21T15:40:51.068,7.0453,0.0517,0.5567
2026-07-21T15:40:51.087,7.061,0.0517,0.5567
2026-07-21T15:40:51.099,7.0766,0.0713,0.5763
2026-07-21T15:40:51.099,7.0766,0.0909,0.5567
2026-07-21T15:40:51.130,7.0923,0.0321,0.4979
2026-07-21T15:40:51.130,7.0923,0.0517,0.5175
2026-07-21T15:40:51.146,7.1091,0.0713,0.5371
2026-07-21T15:40:51.146,7.1091,0.0321,0.5763
2026-07-21T15:40:51.163,7.1336,0.13,0.4979
2026-07-21T15:40:51.163,7.1336,0.0321,0.5763
2026-07-21T15:40:51.179,7.1524,0.0517,0.5371
2026-07-21T15:40:51.187,7.1524,0.0909,0.5175
2026-07-21T15:40:51.197,7.1713,0.0909,0.5567
2026-07-21T15:40:51.209,7.187,0.0517,0.635
2026-07-21T15:40:51.209,7.187,0.0321,0.5763
2026-07-21T15:40:51.225,7.2026,0.0321,0.5175
2026-07-21T15:40:51.241,7.2026,0.0517,0.6154
2026-07-21T15:40:51.256,7.2183,0.0713,0.6154
2026-07-21T15:40:51.256,7.2183,0.0517,0.6742
2026-07-21T15:40:51.272,7.2457,0.0909,0.5567
2026-07-21T15:40:51.272,7.2457,0.0909,0.5763
2026-07-21T15:40:51.287,7.2496,0.0517,0.6154
2026-07-21T15:40:51.299,7.2662,0.0517,0.5371
2026-07-21T15:40:51.303,7.2823,0.0321,0.5958
2026-07-21T15:40:51.320,7.297,0.0125,0.635
2026-07-21T15:40:51.328,7.297,0.1104,0.5371
2026-07-21T15:40:51.338,7.3126,0.0713,0.5567
2026-07-21T15:40:51.351,7.3126,0.1104,0.6154
2026-07-21T15:40:51.366,7.334,0.1104,0.6154
2026-07-21T15:40:51.366,7.334,0.0713,0.5958
2026-07-21T15:40:51.366,7.3555,0.0517,0.6154
2026-07-21T15:40:51.388,7.3575,0.0909,0.5371
2026-07-21T15:40:51.398,7.3599,0.0321,0.6154
2026-07-21T15:40:51.411,7.3756,0.0909,0.5371
2026-07-21T15:40:51.414,7.3913,0.1104,0.5763
2026-07-21T15:40:51.429,7.4078,0.0713,0.5958
2026-07-21T15:40:51.429,7.4078,0.0517,0.5567
2026-07-21T15:40:51.445,7.4226,0.0713,0.6154
2026-07-21T15:40:51.461,7.4226,0.0321,0.5175
2026-07-21T15:40:51.476,7.4442,0.0909,0.6154
2026-07-21T15:40:51.476,7.4442,0.1104,0.5371
2026-07-21T15:40:51.488,7.4542,0.0713,0.5371
2026-07-21T15:40:51.498,7.4744,0.0517,0.5958
2026-07-21T15:40:51.508,7.4744,0.1496,0.5567
2026-07-21T15:40:51.523,7.4856,0.0713,0.5567
2026-07-21T15:40:51.528,7.4856,0.0909,0.5763
2026-07-21T15:40:51.539,7.517,0.0909,0.5958
2026-07-21T15:40:51.539,7.517,0.13,0.5567
2026-07-21T15:40:51.558,7.5343,0.0321,0.6154
2026-07-21T15:40:51.571,7.5343,0.0713,0.6154
2026-07-21T15:40:51.571,7.5486,0.0321,0.6154
2026-07-21T15:40:51.588,7.5486,0.13,0.5763
2026-07-21T15:40:51.602,7.5644,0.0517,0.5567
2026-07-21T15:40:51.602,7.5807,0.0517,0.6546
2026-07-21T15:40:51.618,7.5807,0.1104,0.5958
2026-07-21T15:40:51.634,7.598,0.0909,0.5958
2026-07-21T15:40:51.634,7.6099,0.0713,0.5958
2026-07-21T15:40:51.652,7.6273,0.13,0.5958
2026-07-21T15:40:51.652,7.6283,0.0517,0.5958
2026-07-21T15:40:51.665,7.645,0.0713,0.5567
2026-07-21T15:40:51.682,7.645,0.0517,0.6154
2026-07-21T15:40:51.699,7.6589,0.0909,0.6154
2026-07-21T15:40:51.699,7.6589,0.0713,0.5567
2026-07-21T15:40:51.699,7.6842,0.13,0.5763
2026-07-21T15:40:51.712,7.6842,0.0517,0.5763
2026-07-21T15:40:51.728,7.6945,0.0713,0.5567
2026-07-21T15:40:51.738,7.6945,0.0909,0.5958
2026-07-21T15:40:51.748,7.7206,0.0713,0.635
2026-07-21T15:40:51.760,7.7378,0.0321,0.6154
2026-07-21T15:40:51.760,7.7378,0.1104,0.5763
2026-07-21T15:40:51.776,7.7534,0.13,0.5958
2026-07-21T15:40:51.791,7.7534,0.0517,0.6154
2026-07-21T15:40:51.807,7.7752,0.0321,0.5958
2026-07-21T15:40:51.807,7.7752,-0.007,0.5763
2026-07-21T15:40:51.823,7.7861,0.0125,0.5958
2026-07-21T15:40:51.829,7.7861,0.0517,0.7133
2026-07-21T15:40:51.840,7.802,0.0321,0.6154
2026-07-21T15:40:51.840,7.802,0.0909,0.5763
2026-07-21T15:40:51.856,7.8305,0.1692,0.635
2026-07-21T15:40:51.873,7.8457,0.0713,0.5958
2026-07-21T15:40:51.873,7.8489,0.0909,0.6154
2026-07-21T15:40:51.888,7.8649,0.1104,0.6154
2026-07-21T15:40:51.899,7.8649,0.0909,0.6546
2026-07-21T15:40:51.903,7.8818,0.0517,0.5958
2026-07-21T15:40:51.919,7.8818,0.0909,0.5371
2026-07-21T15:40:51.935,7.9017,0.0713,0.5567
2026-07-21T15:40:51.935,7.9027,0.0909,0.5958
2026-07-21T15:40:51.953,7.9192,0.0517,0.5371
2026-07-21T15:40:51.957,7.9374,0.1104,0.5958
2026-07-21T15:40:51.973,7.9374,0.0517,0.5763
2026-07-21T15:40:51.988,7.9462,0.0125,0.6154
2026-07-21T15:40:51.989,7.9462,0.0125,0.5958
2026-07-21T15:40:52.000,7.96,0.0909,0.6154
2026-07-21T15:40:52.000,7.9754,0.0713,0.5958
2026-07-21T15:40:52.014,7.9921,0.0909,0.6154
2026-07-21T15:40:52.030,7.9921,0.0909,0.5958
2026-07-21T15:40:52.038,8.0067,0.0517,0.6742
2026-07-21T15:40:52.046,8.0234,0.0321,0.6154
2026-07-21T15:40:52.060,8.0234,0.2083,0.6154
2026-07-21T15:40:52.060,8.0466,0.0517,0.5763
2026-07-21T15:40:52.077,8.0466,0.0517,0.6154
2026-07-21T15:40:52.093,8.0568,0.0517,0.635
2026-07-21T15:40:52.093,8.0568,0.0713,0.6546
2026-07-21T15:40:52.110,8.0858,0.0517,0.6154
2026-07-21T15:40:52.110,8.0858,0.0713,0.5763
2026-07-21T15:40:52.137,8.1047,0.0517,0.6154
2026-07-21T15:40:52.139,8.1047,0.0517,0.6154
2026-07-21T15:40:52.155,8.1182,0.0713,0.5958
2026-07-21T15:40:52.158,8.1182,0.0713,0.5958
2026-07-21T15:40:52.172,8.1364,0.0125,0.5958
2026-07-21T15:40:52.187,8.1488,0.0517,0.5958
2026-07-21T15:40:52.190,8.1488,0.0713,0.6154
2026-07-21T15:40:52.202,8.1647,0.1104,0.5958
2026-07-21T15:40:52.202,8.1647,0.0713,0.5958
2026-07-21T15:40:52.218,8.19,0.13,0.5958
2026-07-21T15:40:52.218,8.196,0.0909,0.6154
2026-07-21T15:40:52.244,8.2119,0.0321,0.6546
2026-07-21T15:40:52.250,8.2119,0.0321,0.5763
2026-07-21T15:40:52.250,8.2275,0.0909,0.635
2026-07-21T15:40:52.265,8.2492,0.0321,0.635
2026-07-21T15:40:52.281,8.2492,0.0321,0.8112
2026-07-21T15:40:52.288,8.2591,0.1104,0.635
2026-07-21T15:40:52.301,8.2591,0.0517,0.635
2026-07-21T15:40:52.313,8.2748,0.0713,0.6742
2026-07-21T15:40:52.313,8.2748,0.0713,0.6154
2026-07-21T15:40:52.328,8.2936,0.1104,0.6154
2026-07-21T15:40:52.328,8.2936,0.1104,0.6154
2026-07-21T15:40:52.347,8.3219,0.0517,0.635
2026-07-21T15:40:52.361,8.3376,0.0713,0.5763
2026-07-21T15:40:52.361,8.3376,0.1104,0.6154
2026-07-21T15:40:52.376,8.3549,0.0713,0.6154
2026-07-21T15:40:52.391,8.3549,0.0909,0.6546
2026-07-21T15:40:52.409,8.3693,0.1104,0.635
2026-07-21T15:40:52.409,8.3693,0.0713,0.5763
2026-07-21T15:40:52.423,8.3854,0.0909,0.5567
2026-07-21T15:40:52.423,8.3854,0.0713,0.6154
2026-07-21T15:40:52.439,8.401,0.1104,0.6546
2026-07-21T15:40:52.439,8.4167,0.0517,0.6546
2026-07-21T15:40:52.455,8.4324,0.0321,0.5763
2026-07-21T15:40:52.470,8.4479,0.0517,0.5958
2026-07-21T15:40:52.470,8.4479,0.1104,0.635
2026-07-21T15:40:52.489,8.4637,0.13,0.5958
2026-07-21T15:40:52.502,8.4637,0.0713,0.5958
2026-07-21T15:40:52.502,8.4794,0.0713,0.635
2026-07-21T15:40:52.517,8.4794,0.0125,0.6154
2026-07-21T15:40:52.517,8.4951,0.0909,0.6154
2026-07-21T15:40:52.533,8.4951,0.0321,0.6154
2026-07-21T15:40:52.549,8.5253,0.13,0.6546
2026-07-21T15:40:52.549,8.5268,0.0909,0.6154
2026-07-21T15:40:52.571,8.5425,0.0321,0.635
2026-07-21T15:40:52.580,8.5582,0.0909,0.6937
2026-07-21T15:40:52.589,8.5582,0.0517,0.635
2026-07-21T15:40:52.596,8.5582,0.0517,0.6546
2026-07-21T15:40:52.612,8.5742,0.1104,0.635
2026-07-21T15:40:52.612,8.5903,0.0713,0.7133
2026-07-21T15:40:52.628,8.5903,0.0321,0.6154
2026-07-21T15:40:52.644,8.6079,0.0517,0.6742
2026-07-21T15:40:52.644,8.6079,0.0125,0.5763
2026-07-21T15:40:52.662,8.6353,0.0125,0.635
2026-07-21T15:40:52.662,8.6379,0.0713,0.6546
2026-07-21T15:40:52.675,8.6535,0.0321,0.6546
2026-07-21T15:40:52.689,8.6535,0.1104,0.6742
2026-07-21T15:40:52.707,8.6734,0.1104,0.6742
2026-07-21T15:40:52.707,8.6734,0.0713,0.635
2026-07-21T15:40:52.724,8.6848,0.0713,0.6546
2026-07-21T15:40:52.727,8.7036,0.1104,0.6742
2026-07-21T15:40:52.738,8.7115,0.1104,0.6546
2026-07-21T15:40:52.754,8.7162,0.0713,0.6154
2026-07-21T15:40:52.757,8.7162,0.0713,0.635
2026-07-21T15:40:52.770,8.7474,0.1692,0.635
2026-07-21T15:40:52.770,8.7489,0.0125,0.7133
2026-07-21T15:40:52.794,8.7631,0.0909,0.5763
2026-07-21T15:40:52.794,8.7631,0.0517,0.6546
2026-07-21T15:40:52.817,8.7788,0.1104,0.6154
2026-07-21T15:40:52.817,8.7788,0.0321,0.5958
2026-07-21T15:40:52.832,8.7946,0.0321,0.635
2026-07-21T15:40:52.832,8.7946,0.1496,0.6546
2026-07-21T15:40:52.848,8.8217,0.1104,0.635
2026-07-21T15:40:52.867,8.8354,0.0517,0.5958
2026-07-21T15:40:52.867,8.8354,0.0713,0.6154
2026-07-21T15:40:52.889,8.8576,0.0713,0.6546
2026-07-21T15:40:52.889,8.8576,0.0321,0.6154
2026-07-21T15:40:52.903,8.8733,0.0517,0.6154
2026-07-21T15:40:52.911,8.8733,0.0517,0.6546
2026-07-21T15:40:52.927,8.8898,0.0713,0.6154
2026-07-21T15:40:52.927,8.8898,0.0517,0.6742
2026-07-21T15:40:52.943,8.9091,0.0321,0.6742
2026-07-21T15:40:52.943,8.9091,0.0321,0.6937
2026-07-21T15:40:52.959,8.9358,0.0713,0.6546
2026-07-21T15:40:52.963,8.9375,0.0517,0.635
2026-07-21T15:40:52.988,8.9542,0.1104,0.6154
2026-07-21T15:40:52.992,8.9672,0.0713,0.6546
2026-07-21T15:40:53.005,8.9672,0.0125,0.6546
2026-07-21T15:40:53.008,8.9839,0.0517,0.635
2026-07-21T15:40:53.021,8.9839,0.0517,0.6546
2026-07-21T15:40:53.038,8.9994,0.0125,0.6154
2026-07-21T15:40:53.038,8.9994,0.0713,0.6546
2026-07-21T15:40:53.053,9.0157,0.0909,0.5958
2026-07-21T15:40:53.053,9.0304,0.0517,0.5958
2026-07-21T15:40:53.069,9.0499,0.0713,0.635
2026-07-21T15:40:53.069,9.0499,0.0517,0.6154
2026-07-21T15:40:53.089,9.0626,0.0517,0.6546
2026-07-21T15:40:53.101,9.0626,0.0517,0.6154
2026-07-21T15:40:53.103,9.0781,0.0321,0.635
2026-07-21T15:40:53.116,9.0781,0.0713,0.5958
2026-07-21T15:40:53.132,9.0942,0.0909,0.6154
2026-07-21T15:40:53.132,9.0942,0.0909,0.635
2026-07-21T15:40:53.148,9.11,0.0517,0.635
2026-07-21T15:40:53.148,9.1256,0.0909,0.6546
2026-07-21T15:40:53.164,9.1419,0.0517,0.6546
2026-07-21T15:40:53.181,9.1419,0.0125,0.5958
2026-07-21T15:40:53.196,9.1578,0.0321,0.6546
2026-07-21T15:40:53.196,9.1725,-0.007,0.635
2026-07-21T15:40:53.211,9.1725,0.0909,0.6154
2026-07-21T15:40:53.217,9.1924,0.0517,0.635
2026-07-21T15:40:53.226,9.1924,0.0517,0.6154
2026-07-21T15:40:53.242,9.21,0.0125,0.6154
2026-07-21T15:40:53.246,9.22,0.0517,0.5763
2026-07-21T15:40:53.264,9.236,-0.0462,0.6937
2026-07-21T15:40:53.264,9.236,0.0321,0.6546
2026-07-21T15:40:53.284,9.2593,0.0321,0.5567
2026-07-21T15:40:53.290,9.2593,0.0517,0.6154
2026-07-21T15:40:53.304,9.2717,0.0713,0.6546
2026-07-21T15:40:53.313,9.2717,0.0321,0.5958
2026-07-21T15:40:53.321,9.2996,0.0125,0.635
2026-07-21T15:40:53.325,9.2996,0.0125,0.6546
2026-07-21T15:40:53.337,9.3162,0.0713,0.5958
2026-07-21T15:40:53.353,9.3162,0.0713,0.635
2026-07-21T15:40:53.369,9.3381,0.0517,0.6154
2026-07-21T15:40:53.370,9.3381,0.0321,0.5958
2026-07-21T15:40:53.389,9.3508,0.0321,0.6546
2026-07-21T15:40:53.392,9.3508,0.0321,0.5958
2026-07-21T15:40:53.404,9.3627,0.0517,0.6154
2026-07-21T15:40:53.404,9.3627,0.0125,0.5958
2026-07-21T15:40:53.416,9.3946,0.0517,0.5763
2026-07-21T15:40:53.416,9.3946,0.0321,0.5763
2026-07-21T15:40:53.432,9.4103,0.0713,0.6742
2026-07-21T15:40:53.448,9.4103,0.0517,0.6546
2026-07-21T15:40:53.464,9.4263,0.0517,0.7133
2026-07-21T15:40:53.474,9.4512,0.0517,0.6742
2026-07-21T15:40:53.480,9.4512,0.0909,0.6546
2026-07-21T15:40:53.496,9.4733,0.0909,0.635
2026-07-21T15:40:53.505,9.4733,0.1496,0.6742
2026-07-21T15:40:53.511,9.4889,0.0713,0.7133
2026-07-21T15:40:53.511,9.4889,0.0125,0.6742
2026-07-21T15:40:53.527,9.5098,0.0517,0.6742
2026-07-21T15:40:53.543,9.5109,0.0909,0.6937
2026-07-21T15:40:53.562,9.5206,0.0125,0.635
2026-07-21T15:40:53.562,9.5206,0.0125,0.6154
2026-07-21T15:40:53.565,9.5363,0.1104,0.635
2026-07-21T15:40:53.574,9.5363,0.0517,0.635
2026-07-21T15:40:53.590,9.5671,0.1692,0.5958
2026-07-21T15:40:53.590,9.5671,0.0909,0.635
2026-07-21T15:40:53.609,9.5829,0.0713,0.6742
2026-07-21T15:40:53.621,9.5829,0.0713,0.7133
2026-07-21T15:40:53.636,9.5996,0.0713,0.5763
2026-07-21T15:40:53.636,9.6142,0.0517,0.6154
2026-07-21T15:40:53.653,9.6142,0.0909,0.5958
2026-07-21T15:40:53.653,9.6142,-0.007,0.5958
2026-07-21T15:40:53.668,9.6354,0.0517,0.6154
2026-07-21T15:40:53.684,9.6615,0.0909,0.635
2026-07-21T15:40:53.689,9.6615,0.0713,0.6154
2026-07-21T15:40:53.705,9.6771,0.13,0.6546
2026-07-21T15:40:53.705,9.6771,-0.0266,0.6154
2026-07-21T15:40:53.715,9.6941,-0.0266,0.6546
2026-07-21T15:40:53.731,9.6941,0.0517,0.6546
2026-07-21T15:40:53.731,9.7089,0.0713,0.6742
2026-07-21T15:40:53.748,9.7089,0.0517,0.635
2026-07-21T15:40:53.763,9.7354,0.0713,0.5958
2026-07-21T15:40:53.763,9.7354,0.0713,0.635
2026-07-21T15:40:53.789,9.7561,0.13,0.5763
2026-07-21T15:40:53.789,9.7561,0.0321,0.6546
2026-07-21T15:40:53.806,9.7718,0.0909,0.6546
2026-07-21T15:40:53.810,9.7718,0.0713,0.6937
2026-07-21T15:40:53.825,9.7874,0.0517,0.635
2026-07-21T15:40:53.825,9.7874,0.0321,0.5958
2026-07-21T15:40:53.841,9.8031,0.13,0.6546
2026-07-21T15:40:53.841,9.8031,0.1104,0.5958
2026-07-21T15:40:53.857,9.8354,0.0713,0.5958
2026-07-21T15:40:53.872,9.8521,0.0517,0.6937
2026-07-21T15:40:53.872,9.8521,0.0517,0.6546
2026-07-21T15:40:53.889,9.8659,0.0517,0.6742
2026-07-21T15:40:53.905,9.8659,0.0517,0.6937
2026-07-21T15:40:53.906,9.8816,-0.007,0.6154
2026-07-21T15:40:53.920,9.8816,0.0125,0.635
2026-07-21T15:40:53.935,9.8974,0.0321,0.6154
2026-07-21T15:40:53.935,9.8974,0.0517,0.635
2026-07-21T15:40:53.951,9.9287,0.0517,0.6546
2026-07-21T15:40:53.951,9.9287,0.0125,0.635
2026-07-21T15:40:53.967,9.9444,0.0517,0.6546
2026-07-21T15:40:53.982,9.9444,0.0321,0.6546
2026-07-21T15:40:53.989,9.969,0.0713,0.5763
2026-07-21T15:40:53.998,9.969,0.1104,0.635
2026-07-21T15:40:54.006,9.9778,0.0125,0.6546
2026-07-21T15:40:54.014,9.9778,0.0713,0.7133
2026-07-21T15:40:54.031,10.0082,0.0517,0.6546
2026-07-21T15:40:54.031,10.0082,0.0321,0.6154
2026-07-21T15:40:54.061,10.0236,0.0321,0.6546
2026-07-21T15:40:54.062,10.0236,0.0517,0.635
2026-07-21T15:40:54.077,10.0397,0.0713,0.6546
2026-07-21T15:40:54.077,10.0397,0.0713,0.6546
2026-07-21T15:40:54.093,10.0548,0.0321,0.635
2026-07-21T15:40:54.093,10.0706,0.0321,0.6546
2026-07-21T15:40:54.108,10.0872,0.0517,0.5371
2026-07-21T15:40:54.108,10.0872,-0.007,0.6546
2026-07-21T15:40:54.138,10.1018,0.0909,0.6154
2026-07-21T15:40:54.141,10.1018,0.0517,0.6546
2026-07-21T15:40:54.155,10.1179,0.0517,0.6546
2026-07-21T15:40:54.155,10.1179,0.0321,0.6937
2026-07-21T15:40:54.172,10.1354,0.0517,0.6742
2026-07-21T15:40:54.172,10.1655,0.0713,0.5958
2026-07-21T15:40:54.189,10.1668,0.0713,0.6546
2026-07-21T15:40:54.189,10.1668,0.0713,0.6742
2026-07-21T15:40:54.207,10.1822,0.1104,0.635
2026-07-21T15:40:54.220,10.1822,0.0125,0.635
2026-07-21T15:40:54.236,10.2,0.0909,0.6546
2026-07-21T15:40:54.236,10.2,0.0321,0.6742
2026-07-21T15:40:54.254,10.2131,0.0909,0.6742
2026-07-21T15:40:54.254,10.2288,0.0517,0.6154
2026-07-21T15:40:54.267,10.2467,0.0321,0.6154
2026-07-21T15:40:54.282,10.2467,0.0517,0.6742
2026-07-21T15:40:54.298,10.2603,-0.007,0.5763
2026-07-21T15:40:54.300,10.2603,-0.0854,0.5958
2026-07-21T15:40:54.314,10.2761,-0.1637,0.4588
2026-07-21T15:40:54.314,10.2761,-0.1833,0.2826
2026-07-21T15:40:54.330,10.3103,-0.2029,0.3413
2026-07-21T15:40:54.330,10.3103,-0.2029,0.4196
2026-07-21T15:40:54.345,10.3305,-0.105,0.3609
2026-07-21T15:40:54.361,10.3305,-0.242,0.4588
2026-07-21T15:40:54.377,10.354,-0.477,0.2238
2026-07-21T15:40:54.377,10.355,-0.105,0.6546
2026-07-21T15:40:54.393,10.3782,1.0895,2.221
2026-07-21T15:40:54.393,10.3842,2.6168,3.533
2026-07-21T15:40:54.416,10.3986,5.4756,7.9582
2026-07-21T15:40:54.416,10.4187,8.3344,12.9513
2026-07-21T15:40:54.438,10.4291,11.1344,18.336
2026-07-21T15:40:54.441,10.434,14.1107,23.662
2026-07-21T15:40:54.452,10.442,17.4394,29.2033
2026-07-21T15:40:54.457,10.4676,20.5919,34.1377
2026-07-21T15:40:54.457,10.4676,23.5682,38.3867
2026-07-21T15:40:54.483,10.4676,25.6046,41.4217
2026-07-21T15:40:54.496,10.4759,27.4452,44.1826
2026-07-21T15:40:54.508,10.499,29.227,46.6694
2026-07-21T15:40:54.508,10.499,30.7739,48.7449
2026-07-21T15:40:54.521,10.499,31.7921,49.6848
2026-07-21T15:40:54.530,10.5073,31.9488,49.7631
2026-07-21T15:40:54.535,10.5127,31.5963,48.9995
2026-07-21T15:40:54.553,10.5284,30.6173,48.0988
2026-07-21T15:40:54.561,10.5361,29.3053,47.7855
2026-07-21T15:40:54.566,10.5546,26.3291,48.6079
2026-07-21T15:40:54.582,10.5598,26.0549,49.0778
2026-07-21T15:40:54.590,10.5801,25.8787,49.5673
2026-07-21T15:40:54.598,10.5801,25.6829,50.0373
2026-07-21T15:40:54.615,10.5801,25.3696,50.5268
2026-07-21T15:40:54.629,10.6071,25.1738,50.8597
2026-07-21T15:40:54.629,10.6071,24.8801,50.7226
2026-07-21T15:40:54.634,10.6071,24.7235,50.096
2026-07-21T15:40:54.645,10.6328,24.7626,49.1561
2026-07-21T15:40:54.661,10.6362,24.8997,48.8037
2026-07-21T15:40:54.661,10.6552,25.0955,48.9212
2026-07-21T15:40:54.679,10.6552,25.3696,49.2345
2026-07-21T15:40:54.693,10.6552,25.6633,49.7827
2026-07-21T15:40:54.693,10.6704,25.5654,50.096
2026-07-21T15:40:54.709,10.6704,25.4871,50.4485
2026-07-21T15:40:54.717,10.702,25.6437,51.0946
2026-07-21T15:40:54.724,10.702,25.957,51.8387
2026-07-21T15:40:54.740,10.702,26.3487,52.3674
2026-07-21T15:40:54.756,10.719,26.6815,52.524
2026-07-21T15:40:54.756,10.7338,27.0144,52.4457
2026-07-21T15:40:54.773,10.7497,27.4648,52.5044
2026-07-21T15:40:54.787,10.7555,27.6801,52.6611
2026-07-21T15:40:54.790,10.7653,27.6801,52.9548
2026-07-21T15:40:54.790,10.7653,27.7193,53.2289
2026-07-21T15:40:54.809,10.7774,27.5822,53.3072
2026-07-21T15:40:54.819,10.7967,27.6997,53.3268
2026-07-21T15:40:54.831,10.7967,28.0522,53.4835
2026-07-21T15:40:54.835,10.8201,28.3459,54.0122
2026-07-21T15:40:54.850,10.8201,28.483,54.5996
2026-07-21T15:40:54.850,10.8364,28.483,54.952
2026-07-21T15:40:54.872,10.8441,28.6396,55.1087
2026-07-21T15:40:54.882,10.8659,28.9921,55.559
2026-07-21T15:40:54.890,10.8659,29.0116,56.3031
2026-07-21T15:40:54.903,10.874,29.0116,56.8318
2026-07-21T15:40:54.915,10.8919,29.1487,56.9689
2026-07-21T15:40:54.920,10.8919,29.4424,56.6947
2026-07-21T15:40:54.931,10.9087,29.9711,56.3618
2026-07-21T15:40:54.931,10.9087,30.1669,56.3031
2026-07-21T15:40:54.945,10.9363,30.069,56.2444
2026-07-21T15:40:54.962,10.9389,29.6774,56.3031
2026-07-21T15:40:54.962,10.9389,29.4816,56.5577
2026-07-21T15:40:54.985,10.9616,29.3249,56.6556
2026-07-21T15:40:54.990,10.9616,29.462,56.7339
2026-07-21T15:40:55.004,10.9861,29.5207,57.0863
2026-07-21T15:40:55.010,10.9861,29.4033,57.2626
2026-07-21T15:40:55.024,10.9861,29.3249,57.2821
2026-07-21T15:40:55.033,11.0147,29.3445,57.5759
2026-07-21T15:40:55.040,11.0178,29.462,57.9479
2026-07-21T15:40:55.040,11.0365,29.5795,58.1633
2026-07-21T15:40:55.065,11.0427,29.697,58.3982
2026-07-21T15:40:55.071,11.0456,29.7165,58.8094
2026-07-21T15:40:55.071,11.066,29.8732,59.2598
2026-07-21T15:40:55.090,11.066,29.8732,59.5731
2026-07-21T15:40:55.101,11.071,29.697,59.8668
2026-07-21T15:40:55.110,11.0922,29.5012,59.9255
2026-07-21T15:40:55.125,11.0922,29.3641,59.7493
2026-07-21T15:40:55.135,11.114,29.4816,59.436
2026-07-21T15:40:55.143,11.114,29.5795,59.2011
2026-07-21T15:40:55.152,11.1366,29.5991,59.0444
2026-07-21T15:40:55.152,11.1366,29.5207,59.064
2026-07-21T15:40:55.168,11.145,29.6382,59.2011
2026-07-21T15:40:55.182,11.1611,29.6774,59.3773
2026-07-21T15:40:55.190,11.1662,29.5991,59.4556
2026-07-21T15:40:55.199,11.1766,29.5403,59.6906
2026-07-21T15:40:55.215,11.1766,29.5012,59.7885
2026-07-21T15:40:55.225,11.1934,29.5012,59.671
2026-07-21T15:40:55.230,11.2081,29.7949,59.3577
2026-07-21T15:40:55.230,11.2081,29.8536,59.3185
2026-07-21T15:40:55.255,11.2368,29.9515,59.4948
2026-07-21T15:40:55.262,11.2386,30.069,59.5535
2026-07-21T15:40:55.276,11.26,30.2844,59.7102
2026-07-21T15:40:55.276,11.26,30.6368,59.8081
2026-07-21T15:40:55.295,11.26,31.1068,60.1018
2026-07-21T15:40:55.308,11.2857,31.1655,60.5521
2026-07-21T15:40:55.314,11.2857,31.1655,61.1396
2026-07-21T15:40:55.329,11.3016,31.0676,61.6291
2026-07-21T15:40:55.329,11.3016,30.9306,61.8836
2026-07-21T15:40:55.339,11.3169,30.8914,61.7661
2026-07-21T15:40:55.355,11.3369,30.7935,61.5507
2026-07-21T15:40:55.355,11.3415,30.9501,61.3158
2026-07-21T15:40:55.371,11.3415,31.0872,61.0025
2026-07-21T15:40:55.387,11.3667,31.2243,60.7675
2026-07-21T15:40:55.391,11.3706,31.2243,60.6305
2026-07-21T15:40:55.402,11.3959,31.0676,60.5521
2026-07-21T15:40:55.418,11.3959,30.8718,60.4934
2026-07-21T15:40:55.424,11.3959,30.5389,60.5717
2026-07-21T15:40:55.434,11.4118,30.5781,60.6696
2026-07-21T15:40:55.440,11.4306,30.6564,60.9633
2026-07-21T15:40:55.449,11.4306,30.7935,61.1983
2026-07-21T15:40:55.465,11.4434,30.8914,61.4137
2026-07-21T15:40:55.465,11.4579,30.9501,61.492
2026-07-21T15:40:55.484,11.4594,31.0285,61.5507
2026-07-21T15:40:55.497,11.475,30.9306,61.4137
2026-07-21T15:40:55.497,11.475,30.7152,61.12
2026-07-21T15:40:55.511,11.475,30.676,60.65
2026-07-21T15:40:55.529,11.5068,30.8131,60.5717
2026-07-21T15:40:55.529,11.5068,30.9893,60.5325
2026-07-21T15:40:55.545,11.5228,31.1459,60.6109
2026-07-21T15:40:55.545,11.5228,31.048,60.6305
2026-07-21T15:40:55.560,11.5388,30.9697,60.5717
2026-07-21T15:40:55.574,11.5591,30.9306,60.513
2026-07-21T15:40:55.576,11.5591,30.9501,60.4934
2026-07-21T15:40:55.592,11.5591,30.9306,60.5325
2026-07-21T15:40:55.608,11.5859,30.8522,60.4738
2026-07-21T15:40:55.613,11.5859,30.8326,60.5717
2026-07-21T15:40:55.622,11.6106,31.0285,60.7479
2026-07-21T15:40:55.624,11.6106,31.3417,61.12
2026-07-21T15:40:55.639,11.6156,31.5571,61.5703
2026-07-21T15:40:55.639,11.6374,31.6746,62.0403
2026-07-21T15:40:55.655,11.6406,31.7921,62.3536
2026-07-21T15:40:55.671,11.6612,31.8313,62.4515
2026-07-21T15:40:55.687,11.6648,31.655,62.5494
2026-07-21T15:40:55.691,11.6648,31.655,62.6081
2026-07-21T15:40:55.712,11.6805,31.7529,62.9606
2026-07-21T15:40:55.712,11.6805,32.0467,63.4109
2026-07-21T15:40:55.722,11.6962,32.3208,64.0962
2026-07-21T15:40:55.734,11.7122,32.4187,64.5662
2026-07-21T15:40:55.734,11.7122,32.4579,64.7816
2026-07-21T15:40:55.750,11.7373,32.5166,64.7424
2026-07-21T15:40:55.750,11.7373,32.732,64.8403
2026-07-21T15:40:55.766,11.7603,33.0061,65.1536
2026-07-21T15:40:55.782,11.7603,33.339,65.604
2026-07-21T15:40:55.791,11.7603,33.3977,65.741
2026-07-21T15:40:55.812,11.7884,33.2998,65.6431
2026-07-21T15:40:55.814,11.7884,33.339,65.5648
2026-07-21T15:40:55.814,11.792,33.3586,65.7998
2026-07-21T15:40:55.834,11.8132,33.3781,66.1522
2026-07-21T15:40:55.842,11.8132,33.6131,66.7396
2026-07-21T15:40:55.846,11.8392,33.6131,67.3858
2026-07-21T15:40:55.861,11.8392,33.574,68.3453
2026-07-21T15:40:55.867,11.8392,33.574,69.0893
2026-07-21T15:40:55.891,11.8661,33.7502,69.5005
2026-07-21T15:40:55.893,11.8681,33.8481,69.8726
2026-07-21T15:40:55.893,11.8875,33.946,70.1467
2026-07-21T15:40:55.913,11.8875,34.2593,70.3229
2026-07-21T15:40:55.925,11.8875,34.7488,70.3425
2026-07-21T15:40:55.935,11.9034,35.2579,70.4208
2026-07-21T15:40:55.941,11.919,35.5516,70.5775
2026-07-21T15:40:55.952,11.9411,35.6495,70.832
2026-07-21T15:40:55.957,11.9428,35.7083,70.9299
2026-07-21T15:40:55.973,11.9446,35.8845,70.8124
2026-07-21T15:40:55.983,11.965,35.8649,70.7537
2026-07-21T15:40:55.995,11.965,35.8649,70.7929
2026-07-21T15:40:56.003,11.9807,35.8453,71.1062
2026-07-21T15:40:56.019,11.9963,35.9041,71.2628
2026-07-21T15:40:56.019,12.0008,35.7083,71.1845
2026-07-21T15:40:56.034,12.028,35.3558,70.9691
2026-07-21T15:40:56.034,12.028,35.1208,70.9887
2026-07-21T15:40:56.050,12.028,35.16,71.4586
2026-07-21T15:40:56.066,12.0558,35.1992,71.8111
2026-07-21T15:40:56.068,12.0558,35.2383,72.0265
2026-07-21T15:40:56.082,12.0602,35.3166,72.0265
2026-07-21T15:40:56.091,12.0837,35.4145,71.9286
2026-07-21T15:40:56.097,12.0865,35.3754,71.7327
2026-07-21T15:40:56.113,12.0865,35.4145,71.674
2026-07-21T15:40:56.130,12.1108,35.2579,71.6348
2026-07-21T15:40:56.130,12.1108,35.2579,71.4586
2026-07-21T15:40:56.145,12.1108,35.2187,71.1062
2026-07-21T15:40:56.160,12.1386,35.4341,70.9887
2026-07-21T15:40:56.164,12.1405,35.5516,71.0278
2026-07-21T15:40:56.176,12.1647,35.7083,71.0278
2026-07-21T15:40:56.180,12.1667,35.8257,70.8516
2026-07-21T15:40:56.194,12.1701,35.8453,70.5383
2026-07-21T15:40:56.207,12.1862,35.9824,70.4992
2026-07-21T15:40:56.214,12.1862,36.0607,70.5579
2026-07-21T15:40:56.224,12.1862,36.1195,70.8516
2026-07-21T15:40:56.240,12.2166,36.1978,71.1062
2026-07-21T15:40:56.240,12.2166,36.1978,71.2628
2026-07-21T15:40:56.256,12.2166,36.2174,71.2824
2026-07-21T15:40:56.270,12.2481,36.1586,71.0866
2026-07-21T15:40:56.270,12.2481,36.0607,70.832
2026-07-21T15:40:56.286,12.275,36.0803,70.7145
2026-07-21T15:40:56.292,12.275,35.8453,70.46
2026-07-21T15:40:56.302,12.2797,35.8453,70.4404
2026-07-21T15:40:56.317,12.3033,35.8257,70.4796
2026-07-21T15:40:56.317,12.3033,35.9824,70.3621
2026-07-21T15:40:56.333,12.3033,36.2565,69.4222
2026-07-21T15:40:56.338,12.33,36.4132,69.2656
2026-07-21T15:40:56.349,12.332,36.4719,69.1481
2026-07-21T15:40:56.357,12.338,36.2761,69.1285
2026-07-21T15:40:56.382,12.3609,36.0999,68.8935
2026-07-21T15:40:56.386,12.3609,36.0803,68.8544
2026-07-21T15:40:56.392,12.3609,36.0999,68.639
2026-07-21T15:40:56.396,12.3873,35.8453,68.6586
2026-07-21T15:40:56.414,12.3873,35.8062,68.7565
2026-07-21T15:40:56.414,12.4115,35.6887,68.8152
2026-07-21T15:40:56.428,12.4115,35.6887,69.011
2026-07-21T15:40:56.445,12.4176,35.6887,69.1285
2026-07-21T15:40:56.445,12.4381,35.7083,69.1481
2026-07-21T15:40:56.465,12.4381,35.767,68.9131
2026-07-21T15:40:56.475,12.4381,35.8453,68.9327
2026-07-21T15:40:56.491,12.4612,35.8062,68.9719
2026-07-21T15:40:56.492,12.4686,35.9041,68.8544
2026-07-21T15:40:56.492,12.4686,35.8845,68.6781
2026-07-21T15:40:56.515,12.4986,35.7866,68.5411
2026-07-21T15:40:56.522,12.5004,35.5908,68.2082
2026-07-21T15:40:56.536,12.5162,35.3754,68.1103
2026-07-21T15:40:56.546,12.5162,35.0033,68.0711
2026-07-21T15:40:56.554,12.5162,34.7488,68.0516
2026-07-21T15:40:56.570,12.5497,34.5726,68.0711
2026-07-21T15:40:56.570,12.5497,34.4355,67.9341
2026-07-21T15:40:56.584,12.5551,34.3768,67.9145
2026-07-21T15:40:56.592,12.577,34.3572,68.0124
2026-07-21T15:40:56.603,12.5792,34.3768,68.2474
2026-07-21T15:40:56.609,12.5792,34.5334,68.4432
2026-07-21T15:40:56.619,12.5949,34.5726,68.3649
2026-07-21T15:40:56.633,12.6108,34.5138,68.1886
2026-07-21T15:40:56.633,12.6295,34.3768,67.8362
2026-07-21T15:40:56.649,12.6295,34.3376,67.2683
2026-07-21T15:40:56.649,12.6295,34.318,66.7984
2026-07-21T15:40:56.680,12.6425,34.2005,66.5243
2026-07-21T15:40:56.683,12.6425,33.8285,66.7005
2026-07-21T15:40:56.696,12.6741,33.4956,66.8376
2026-07-21T15:40:56.696,12.6741,33.1432,66.8376
2026-07-21T15:40:56.715,12.6898,32.8299,66.7984
2026-07-21T15:40:56.728,12.7055,32.5753,66.6613
2026-07-21T15:40:56.728,12.7055,32.3012,66.583
2026-07-21T15:40:56.743,12.7212,31.9879,66.3089
2026-07-21T15:40:56.743,12.7212,31.8704,66.1326
2026-07-21T15:40:56.759,12.7528,31.8508,65.8977
2026-07-21T15:40:56.775,12.7528,31.8117,65.741
2026-07-21T15:40:56.775,12.7583,31.655,65.5844
2026-07-21T15:40:56.795,12.7782,31.6942,65.2907
2026-07-21T15:40:56.795,12.7814,31.6159,64.8795
2026-07-21T15:40:56.812,12.7843,31.7529,64.6837
2026-07-21T15:40:56.823,12.8,31.8508,64.4683
2026-07-21T15:40:56.835,12.8,31.7921,64.4095
2026-07-21T15:40:56.854,12.8159,31.5963,64.3508
2026-07-21T15:40:56.854,12.8318,31.3222,64.1942
2026-07-21T15:40:56.854,12.8387,31.0676,63.7634
2026-07-21T15:40:56.870,12.8557,30.7739,63.4892
2026-07-21T15:40:56.885,12.8592,30.6173,63.1955
2026-07-21T15:40:56.892,12.8791,30.5389,63.1955
2026-07-21T15:40:56.901,12.8791,30.6368,63.4109
2026-07-21T15:40:56.916,12.8791,30.7739,63.7438
2026-07-21T15:40:56.933,12.9088,30.7543,63.8221
2026-07-21T15:40:56.933,12.9108,30.8718,63.9004
2026-07-21T15:40:56.945,12.9149,31.1851,63.9592
2026-07-21T15:40:56.949,12.9347,31.4984,64.0767
2026-07-21T15:40:56.965,12.9387,31.6355,64.2333
2026-07-21T15:40:56.977,12.9581,31.5571,64.2137
2026-07-21T15:40:56.981,12.9581,31.2634,64.0571
2026-07-21T15:40:56.992,12.9628,31.0676,63.9592
2026-07-21T15:40:56.996,12.9739,30.9893,63.7046
2026-07-21T15:40:57.012,12.9739,31.0089,63.4305
2026-07-21T15:40:57.028,13.0053,30.911,63.0193
2026-07-21T15:40:57.028,13.0101,30.7739,62.7648
2026-07-21T15:40:57.043,13.0101,30.6564,62.706
2026-07-21T15:40:57.043,13.0214,30.5977,62.7256
2026-07-21T15:40:57.064,13.0372,30.5194,62.8039
2026-07-21T15:40:57.075,13.053,30.3627,63.1172
2026-07-21T15:40:57.075,13.053,30.2844,63.2543
2026-07-21T15:40:57.092,13.0656,30.304,63.4109
2026-07-21T15:40:57.107,13.0875,30.3627,63.4501
2026-07-21T15:40:57.107,13.0875,30.2844,63.3913
2026-07-21T15:40:57.139,13.1041,30.2061,63.3326
2026-07-21T15:40:57.139,13.1041,29.9907,63.3326
2026-07-21T15:40:57.141,13.1192,29.8928,63.3913
2026-07-21T15:40:57.158,13.1388,29.9124,63.548
2026-07-21T15:40:57.158,13.1478,29.8732,63.5676
2026-07-21T15:40:57.173,13.1483,29.834,63.4892
2026-07-21T15:40:57.192,13.1642,29.7557,63.3718
2026-07-21T15:40:57.192,13.1642,29.7753,63.3326
2026-07-21T15:40:57.202,13.1642,29.5991,63.5088
2026-07-21T15:40:57.218,13.1953,29.3641,63.6459
2026-07-21T15:40:57.218,13.1958,29.1487,63.9983
2026-07-21T15:40:57.233,13.2105,28.7962,64.4291
2026-07-21T15:40:57.233,13.2105,28.3655,64.8012
2026-07-21T15:40:57.255,13.2262,27.8368,65.0753
2026-07-21T15:40:57.264,13.2418,27.4256,65.4082
2026-07-21T15:40:57.264,13.2418,27.1906,65.6431
2026-07-21T15:40:57.280,13.2753,26.8969,65.7215
2026-07-21T15:40:57.295,13.2778,26.7598,65.8389
2026-07-21T15:40:57.295,13.2778,26.3878,65.8585
2026-07-21T15:40:57.317,13.3049,26.0745,65.9368
2026-07-21T15:40:57.317,13.3049,25.6829,65.9956
2026-07-21T15:40:57.331,13.3049,25.4871,65.8194
2026-07-21T15:40:57.343,13.334,25.3109,65.6823
2026-07-21T15:40:57.359,13.3364,25.1346,65.4082
2026-07-21T15:40:57.359,13.339,25.1738,64.997
2026-07-21T15:40:57.374,13.364,25.0367,64.8012
2026-07-21T15:40:57.374,13.364,24.9193,64.6053
2026-07-21T15:40:57.393,13.3682,24.6647,64.4879
2026-07-21T15:40:57.393,13.3843,24.4102,64.4683
2026-07-21T15:40:57.406,13.3843,24.0381,64.5466
2026-07-21T15:40:57.422,13.3843,23.9598,64.7424
2026-07-21T15:40:57.438,13.4185,23.999,64.8012
2026-07-21T15:40:57.438,13.4185,24.1164,64.8207
2026-07-21T15:40:57.454,13.4229,24.2144,64.7816
2026-07-21T15:40:57.454,13.4392,24.3318,64.7424
2026-07-21T15:40:57.472,13.4476,24.5081,64.8795
2026-07-21T15:40:57.486,13.4643,24.7626,65.2319
2026-07-21T15:40:57.493,13.4643,24.8997,65.3886
2026-07-21T15:40:57.501,13.4792,24.8997,65.369
2026-07-21T15:40:57.518,13.4949,24.8997,65.2907
2026-07-21T15:40:57.518,13.4949,24.7822,64.8991
2026-07-21T15:40:57.533,13.4949,24.8409,64.7424
2026-07-21T15:40:57.548,13.5264,24.8605,64.7424
2026-07-21T15:40:57.548,13.5264,24.9388,64.6837
2026-07-21T15:40:57.548,13.553,24.8214,64.7033
2026-07-21T15:40:57.571,13.553,24.7235,64.6249
2026-07-21T15:40:57.580,13.558,24.5668,64.6641
2026-07-21T15:40:57.598,13.5737,24.7822,64.8599
2026-07-21T15:40:57.598,13.5737,25.0563,64.8403
2026-07-21T15:40:57.624,13.5965,25.3305,64.7228
2026-07-21T15:40:57.627,13.6052,25.6829,64.6837
2026-07-21T15:40:57.627,13.6052,25.957,64.7816
2026-07-21T15:40:57.646,13.6278,26.3095,64.9382
2026-07-21T15:40:57.650,13.6278,26.3682,65.1144
2026-07-21T15:40:57.664,13.6525,26.4074,65.1732
2026-07-21T15:40:57.675,13.6525,26.3291,65.1144
2026-07-21T15:40:57.681,13.6525,26.6619,64.997
2026-07-21T15:40:57.698,13.6789,26.9752,64.8991
2026-07-21T15:40:57.706,13.6789,27.1906,64.9186
2026-07-21T15:40:57.714,13.7034,27.3669,65.134
2026-07-21T15:40:57.722,13.7054,27.406,65.369
2026-07-21T15:40:57.733,13.7076,27.3081,65.4082
2026-07-21T15:40:57.738,13.7263,27.1123,65.2124
2026-07-21T15:40:57.754,13.7291,26.9361,65.1928
2026-07-21T15:40:57.761,13.7316,27.1319,65.1536
2026-07-21T15:40:57.770,13.7473,27.4843,65.2711
2026-07-21T15:40:57.785,13.7473,27.7976,65.3494
2026-07-21T15:40:57.793,13.7655,28.013,65.4473
2026-07-21T15:40:57.801,13.7655,28.248,65.4082
2026-07-21T15:40:57.819,13.7953,28.3459,65.2907
2026-07-21T15:40:57.819,13.7953,28.3459,65.2711
2026-07-21T15:40:57.832,13.7953,28.3067,65.3103
2026-07-21T15:40:57.848,13.8104,28.4046,65.3886
2026-07-21T15:40:57.849,13.8104,28.4046,65.4865
2026-07-21T15:40:57.864,13.8466,28.483,65.5452
2026-07-21T15:40:57.864,13.8466,28.6788,65.7606
2026-07-21T15:40:57.880,13.8659,28.8158,65.7998
2026-07-21T15:40:57.896,13.8659,28.7767,65.7802
2026-07-21T15:40:57.900,13.8737,28.6592,65.6431
2026-07-21T15:40:57.919,13.8894,28.6004,65.6823
2026-07-21T15:40:57.919,13.8894,28.6396,65.7215
2026-07-21T15:40:57.943,13.9072,28.8942,65.8194
2026-07-21T15:40:57.943,13.9072,29.2466,65.9173
2026-07-21T15:40:57.943,13.938,29.5599,66.0347
2026-07-21T15:40:57.961,13.94,29.4424,66.0935
2026-07-21T15:40:57.975,13.94,29.1683,65.8977
2026-07-21T15:40:57.990,13.9533,28.8746,65.7019
2026-07-21T15:40:57.994,13.9533,28.6788,65.5452
2026-07-21T15:40:58.007,13.9864,28.5025,65.1928
2026-07-21T15:40:58.007,13.9864,28.4634,64.8599
2026-07-21T15:40:58.022,14.012,28.6396,64.6249
2026-07-21T15:40:58.022,14.0156,28.8354,64.4683
2026-07-21T15:40:58.040,14.0156,29.0116,64.3312
2026-07-21T15:40:58.053,14.0402,29.1879,64.0179
2026-07-21T15:40:58.053,14.0402,29.3249,63.8025
2026-07-21T15:40:58.069,14.0479,29.3837,63.7634
2026-07-21T15:40:58.085,14.0647,29.1683,63.7634
2026-07-21T15:40:58.094,14.0687,28.8942,63.7242
2026-07-21T15:40:58.106,14.0843,28.7375,63.6067
2026-07-21T15:40:58.116,14.0843,28.62,63.5676
2026-07-21T15:40:58.122,14.0948,28.4046,63.4697
2026-07-21T15:40:58.138,14.1114,28.3263,63.4305
2026-07-21T15:40:58.138,14.1185,28.248,63.1955
2026-07-21T15:40:58.165,14.1403,28.3655,62.8627
2026-07-21T15:40:58.165,14.142,28.3655,62.5102
2026-07-21T15:40:58.172,14.143,28.4046,62.2165
2026-07-21T15:40:58.181,14.1587,28.4046,62.0403
2026-07-21T15:40:58.196,14.167,28.5417,62.0011
2026-07-21T15:40:58.197,14.1753,28.7571,61.9815
2026-07-21T15:40:58.212,14.19,28.9725,61.8249
2026-07-21T15:40:58.227,14.2109,28.9333,61.727
2026-07-21T15:40:58.229,14.2109,28.8354,61.4724
2026-07-21T15:40:58.246,14.2179,28.6592,61.0612
2026-07-21T15:40:58.258,14.2403,28.62,60.6109
2026-07-21T15:40:58.264,14.2403,28.5221,60.4738
2026-07-21T15:40:58.277,14.2661,28.6592,60.3955
2026-07-21T15:40:58.290,14.2676,28.7767,60.3172
2026-07-21T15:40:58.294,14.2676,28.9529,60.4346
2026-07-21T15:40:58.306,14.2905,29.1683,60.4934
2026-07-21T15:40:58.312,14.2925,29.4228,60.7284
2026-07-21T15:40:58.326,14.2962,29.5795,60.7479
2026-07-21T15:40:58.340,14.315,29.6578,60.7871
2026-07-21T15:40:58.346,14.315,29.5795,60.7284
2026-07-21T15:40:58.359,14.3404,29.5207,60.8067
2026-07-21T15:40:58.359,14.3404,29.5403,60.9633
2026-07-21T15:40:58.369,14.3436,29.4816,61.0025
2026-07-21T15:40:58.385,14.3652,29.5403,61.0612
2026-07-21T15:40:58.399,14.3679,29.834,60.9437
2026-07-21T15:40:58.415,14.3867,30.0494,60.7479
2026-07-21T15:40:58.415,14.3867,29.9711,60.7088
2026-07-21T15:40:58.421,14.3867,29.6774,60.5325
2026-07-21T15:40:58.433,14.4107,29.4228,60.2976
2026-07-21T15:40:58.440,14.4107,29.1487,60.0822
2026-07-21T15:40:58.453,14.4383,29.0116,59.906
2026-07-21T15:40:58.464,14.4383,28.8158,59.7689
2026-07-21T15:40:58.464,14.4595,28.9333,59.7493
2026-07-21T15:40:58.483,14.4595,29.0312,59.8081
2026-07-21T15:40:58.497,14.4682,29.1487,59.9843
2026-07-21T15:40:58.512,14.4903,29.2662,59.906
2026-07-21T15:40:58.513,14.4903,29.3837,59.906
2026-07-21T15:40:58.522,14.4903,29.5991,59.7102
2026-07-21T15:40:58.531,14.5104,29.7165,59.671
2026-07-21T15:40:58.544,14.5104,29.9319,59.671
2026-07-21T15:40:58.544,14.5219,30.0494,59.8864
2026-07-21T15:40:58.564,14.5404,30.0298,60.0234
2026-07-21T15:40:58.576,14.5444,30.0103,60.043
2026-07-21T15:40:58.591,14.5639,29.9124,60.0039
2026-07-21T15:40:58.594,14.5686,29.9319,59.906
2026-07-21T15:40:58.607,14.5843,30.0103,59.8472
2026-07-21T15:40:58.607,14.5843,30.1082,59.7885
2026-07-21T15:40:58.622,14.5843,30.2256,59.7297
2026-07-21T15:40:58.638,14.6156,30.3235,59.6318
2026-07-21T15:40:58.638,14.6156,30.4998,59.6906
2026-07-21T15:40:58.658,14.6405,30.7347,59.7297
2026-07-21T15:40:58.666,14.6405,30.8131,59.7689
2026-07-21T15:40:58.669,14.6472,30.911,59.7885
2026-07-21T15:40:58.685,14.6689,30.9306,59.6123
2026-07-21T15:40:58.694,14.6689,30.8522,59.5731
2026-07-21T15:40:58.708,14.6943,30.7935,59.4948
2026-07-21T15:40:58.717,14.6943,30.911,59.5535
2026-07-21T15:40:58.723,14.7043,31.048,59.671
2026-07-21T15:40:58.732,14.7256,31.2634,59.6906
2026-07-21T15:40:58.732,14.7256,31.3222,59.7102
2026-07-21T15:40:58.758,14.7304,31.3417,59.671
2026-07-21T15:40:58.764,14.7304,31.1068,59.6123
2026-07-21T15:40:58.772,14.7513,30.9697,59.6318
2026-07-21T15:40:58.784,14.7568,30.9501,59.5339
2026-07-21T15:40:58.794,14.7793,31.0285,59.5339
2026-07-21T15:40:58.805,14.7793,30.9501,59.436
2026-07-21T15:40:58.810,14.7922,30.911,59.2794
2026-07-21T15:40:58.826,14.804,30.8522,59.2402
2026-07-21T15:40:58.833,14.804,30.8914,59.3577
2026-07-21T15:40:58.846,14.8206,30.8914,59.3577
2026-07-21T15:40:58.846,14.8206,30.9893,59.436
2026-07-21T15:40:58.874,14.8544,31.1068,59.4164
2026-07-21T15:40:58.874,14.8566,31.3417,59.3969
2026-07-21T15:40:58.874,14.8566,31.3613,59.436
2026-07-21T15:40:58.895,14.8696,31.4788,59.5143
2026-07-21T15:40:58.905,14.8833,31.4397,59.5535
2026-07-21T15:40:58.910,14.8869,31.518,59.4752
2026-07-21T15:40:58.923,14.8999,31.4788,59.2598
2026-07-21T15:40:58.937,14.9101,31.4005,59.1815
2026-07-21T15:40:58.941,14.9121,31.4397,59.1815
2026-07-21T15:40:58.954,14.9312,31.4984,59.3185
2026-07-21T15:40:58.966,14.9377,31.2634,59.299
2026-07-21T15:40:58.968,14.9529,31.1655,59.2794
2026-07-21T15:40:58.989,14.9529,31.048,59.3577
2026-07-21T15:40:58.998,14.978,31.0285,59.3381
2026-07-21T15:40:59.006,14.978,31.0089,59.4556
2026-07-21T15:40:59.016,14.9927,31.2243,59.5339
2026-07-21T15:40:59.023,14.9927,31.1655,59.6318
2026-07-21T15:40:59.038,14.9927,31.2243,59.6906
2026-07-21T15:40:59.038,15.024,31.1068,59.7689
2026-07-21T15:40:59.046,15.024,31.3026,59.8276
2026-07-21T15:40:59.062,15.0517,31.3809,59.8081
2026-07-21T15:40:59.062,15.0517,31.5376,59.8081
2026-07-21T15:40:59.078,15.0572,31.5376,59.6318
2026-07-21T15:40:59.095,15.071,31.3809,59.4948
2026-07-21T15:40:59.105,15.071,31.3417,59.4752
2026-07-21T15:40:59.125,15.0908,31.2047,59.5927
2026-07-21T15:40:59.125,15.1027,31.0872,59.7493
2026-07-21T15:40:59.125,15.1027,31.1068,59.8081
2026-07-21T15:40:59.144,15.1242,30.9306,59.7102
2026-07-21T15:40:59.156,15.1242,30.7739,59.4948
2026-07-21T15:40:59.156,15.1509,30.5977,59.1032
2026-07-21T15:40:59.178,15.1509,30.6173,58.9269
2026-07-21T15:40:59.178,15.1509,30.441,58.9465
2026-07-21T15:40:59.203,15.1703,30.4019,58.9465
2026-07-21T15:40:59.204,15.1827,30.2256,58.9269
2026-07-21T15:40:59.204,15.1872,30.0886,58.829
2026-07-21T15:40:59.224,15.1984,29.9907,58.6528
2026-07-21T15:40:59.236,15.2096,29.8732,58.3982
2026-07-21T15:40:59.252,15.231,29.8144,58.2416
2026-07-21T15:40:59.252,15.231,29.8536,58.085
2026-07-21T15:40:59.267,15.2455,29.8536,57.8891
2026-07-21T15:40:59.267,15.2455,29.7753,57.9479
2026-07-21T15:40:59.285,15.2455,29.7949,57.9871
2026-07-21T15:40:59.299,15.2772,29.8144,58.0262
2026-07-21T15:40:59.299,15.2772,29.8536,58.0066
2026-07-21T15:40:59.319,15.3007,29.9711,57.9087
2026-07-21T15:40:59.324,15.3007,30.069,57.7717
2026-07-21T15:40:59.331,15.3058,30.2452,57.7717
2026-07-21T15:40:59.331,15.3103,30.4606,57.7325
2026-07-21T15:40:59.354,15.327,30.5977,57.7325
2026-07-21T15:40:59.364,15.3413,30.5194,57.6346
2026-07-21T15:40:59.364,15.3413,30.5194,57.7717
2026-07-21T15:40:59.395,15.357,30.6564,57.6738
2026-07-21T15:40:59.395,15.357,30.6956,57.5954
2026-07-21T15:40:59.395,15.3886,30.6173,57.478
2026-07-21T15:40:59.411,15.3886,30.5585,57.2821
2026-07-21T15:40:59.427,15.3886,30.4802,57.2234
2026-07-21T15:40:59.427,15.4141,30.5781,57.2234
2026-07-21T15:40:59.442,15.4141,30.7152,57.2038
2026-07-21T15:40:59.459,15.436,30.7739,57.3996
2026-07-21T15:40:59.468,15.436,30.8131,57.5171
2026-07-21T15:40:59.474,15.4414,30.9306,57.7129
2026-07-21T15:40:59.490,15.452,31.0285,57.8304
2026-07-21T15:40:59.495,15.4683,31.0285,57.6933
2026-07-21T15:40:59.506,15.4844,30.8718,57.4975
2026-07-21T15:40:59.506,15.4844,30.8522,57.243
2026-07-21T15:40:59.525,15.5064,30.7347,57.1451
2026-07-21T15:40:59.537,15.5064,30.6956,57.2626
2026-07-21T15:40:59.538,15.5291,30.6564,57.243
2026-07-21T15:40:59.553,15.5309,30.4606,57.3409
2026-07-21T15:40:59.560,15.5309,30.304,57.3605
2026-07-21T15:40:59.569,15.5466,30.2256,57.3017
2026-07-21T15:40:59.584,15.5466,30.069,57.0472
2026-07-21T15:40:59.595,15.5748,30.069,56.773
2026-07-21T15:40:59.600,15.5748,29.9319,56.4598
2026-07-21T15:40:59.616,15.5938,29.7949,56.3814
2026-07-21T15:40:59.628,15.5938,29.6774,56.4206
2026-07-21T15:40:59.647,15.6097,29.6382,56.5185
2026-07-21T15:40:59.647,15.6097,29.5991,56.5381
2026-07-21T15:40:59.647,15.6258,29.5599,56.4598
2026-07-21T15:40:59.663,15.6412,29.5207,56.2835
2026-07-21T15:40:59.663,15.6412,29.4424,56.2248
2026-07-21T15:40:59.679,15.6573,29.4424,56.166
2026-07-21T15:40:59.695,15.6573,29.5012,56.1269
2026-07-21T15:40:59.695,15.6731,29.462,56.1269
2026-07-21T15:40:59.711,15.6926,29.5795,56.166
2026-07-21T15:40:59.727,15.6926,29.9319,56.5577
2026-07-21T15:40:59.742,15.7049,30.4019,57.2234
2026-07-21T15:40:59.746,15.7049,30.6368,57.7129
2026-07-21T15:40:59.758,15.7414,30.7739,57.8891
2026-07-21T15:40:59.758,15.7414,30.6173,57.8304
2026-07-21T15:40:59.774,15.7414,30.5977,57.9087
2026-07-21T15:40:59.790,15.7639,30.4606,58.0066
2026-07-21T15:40:59.795,15.7639,30.1277,57.7521
2026-07-21T15:40:59.806,15.7835,29.5599,57.3213
2026-07-21T15:40:59.806,15.7835,29.1095,56.7535
2026-07-21T15:40:59.821,15.7992,28.62,56.3423
2026-07-21T15:40:59.837,15.81,28.1892,56.0877
2026-07-21T15:40:59.837,15.81,27.9151,55.9311
2026-07-21T15:40:59.853,15.8355,27.8368,55.9898
2026-07-21T15:40:59.869,15.8385,27.6801,55.9702
2026-07-21T15:40:59.869,15.8475,27.6606,55.6374
2026-07-21T15:40:59.890,15.8475,27.3081,54.9325
2026-07-21T15:40:59.895,15.8778,26.8969,53.9534
2026-07-21T15:40:59.901,15.8778,26.1724,52.759
2026-07-21T15:40:59.901,15.8778,24.9976,50.938
2026-07-21T15:40:59.931,15.903,23.2353,48.275
2026-07-21T15:40:59.931,15.903,20.8856,43.8302
2026-07-21T15:40:59.947,15.9261,17.7135,38.0734
2026-07-21T15:40:59.947,15.9261,14.0715,31.3181
2026-07-21T15:40:59.963,15.9413,10.1945,23.6228
2026-07-21T15:40:59.979,15.9596,5.7497,16.7304
2026-07-21T15:40:59.980,15.9693,2.186,11.6981
2026-07-21T15:40:59.995,15.9979,-0.105,8.0953
2026-07-21T15:40:59.995,16.0019,-1.456,5.4519
2026-07-21T15:41:00.029,16.0119,-2.2393,3.5525
2026-07-21T15:41:00.029,16.0129,-2.5134,2.3581
2026-07-21T15:41:00.038,16.0305,-2.3763,1.5161
2026-07-21T15:41:00.046,16.0414,-2.2001,0.9679
2026-07-21T15:41:00.063,16.0516,-1.4952,0.8308
2026-07-21T15:41:00.065,16.0516,-0.9861,0.8308
2026-07-21T15:41:00.084,16.0757,-0.3203,0.9679
2026-07-21T15:41:00.084,16.0784,-0.105,0.9875
2026-07-21T15:41:00.098,16.0834,-0.2029,0.6937
2026-07-21T15:41:00.105,16.0861,-0.1441,0.5567
2026-07-21T15:41:00.116,16.1082,-0.1441,0.5371
2026-07-21T15:41:00.129,16.11,-0.0462,0.6154
2026-07-21T15:41:00.137,16.1137,-0.007,0.5175
2026-07-21T15:41:00.148,16.1259,0.0125,0.5371
2026-07-21T15:41:00.148,16.1259,0.1104,0.6546
2026-07-21T15:41:00.167,16.1377,-0.007,0.5763
2026-07-21T15:41:00.180,16.1417,-0.0266,0.6154
2026-07-21T15:41:00.180,16.1583,-0.105,0.5371
2026-07-21T15:41:00.195,16.174,-0.0854,0.5763
2026-07-21T15:41:00.195,16.174,-0.0854,0.5567
2026-07-21T15:41:00.228,16.1898,-0.0854,0.5175
2026-07-21T15:41:00.228,16.1898,-0.0462,0.4979
2026-07-21T15:41:00.238,16.2179,-0.0854,0.5371
2026-07-21T15:41:00.243,16.2204,-0.105,0.5175
2026-07-21T15:41:00.259,16.236,-0.1441,0.5371
2026-07-21T15:41:00.259,16.2375,-0.105,0.5567
2026-07-21T15:41:00.274,16.2375,-0.1245,0.4588
2026-07-21T15:41:00.276,16.2519,-0.1245,0.5175
2026-07-21T15:41:00.291,16.2519,-0.1441,0.5371
2026-07-21T15:41:00.305,16.2744,-0.105,0.5567
2026-07-21T15:41:00.305,16.2948,-0.0854,0.5371
2026-07-21T15:41:00.328,16.2948,-0.1833,0.5763
2026-07-21T15:41:00.339,16.3166,-0.1441,0.5567
2026-07-21T15:41:00.348,16.3166,-0.1637,0.5567
2026-07-21T15:41:00.353,16.3341,-0.1637,0.5958
2026-07-21T15:41:00.353,16.3341,-0.1245,0.5175
2026-07-21T15:41:00.370,16.3471,-0.1637,0.5371
2026-07-21T15:41:00.386,16.3471,-0.0854,0.5958
2026-07-21T15:41:00.401,16.3627,-0.0854,0.5567
2026-07-21T15:41:00.401,16.3627,-0.1441,0.5567
2026-07-21T15:41:00.416,16.3807,-0.2029,0.5958
2026-07-21T15:41:00.416,16.3807,-0.105,0.635
2026-07-21T15:41:00.434,16.3945,-0.1637,0.5567
2026-07-21T15:41:00.434,16.4119,-0.1637,0.5958
2026-07-21T15:41:00.448,16.4258,-0.0854,0.5175
2026-07-21T15:41:00.465,16.4419,-0.0658,0.6546
2026-07-21T15:41:00.465,16.4419,-0.1833,0.5371
2026-07-21T15:41:00.479,16.4571,-0.1637,0.5567
2026-07-21T15:41:00.496,16.4571,-0.1441,0.5763
2026-07-21T15:41:00.511,16.4749,-0.1245,0.5958
2026-07-21T15:41:00.511,16.4749,-0.1833,0.5371
2026-07-21T15:41:00.528,16.4988,-0.2224,0.5763
2026-07-21T15:41:00.528,16.4988,-0.1833,0.5763
2026-07-21T15:41:00.544,16.5055,-0.1833,0.5958
2026-07-21T15:41:00.552,16.536,-0.1833,0.5567
2026-07-21T15:41:00.559,16.536,-0.2029,0.5763
2026-07-21T15:41:00.574,16.5517,-0.1441,0.6154
2026-07-21T15:41:00.574,16.5517,-0.1833,0.5958
2026-07-21T15:41:00.605,16.5679,-0.1441,0.6154
2026-07-21T15:41:00.605,16.5679,-0.2029,0.5763
2026-07-21T15:41:00.622,16.5833,-0.1833,0.5763
2026-07-21T15:41:00.622,16.5833,-0.1833,0.5763
2026-07-21T15:41:00.637,16.6014,-0.1637,0.5567
2026-07-21T15:41:00.637,16.6154,-0.1245,0.6546
2026-07-21T15:41:00.655,16.6154,-0.2029,0.5958
2026-07-21T15:41:00.669,16.6419,-0.1833,0.5763
2026-07-21T15:41:00.669,16.6419,-0.2029,0.6154
2026-07-21T15:41:00.696,16.6629,-0.2029,0.5958
2026-07-21T15:41:00.696,16.6629,-0.2029,0.6154
2026-07-21T15:41:00.701,16.6837,-0.2029,0.6154
2026-07-21T15:41:00.716,16.6837,-0.2224,0.635
2026-07-21T15:41:00.716,16.6942,-0.1637,0.6154
2026-07-21T15:41:00.737,16.6942,-0.2029,0.5763
2026-07-21T15:41:00.737,16.7206,-0.2029,0.6154
2026-07-21T15:41:00.748,16.7206,-0.2029,0.5763
2026-07-21T15:41:00.764,16.7279,-0.1637,0.6154
2026-07-21T15:41:00.780,16.7578,-0.2029,0.6154
2026-07-21T15:41:00.782,16.7578,-0.2029,0.6154
2026-07-21T15:41:00.782,16.7578,-0.1441,0.5958
2026-07-21T15:41:00.804,16.7759,-0.242,0.6742
2026-07-21T15:41:00.811,16.7759,-0.2224,0.5958
2026-07-21T15:41:00.830,16.7962,-0.1833,0.6546
2026-07-21T15:41:00.843,16.8069,-0.2029,0.7329
2026-07-21T15:41:00.843,16.8069,-0.242,0.5958
2026-07-21T15:41:00.861,16.8205,-0.1833,0.6546
2026-07-21T15:41:00.861,16.8205,-0.1833,0.5958
2026-07-21T15:41:00.874,16.852,-0.2029,0.5958
2026-07-21T15:41:00.874,16.852,-0.2812,0.5958
2026-07-21T15:41:00.896,16.8686,-0.242,0.635
2026-07-21T15:41:00.906,16.8686,-0.1833,0.6154
2026-07-21T15:41:00.922,16.8833,-0.2224,0.6546
2026-07-21T15:41:00.922,16.8833,-0.2224,0.6546
2026-07-21T15:41:00.937,16.9088,-0.242,0.5958
2026-07-21T15:41:00.937,16.9088,-0.2029,0.635
2026-07-21T15:41:00.953,16.9168,-0.2224,0.6546
2026-07-21T15:41:00.970,16.9462,-0.2029,0.7329
2026-07-21T15:41:00.970,16.9462,-0.2029,0.635
2026-07-21T15:41:00.989,16.9619,-0.2224,0.6937
2026-07-21T15:41:00.996,16.9619,-0.1637,0.6546
2026-07-21T15:41:01.015,16.9778,-0.1441,0.6546
2026-07-21T15:41:01.015,16.9778,-0.2029,0.635
2026-07-21T15:41:01.015,16.9976,-0.1833,0.6154
2026-07-21T15:41:01.031,16.9976,-0.2029,0.6546
2026-07-21T15:41:01.051,17.0249,-0.2224,0.6937
2026-07-21T15:41:01.051,17.0249,-0.2812,0.6154
2026-07-21T15:41:01.064,17.0456,-0.2616,0.6154
2026-07-21T15:41:01.064,17.0456,-0.1833,0.6154
2026-07-21T15:41:01.094,17.0562,-0.2224,0.6154
2026-07-21T15:41:01.099,17.0562,-0.2029,0.635
2026-07-21T15:41:01.110,17.0773,-0.2616,0.6742
2026-07-21T15:41:01.110,17.0773,-0.3008,0.6937
2026-07-21T15:41:01.126,17.1032,-0.3203,0.6546
2026-07-21T15:41:01.131,17.1032,-0.242,0.7329
2026-07-21T15:41:01.141,17.1189,-0.2029,0.6742
2026-07-21T15:41:01.141,17.1189,-0.2812,0.6742
2026-07-21T15:41:01.173,17.1425,-0.2616,0.635
2026-07-21T15:41:01.173,17.1425,-0.2616,0.635
2026-07-21T15:41:01.189,17.1644,-0.242,0.6546
2026-07-21T15:41:01.196,17.1664,-0.242,0.635
2026-07-21T15:41:01.204,17.183,-0.2616,0.6546
2026-07-21T15:41:01.220,17.183,-0.2812,0.635
2026-07-21T15:41:01.236,17.2021,-0.3008,0.6154
2026-07-21T15:41:01.237,17.2021,-0.2616,0.6742
2026-07-21T15:41:01.237,17.2149,-0.2224,0.6546
2026-07-21T15:41:01.256,17.2149,-0.3203,0.6546
2026-07-21T15:41:01.268,17.2299,-0.242,0.7329
2026-07-21T15:41:01.268,17.2466,-0.2616,0.6742
2026-07-21T15:41:01.284,17.2466,-0.3008,0.6742
2026-07-21T15:41:01.300,17.2765,-0.3008,0.635
2026-07-21T15:41:01.300,17.278,-0.2812,0.6154
2026-07-21T15:41:01.315,17.278,-0.3203,0.6742
2026-07-21T15:41:01.315,17.2961,-0.2029,0.7329
2026-07-21T15:41:01.337,17.3078,-0.3008,0.6742
2026-07-21T15:41:01.346,17.3078,-0.1637,0.7329
2026-07-21T15:41:01.350,17.3235,-0.1441,0.7133
2026-07-21T15:41:01.361,17.3235,-0.242,0.6742
2026-07-21T15:41:01.377,17.3426,-0.2616,0.6742
2026-07-21T15:41:01.389,17.3426,-0.2616,0.6546
2026-07-21T15:41:01.396,17.3707,-0.242,0.5958
2026-07-21T15:41:01.396,17.3707,-0.3203,0.6154
2026-07-21T15:41:01.410,17.3899,-0.2224,0.6154
2026-07-21T15:41:01.424,17.3899,-0.2224,0.7133
2026-07-21T15:41:01.440,17.4034,-0.242,0.6742
2026-07-21T15:41:01.444,17.4034,-0.2616,0.5958
2026-07-21T15:41:01.457,17.4188,-0.2616,0.6742
2026-07-21T15:41:01.472,17.4426,-0.2616,0.635
2026-07-21T15:41:01.472,17.4426,-0.3399,0.7525
2026-07-21T15:41:01.489,17.4508,-0.2812,0.6742
2026-07-21T15:41:01.496,17.4665,-0.2812,0.6937
2026-07-21T15:41:01.504,17.4822,-0.2029,0.7133
2026-07-21T15:41:01.504,17.4822,-0.2812,0.6937
2026-07-21T15:41:01.532,17.4978,-0.2616,0.7329
2026-07-21T15:41:01.536,17.4978,-0.2812,0.7133
2026-07-21T15:41:01.551,17.5142,-0.242,0.7329
2026-07-21T15:41:01.551,17.5142,-0.2616,0.6742
2026-07-21T15:41:01.568,17.5311,-0.242,0.7133
2026-07-21T15:41:01.568,17.5454,-0.3008,0.6546
2026-07-21T15:41:01.585,17.5454,-0.2616,0.6742
2026-07-21T15:41:01.599,17.5764,-0.1245,0.6937
2026-07-21T15:41:01.599,17.5764,-0.2616,0.6546
2026-07-21T15:41:01.615,17.592,-0.2224,0.6742
2026-07-21T15:41:01.615,17.592,-0.2616,0.6742
2026-07-21T15:41:01.646,17.6077,-0.3203,0.6546
2026-07-21T15:41:01.646,17.6077,-0.2616,0.5958
2026-07-21T15:41:01.661,17.6321,-0.3008,0.6937
2026-07-21T15:41:01.661,17.6321,-0.2616,0.6546
2026-07-21T15:41:01.677,17.6427,-0.2029,0.7133
2026-07-21T15:41:01.686,17.6427,-0.2616,0.7525
2026-07-21T15:41:01.696,17.6556,-0.3203,0.7329
2026-07-21T15:41:01.696,17.6884,-0.2616,0.6742
2026-07-21T15:41:01.709,17.6904,-0.2812,0.7133
2026-07-21T15:41:01.725,17.703,-0.2812,0.7329
2026-07-21T15:41:01.733,17.703,-0.2812,0.6937
2026-07-21T15:41:01.750,17.7188,-0.2224,0.7329
2026-07-21T15:41:01.757,17.7278,-0.242,0.6937
2026-07-21T15:41:01.765,17.7278,-0.3008,0.7133
2026-07-21T15:41:01.772,17.7428,-0.3008,0.7329
2026-07-21T15:41:01.788,17.7561,-0.2812,0.7329
2026-07-21T15:41:01.796,17.7561,-0.2224,0.6742
2026-07-21T15:41:01.810,17.7822,-0.2029,0.6742
2026-07-21T15:41:01.810,17.7822,-0.3203,0.6742
2026-07-21T15:41:01.822,17.7978,-0.2812,0.6937
2026-07-21T15:41:01.836,17.8135,-0.2616,0.7133
2026-07-21T15:41:01.851,17.8135,-0.2812,0.7525
2026-07-21T15:41:01.851,17.8291,-0.2616,0.7133
2026-07-21T15:41:01.867,17.8291,-0.2616,0.6742
2026-07-21T15:41:01.867,17.8449,-0.2616,0.6937
2026-07-21T15:41:01.883,17.8449,-0.2616,0.7133
2026-07-21T15:41:01.897,17.861,-0.3008,0.6742
2026-07-21T15:41:01.899,17.861,-0.2616,0.7329
2026-07-21T15:41:01.915,17.8925,-0.242,0.7329
2026-07-21T15:41:01.915,17.9082,-0.2224,0.7525
2026-07-21T15:41:01.934,17.9115,-0.1637,0.7525
2026-07-21T15:41:01.946,17.9115,-0.242,0.7329
2026-07-21T15:41:01.962,17.924,-0.2812,0.7133
2026-07-21T15:41:01.965,17.9318,-0.2224,0.7329
2026-07-21T15:41:01.978,17.9428,-0.2812,0.6937
2026-07-21T15:41:01.987,17.9556,-0.3008,0.7133
2026-07-21T15:41:01.996,17.9556,-0.2029,0.6937
2026-07-21T15:41:01.996,17.9809,-0.242,0.6742
2026-07-21T15:41:02.009,17.9809,-0.2224,0.7133
2026-07-21T15:41:02.028,18.0032,-0.105,0.6742
2026-07-21T15:41:02.035,18.0032,-0.3008,0.7133
2026-07-21T15:41:02.041,18.0188,-0.2029,0.7329
2026-07-21T15:41:02.041,18.0188,-0.2616,0.6742
2026-07-21T15:41:02.072,18.0429,-0.2029,0.6937
2026-07-21T15:41:02.072,18.0429,-0.2029,0.7133
2026-07-21T15:41:02.089,18.0516,-0.2029,0.7525
2026-07-21T15:41:02.097,18.0516,-0.242,0.7329
2026-07-21T15:41:02.105,18.0813,-0.2029,0.7525
2026-07-21T15:41:02.105,18.0833,-0.3203,0.7917
2026-07-21T15:41:02.120,18.0979,-0.2616,0.7329
2026-07-21T15:41:02.138,18.0979,-0.2224,0.7133
2026-07-21T15:41:02.152,18.1136,-0.2029,0.7133
2026-07-21T15:41:02.152,18.1293,-0.2224,0.7133
2026-07-21T15:41:02.167,18.1416,-0.2812,0.6937
2026-07-21T15:41:02.183,18.1514,-0.2812,0.6742
2026-07-21T15:41:02.183,18.1598,-0.2616,0.7133
2026-07-21T15:41:02.195,18.1608,-0.2224,0.7329
2026-07-21T15:41:02.205,18.1764,-0.2812,0.7721
2026-07-21T15:41:02.214,18.1764,-0.2812,0.7721
2026-07-21T15:41:02.230,18.1961,-0.242,0.6742
2026-07-21T15:41:02.235,18.2083,-0.2224,0.7133
2026-07-21T15:41:02.250,18.2083,-0.242,0.7917
2026-07-21T15:41:02.253,18.2264,-0.2812,0.7525
2026-07-21T15:41:02.262,18.2264,-0.2616,0.7133
2026-07-21T15:41:02.278,18.2548,-0.2029,0.7329
2026-07-21T15:41:02.280,18.2548,-0.2224,0.7329
2026-07-21T15:41:02.297,18.2747,-0.242,0.6937
2026-07-21T15:41:02.297,18.2747,-0.2224,0.635
2026-07-21T15:41:02.310,18.2886,-0.2616,0.7329
2026-07-21T15:41:02.327,18.2886,-0.242,0.6742
2026-07-21T15:41:02.342,18.3035,-0.3008,0.7329
2026-07-21T15:41:02.342,18.3035,-0.242,0.7133
2026-07-21T15:41:02.357,18.3192,-0.2616,0.7721
2026-07-21T15:41:02.357,18.3192,-0.242,0.6937
2026-07-21T15:41:02.373,18.3506,-0.2224,0.6937
2026-07-21T15:41:02.373,18.3506,-0.3203,0.7133
2026-07-21T15:41:02.397,18.3664,-0.242,0.7721
2026-07-21T15:41:02.408,18.3829,-0.2616,0.7329
2026-07-21T15:41:02.420,18.3829,-0.2812,0.8112
2026-07-21T15:41:02.428,18.3981,-0.2224,0.7525
2026-07-21T15:41:02.436,18.3981,-0.2812,0.6937
2026-07-21T15:41:02.452,18.4139,-0.2224,0.7133
2026-07-21T15:41:02.452,18.4139,-0.242,0.7525
2026-07-21T15:41:02.452,18.431,-0.2616,0.7721
2026-07-21T15:41:02.468,18.4431,-0.2224,0.7721
2026-07-21T15:41:02.485,18.4461,-0.2616,0.7525
2026-07-21T15:41:02.500,18.4774,-0.2224,0.7525
2026-07-21T15:41:02.500,18.4774,-0.1637,0.7917
2026-07-21T15:41:02.515,18.4931,-0.2616,0.6742
2026-07-21T15:41:02.523,18.4931,-0.2029,0.7329
2026-07-21T15:41:02.547,18.5087,-0.2616,0.7525
2026-07-21T15:41:02.547,18.5087,-0.242,0.7133
2026-07-21T15:41:02.562,18.5246,-0.3008,0.7133
2026-07-21T15:41:02.562,18.5246,-0.2224,0.7525
2026-07-21T15:41:02.562,18.5433,-0.2616,0.6937
2026-07-21T15:41:02.578,18.5679,-0.2224,0.7133
2026-07-21T15:41:02.597,18.5679,-0.2812,0.7721
2026-07-21T15:41:02.610,18.5832,-0.2029,0.6742
2026-07-21T15:41:02.611,18.5832,-0.2812,0.7721
2026-07-21T15:41:02.626,18.6039,-0.2224,0.7133
2026-07-21T15:41:02.637,18.6039,-0.1441,0.6937
2026-07-21T15:41:02.642,18.624,-0.242,0.7721
2026-07-21T15:41:02.658,18.624,-0.2616,0.8112
2026-07-21T15:41:02.665,18.6352,-0.2029,0.7525
2026-07-21T15:41:02.678,18.6434,-0.1245,0.7133
2026-07-21T15:41:02.689,18.651,-0.2029,0.7917
2026-07-21T15:41:02.697,18.6729,-0.242,0.7133
2026-07-21T15:41:02.705,18.6729,-0.2812,0.7133
2026-07-21T15:41:02.721,18.6983,-0.1833,0.6937
2026-07-21T15:41:02.727,18.6983,-0.2224,0.8112
2026-07-21T15:41:02.736,18.6983,-0.242,0.7721
2026-07-21T15:41:02.737,18.714,-0.2812,0.7525
2026-07-21T15:41:02.752,18.7297,-0.2616,0.7917
2026-07-21T15:41:02.768,18.7297,-0.2616,0.7525
2026-07-21T15:41:02.768,18.7486,-0.242,0.7525
2026-07-21T15:41:02.783,18.7486,-0.242,0.7525
2026-07-21T15:41:02.802,18.7729,-0.242,0.7525
2026-07-21T15:41:02.802,18.7729,-0.1833,0.8308
2026-07-21T15:41:02.815,18.7932,-0.3008,0.7525
2026-07-21T15:41:02.827,18.7932,-0.2616,0.7525
2026-07-21T15:41:02.839,18.8088,-0.2616,0.7721
2026-07-21T15:41:02.847,18.8088,-0.2812,0.7133
2026-07-21T15:41:02.862,18.8317,-0.242,0.7133
2026-07-21T15:41:02.862,18.8317,-0.3008,0.7721
2026-07-21T15:41:02.878,18.8432,-0.242,0.6937
2026-07-21T15:41:02.885,18.8432,-0.2029,0.7133
2026-07-21T15:41:02.897,18.8598,-0.2029,0.7525
2026-07-21T15:41:02.913,18.8875,-0.242,0.7721
2026-07-21T15:41:02.913,18.8875,-0.242,0.8504
2026-07-21T15:41:02.938,18.9089,-0.242,0.6742
2026-07-21T15:41:02.938,18.9089,-0.242,0.6546
2026-07-21T15:41:02.946,18.9202,-0.2616,0.7721
2026-07-21T15:41:02.961,18.9202,-0.2616,0.8308
2026-07-21T15:41:02.969,18.9475,-0.2224,0.7329
2026-07-21T15:41:02.974,18.9475,-0.2224,0.7721
2026-07-21T15:41:02.988,18.9656,-0.2224,0.8308
2026-07-21T15:41:02.997,18.9656,-0.3008,0.7133
2026-07-21T15:41:03.012,18.9845,-0.2812,0.7721
2026-07-21T15:41:03.012,18.9845,-0.1637,0.7525
2026-07-21T15:41:03.036,18.9979,-0.3008,0.7721
2026-07-21T15:41:03.038,18.9979,-0.2812,0.7329
2026-07-21T15:41:03.052,19.013,-0.242,0.7525
2026-07-21T15:41:03.052,19.0289,-0.2029,0.7525
2026-07-21T15:41:03.067,19.0289,-0.242,0.7133
2026-07-21T15:41:03.067,19.0289,-0.242,0.7133
2026-07-21T15:41:03.082,19.0503,-0.3399,0.635
2026-07-21T15:41:03.104,19.0773,-0.3008,0.5958
2026-07-21T15:41:03.104,19.0778,-0.3203,0.5763
2026-07-21T15:41:03.115,19.0955,-0.3008,0.5958
2026-07-21T15:41:03.130,19.0955,-0.3399,0.5763
2026-07-21T15:41:03.138,19.1078,-0.3987,0.5567
2026-07-21T15:41:03.149,19.1078,-0.3399,0.5371
2026-07-21T15:41:03.161,19.1332,-0.3203,0.5567
2026-07-21T15:41:03.161,19.1332,-0.242,0.6154
2026-07-21T15:41:03.177,19.1453,-0.3203,0.7329
2026-07-21T15:41:03.187,19.1554,-0.242,0.7329
2026-07-21T15:41:03.199,19.1711,-0.2812,0.7133
2026-07-21T15:41:03.199,19.1711,-0.2616,0.7917
2026-07-21T15:41:03.209,19.1869,-0.242,0.7525
2026-07-21T15:41:03.225,19.1869,-0.1833,0.6937
2026-07-21T15:41:03.241,19.2031,-0.2224,0.6937
2026-07-21T15:41:03.241,19.2031,-0.3008,0.7329
2026-07-21T15:41:03.257,19.2203,-0.3008,0.7525
2026-07-21T15:41:03.273,19.2516,-0.3008,0.7525
2026-07-21T15:41:03.274,19.2522,-0.2812,0.7133
2026-07-21T15:41:03.289,19.2674,-0.2812,0.7329
2026-07-21T15:41:03.297,19.2716,-0.3008,0.6937
2026-07-21T15:41:03.314,19.2858,-0.3008,0.635
2026-07-21T15:41:03.321,19.2911,-0.3987,0.7525
2026-07-21T15:41:03.332,19.299,-0.3399,0.6937
2026-07-21T15:41:03.339,19.299,-0.3008,0.6937
2026-07-21T15:41:03.345,19.299,-0.3399,0.7133
2026-07-21T15:41:03.353,19.3314,-0.2812,0.6154
2026-07-21T15:41:03.353,19.3334,-0.2812,0.6154
2026-07-21T15:41:03.375,19.3452,-0.3399,0.5763
2026-07-21T15:41:03.387,19.3452,-0.2812,0.5958
2026-07-21T15:41:03.399,19.3706,-0.3399,0.635
2026-07-21T15:41:03.399,19.3706,-0.2616,0.635
2026-07-21T15:41:03.415,19.3861,-0.3008,0.6937
2026-07-21T15:41:03.424,19.4093,-0.3008,0.6742
2026-07-21T15:41:03.440,19.4093,-0.3008,0.6546
2026-07-21T15:41:03.446,19.424,-0.2812,0.635
2026-07-21T15:41:03.463,19.424,-0.3399,0.6154
2026-07-21T15:41:03.468,19.4438,-0.3595,0.6154
2026-07-21T15:41:03.478,19.4438,-0.3203,0.5958
2026-07-21T15:41:03.478,19.4588,-0.3399,0.6154
2026-07-21T15:41:03.497,19.4588,-0.3203,0.4979
2026-07-21T15:41:03.512,19.4874,-0.3595,0.6154
2026-07-21T15:41:03.512,19.4874,-0.3791,0.635
2026-07-21T15:41:03.525,19.5031,-0.2616,0.6937
2026-07-21T15:41:03.540,19.5031,-0.2812,0.6546
2026-07-21T15:41:03.557,19.5189,-0.2812,0.7525
2026-07-21T15:41:03.557,19.5189,-0.2616,0.7133
2026-07-21T15:41:03.557,19.5439,-0.2812,0.7721
2026-07-21T15:41:03.573,19.5439,-0.2616,0.7329
2026-07-21T15:41:03.589,19.5671,-0.2616,0.7329
2026-07-21T15:41:03.597,19.5671,-0.3203,0.7329
2026-07-21T15:41:03.604,19.5832,-0.2616,0.7329
2026-07-21T15:41:03.604,19.5832,-0.2812,0.7917
2026-07-21T15:41:03.637,19.5979,-0.2616,0.7133
2026-07-21T15:41:03.637,19.5979,-0.3008,0.7525
2026-07-21T15:41:03.651,19.6135,-0.242,0.7525
2026-07-21T15:41:03.651,19.6135,-0.2616,0.7329
2026-07-21T15:41:03.667,19.6293,-0.242,0.7329
2026-07-21T15:41:03.667,19.6451,-0.2616,0.7133
2026-07-21T15:41:03.683,19.659,-0.3008,0.6742
2026-07-21T15:41:03.699,19.6764,-0.3008,0.6937
2026-07-21T15:41:03.699,19.6764,-0.242,0.7329
2026-07-21T15:41:03.721,19.692,-0.3008,0.6937
2026-07-21T15:41:03.730,19.692,-0.3595,0.7133
2026-07-21T15:41:03.730,19.7167,-0.3791,0.5371
2026-07-21T15:41:03.746,19.7167,-0.3791,0.6742
2026-07-21T15:41:03.761,19.7234,-0.3987,0.5958
2026-07-21T15:41:03.761,19.7234,-0.4182,0.635
2026-07-21T15:41:03.777,19.7546,-0.3987,0.5958
2026-07-21T15:41:03.777,19.7546,-0.4182,0.6154
2026-07-21T15:41:03.798,19.7741,-0.3203,0.635
2026-07-21T15:41:03.808,19.7741,-0.3791,0.6154
2026-07-21T15:41:03.808,19.7877,-0.3595,0.6937
2026-07-21T15:41:03.830,19.7877,-0.3399,0.635
2026-07-21T15:41:03.841,19.8128,-0.3791,0.6937
2026-07-21T15:41:03.841,19.8179,-0.3791,0.6546
2026-07-21T15:41:03.856,19.833,-0.3987,0.635
2026-07-21T15:41:03.871,19.8519,-0.3987,0.5958
2026-07-21T15:41:03.871,19.853,-0.4574,0.5958
2026-07-21T15:41:03.887,19.8536,-0.3987,0.6937
2026-07-21T15:41:03.903,19.8643,-0.4378,0.6154
2026-07-21T15:41:03.908,19.8643,-0.477,0.635
2026-07-21T15:41:03.918,19.888,-0.4182,0.5763
2026-07-21T15:41:03.918,19.8961,-0.4378,0.5567
2026-07-21T15:41:03.942,19.8961,-0.4574,0.5958
2026-07-21T15:41:03.950,19.9274,-0.4966,0.5371
2026-07-21T15:41:03.950,19.9274,-0.5553,0.4784
2026-07-21T15:41:03.966,19.9484,-0.5553,0.4979
2026-07-21T15:41:03.966,19.9484,-0.5553,0.5567
2026-07-21T15:41:03.989,19.9583,-0.5553,0.5175
2026-07-21T15:41:03.998,19.9583,-0.5161,0.4784
2026-07-21T15:41:04.012,19.9783,-0.5357,0.5763
2026-07-21T15:41:04.012,19.9783,-0.4378,0.5958
2026-07-21T15:41:04.032,20.0061,-0.3987,0.5958
2026-07-21T15:41:04.032,20.0079,-0.3987,0.5567
2026-07-21T15:41:04.047,20.0221,-0.4378,0.5958
2026-07-21T15:41:04.059,20.0221,-0.477,0.5567
2026-07-21T15:41:04.076,20.0442,-0.4182,0.6742
2026-07-21T15:41:04.076,20.0442,-0.3595,0.635
2026-07-21T15:41:04.091,20.0588,-0.2616,0.6937
2026-07-21T15:41:04.098,20.0588,-0.3399,0.7329
2026-07-21T15:41:04.107,20.085,-0.3008,0.7329
2026-07-21T15:41:04.112,20.0887,-0.3987,0.7721
2026-07-21T15:41:04.122,20.1007,-0.4378,0.7133
2026-07-21T15:41:04.139,20.1007,-0.4574,0.6546
2026-07-21T15:41:04.142,20.128,-0.4182,0.6937
2026-07-21T15:41:04.154,20.128,-0.4182,0.7133
2026-07-21T15:41:04.169,20.1475,-0.4182,0.8308
2026-07-21T15:41:04.169,20.1475,-0.477,0.7525
2026-07-21T15:41:04.185,20.1631,-0.3791,0.8112
2026-07-21T15:41:04.198,20.1631,-0.3987,0.8504
2026-07-21T15:41:04.210,20.1792,-0.3595,0.8896
2026-07-21T15:41:04.217,20.1889,-0.3595,0.9287
2026-07-21T15:41:04.233,20.1952,-0.3203,0.9483
2026-07-21T15:41:04.233,20.1952,-0.4182,0.9287
2026-07-21T15:41:04.249,20.2266,-0.3595,1.0462
2026-07-21T15:41:04.249,20.2266,-0.3791,1.1637
2026-07-21T15:41:04.264,20.2495,-0.3595,1.1441
2026-07-21T15:41:04.280,20.2495,-0.3203,1.1833
2026-07-21T15:41:04.290,20.2586,-0.242,1.3007
2026-07-21T15:41:04.298,20.2748,-0.1833,1.3399
2026-07-21T15:41:04.312,20.2913,-0.2616,1.3595
2026-07-21T15:41:04.312,20.2913,-0.2812,1.3595
2026-07-21T15:41:04.328,20.2913,-0.3203,1.3791
2026-07-21T15:41:04.328,20.3184,-0.3203,1.4574
2026-07-21T15:41:04.345,20.3219,-0.2812,1.3987
2026-07-21T15:41:04.360,20.3376,-0.3008,1.3399
2026-07-21T15:41:04.360,20.3376,-0.242,1.4378
2026-07-21T15:41:04.376,20.3547,-0.1441,1.477
2026-07-21T15:41:04.391,20.3547,-0.1833,1.477
2026-07-21T15:41:04.398,20.3547,-0.1637,1.5357
2026-07-21T15:41:04.408,20.3843,-0.1441,1.5945
2026-07-21T15:41:04.408,20.3843,-0.1245,1.6728
2026-07-21T15:41:04.422,20.4073,-0.0854,1.7119
2026-07-21T15:41:04.438,20.4073,-0.0854,1.8098
2026-07-21T15:41:04.448,20.4161,-0.007,1.9469
2026-07-21T15:41:04.460,20.4325,0.0321,2.0448
2026-07-21T15:41:04.461,20.4476,0.0125,2.221
2026-07-21T15:41:04.470,20.4476,-0.0658,2.3777
2026-07-21T15:41:04.490,20.4633,0.0125,2.6518
2026-07-21T15:41:04.498,20.4789,0.0517,3.2001
2026-07-21T15:41:04.501,20.4877,0.0321,4.0421
2026-07-21T15:41:04.517,20.4949,0.2083,5.2756
2026-07-21T15:41:04.533,20.5125,0.5412,7.1358
2026-07-21T15:41:04.541,20.5125,1.1874,9.6617
2026-07-21T15:41:04.549,20.5447,2.3035,12.9317
2026-07-21T15:41:04.549,20.5447,3.5958,16.6325
2026-07-21T15:41:04.566,20.5579,5.1819,20.5291
2026-07-21T15:41:04.580,20.5708,6.7875,24.6998
2026-07-21T15:41:04.580,20.5907,8.5302,28.7726
2026-07-21T15:41:04.598,20.5942,10.1749,32.5321
2026-07-21T15:41:04.622,20.5942,11.8001,36.1937
2026-07-21T15:41:04.622,20.6057,13.582,39.9728
2026-07-21T15:41:04.628,20.6067,13.9736,43.0469
2026-07-21T15:41:04.628,20.6215,14.2086,45.3183
2026-07-21T15:41:04.648,20.63,15.4813,46.8456
2026-07-21T15:41:04.660,20.6351,16.4408,47.9617
2026-07-21T15:41:04.660,20.6529,17.1849,48.9407
2026-07-21T15:41:04.675,20.6529,18.0268,49.9002
2026-07-21T15:41:04.689,20.6529,18.6143,50.6638
2026-07-21T15:41:04.698,20.6687,18.9667,50.9967
2026-07-21T15:41:04.706,20.6845,19.2213,51.545
2026-07-21T15:41:04.706,20.7001,19.2996,52.0345
2026-07-21T15:41:04.722,20.7001,19.4366,52.5632
2026-07-21T15:41:04.738,20.7001,19.4562,52.9744
2026-07-21T15:41:04.754,20.7252,19.3583,53.1702
2026-07-21T15:41:04.754,20.7252,19.2213,53.4052
2026-07-21T15:41:04.770,20.7474,19.1821,53.8359
2026-07-21T15:41:04.779,20.7474,19.28,54.6192
2026-07-21T15:41:04.785,20.7575,19.4171,55.5003
2026-07-21T15:41:04.801,20.775,19.4171,55.8527
2026-07-21T15:41:04.811,20.7792,19.1821,55.9702
2026-07-21T15:41:04.822,20.7948,19.1821,56.1073
2026-07-21T15:41:04.829,20.7948,19.3583,56.2835
2026-07-21T15:41:04.833,20.8188,19.5345,56.5381
2026-07-21T15:41:04.848,20.8209,19.7108,56.9297
2026-07-21T15:41:04.848,20.8262,19.6912,57.008
2026-07-21T15:41:04.864,20.8452,19.6716,57.0863
2026-07-21T15:41:04.875,20.8483,19.6716,57.5367
2026-07-21T15:41:04.880,20.8578,19.9457,58.1829
2026-07-21T15:41:04.901,20.8578,20.1416,58.8486
2026-07-21T15:41:04.911,20.8879,20.2786,59.1619
2026-07-21T15:41:04.911,20.8911,20.3374,59.3381
2026-07-21T15:41:04.927,20.8911,20.5723,59.7102
2026-07-21T15:41:04.927,20.9057,20.6702,60.278
2026-07-21T15:41:04.945,20.9057,20.9248,60.8263
2026-07-21T15:41:04.959,20.936,21.0423,61.1787
2026-07-21T15:41:04.959,20.9412,21.101,61.4528
2026-07-21T15:41:04.986,20.9583,20.8856,61.8053
2026-07-21T15:41:04.991,20.9583,20.7681,62.471
2026-07-21T15:41:04.999,20.9719,20.7486,62.9606
2026-07-21T15:41:05.006,20.984,20.7877,62.9214
2026-07-21T15:41:05.012,20.9887,20.8465,62.941
2026-07-21T15:41:05.026,20.9998,20.9835,63.2934
2026-07-21T15:41:05.038,20.9998,21.2381,63.7438
2026-07-21T15:41:05.053,21.022,21.3556,64.1746
2026-07-21T15:41:05.053,21.0334,21.5122,64.3704
2026-07-21T15:41:05.069,21.0529,21.7276,64.6641
2026-07-21T15:41:05.076,21.0529,22.0213,64.9774
2026-07-21T15:41:05.087,21.0614,22.3933,65.3103
2026-07-21T15:41:05.102,21.0788,22.6087,65.7019
2026-07-21T15:41:05.107,21.0788,22.8045,66.1522
2026-07-21T15:41:05.117,21.0968,22.922,66.6809
2026-07-21T15:41:05.117,21.0968,22.922,67.0334
2026-07-21T15:41:05.132,21.0968,23.0003,67.5033
2026-07-21T15:41:05.148,21.1278,22.9024,68.0124
2026-07-21T15:41:05.150,21.1278,22.8829,68.5019
2026-07-21T15:41:05.167,21.1452,22.9024,68.776
2026-07-21T15:41:05.181,21.1452,22.8633,69.1285
2026-07-21T15:41:05.199,21.158,23.1962,69.4222
2026-07-21T15:41:05.199,21.158,23.5486,69.5789
2026-07-21T15:41:05.199,21.176,23.7444,69.618
2026-07-21T15:41:05.212,21.1919,23.7836,69.481
2026-07-21T15:41:05.230,21.1919,23.764,69.481
2026-07-21T15:41:05.243,21.2159,23.7444,69.6572
2026-07-21T15:41:05.245,21.221,23.8815,69.6376
2026-07-21T15:41:05.259,21.2367,23.8815,69.5005
2026-07-21T15:41:05.269,21.2367,23.9402,69.1872
2026-07-21T15:41:05.283,21.2586,23.7836,69.1872
2026-07-21T15:41:05.285,21.2586,23.7248,69.3831
2026-07-21T15:41:05.306,21.2789,23.8032,69.6768
2026-07-21T15:41:05.306,21.2789,23.7836,69.8138
2026-07-21T15:41:05.322,21.3008,23.8423,69.9117
2026-07-21T15:41:05.322,21.3008,23.7836,70.0488
2026-07-21T15:41:05.339,21.3168,23.7836,70.3817
2026-07-21T15:41:05.346,21.3168,23.9206,70.3229
2026-07-21T15:41:05.354,21.3435,23.7248,69.9509
2026-07-21T15:41:05.370,21.3455,23.7444,69.7355
2026-07-21T15:41:05.370,21.3493,23.8423,69.6963
2026-07-21T15:41:05.388,21.3658,23.8423,69.6376
2026-07-21T15:41:05.399,21.3658,23.6661,69.5593
2026-07-21T15:41:05.408,21.3886,23.4899,69.5593
2026-07-21T15:41:05.417,21.3928,23.3528,69.4418
2026-07-21T15:41:05.433,21.4134,23.2157,69.3243
2026-07-21T15:41:05.433,21.4134,23.1374,69.1677
2026-07-21T15:41:05.448,21.4293,23.1766,69.0698
2026-07-21T15:41:05.464,21.4293,23.1962,68.8935
2026-07-21T15:41:05.467,21.4423,23.2745,68.6781
2026-07-21T15:41:05.483,21.4589,23.3332,68.5019
2026-07-21T15:41:05.483,21.4589,23.3724,68.4628
2026-07-21T15:41:05.499,21.4832,23.4115,68.5019
2026-07-21T15:41:05.513,21.4832,23.392,68.5215
2026-07-21T15:41:05.519,21.4832,23.4115,68.5411
2026-07-21T15:41:05.527,21.5057,23.3528,68.6194
2026-07-21T15:41:05.537,21.5057,23.2745,68.6194
2026-07-21T15:41:05.547,21.5285,23.2549,68.6194
2026-07-21T15:41:05.559,21.5285,23.2353,68.5215
2026-07-21T15:41:05.575,21.5533,23.157,68.5411
2026-07-21T15:41:05.575,21.5533,23.2353,68.5607
2026-07-21T15:41:05.591,21.5698,23.3136,68.4236
2026-07-21T15:41:05.599,21.5698,23.3724,68.2865
2026-07-21T15:41:05.607,21.5698,23.4507,68.1886
2026-07-21T15:41:05.623,21.5931,23.4115,68.032
2026-07-21T15:41:05.623,21.6004,23.5094,67.8558
2026-07-21T15:41:05.640,21.6167,23.5094,67.6012
2026-07-21T15:41:05.647,21.6167,23.4899,67.562
2026-07-21T15:41:05.654,21.6458,23.3724,67.6991
2026-07-21T15:41:05.670,21.6475,23.5094,67.8166
2026-07-21T15:41:05.670,21.6509,23.4899,67.6599
2026-07-21T15:41:05.692,21.6632,23.5094,67.6599
2026-07-21T15:41:05.701,21.6632,23.4507,67.6795
2026-07-21T15:41:05.717,21.6934,23.3724,67.8558
2026-07-21T15:41:05.717,21.6934,23.2941,67.7774
2026-07-21T15:41:05.717,21.6952,23.157,67.7578
2026-07-21T15:41:05.733,21.7118,23.2353,67.7774
2026-07-21T15:41:05.749,21.7118,23.4507,67.6795
2026-07-21T15:41:05.765,21.7285,23.6857,67.4054
2026-07-21T15:41:05.765,21.7285,23.8227,67.3467
2026-07-21T15:41:05.782,21.7622,23.8619,67.562
2026-07-21T15:41:05.782,21.7656,23.9402,67.4641
2026-07-21T15:41:05.799,21.7678,23.9794,67.3858
2026-07-21T15:41:05.811,21.7895,23.9794,67.3858
2026-07-21T15:41:05.821,21.7939,23.9011,67.4054
2026-07-21T15:41:05.832,21.8053,23.8227,67.4054
2026-07-21T15:41:05.835,21.8053,23.7053,67.4054
2026-07-21T15:41:05.847,21.8212,23.7053,67.4641
2026-07-21T15:41:05.859,21.8392,23.7053,67.4837
2026-07-21T15:41:05.859,21.8392,23.6857,67.5425
2026-07-21T15:41:05.875,21.8571,23.7444,67.6991
2026-07-21T15:41:05.890,21.8571,23.7248,67.9145
2026-07-21T15:41:05.893,21.8682,23.6661,68.0907
2026-07-21T15:41:05.911,21.8895,23.7444,68.0516
2026-07-21T15:41:05.911,21.8943,23.9206,67.9928
2026-07-21T15:41:05.922,21.9155,23.9402,67.9145
2026-07-21T15:41:05.938,21.9155,24.0185,67.8166
2026-07-21T15:41:05.948,21.9228,23.9794,67.7187
2026-07-21T15:41:05.954,21.9417,23.764,67.6208
2026-07-21T15:41:05.969,21.9417,23.7053,67.6991
2026-07-21T15:41:05.976,21.9632,23.529,67.7187
2026-07-21T15:41:05.987,21.9632,23.392,67.4837
2026-07-21T15:41:06.001,21.9632,23.2157,67.2292
2026-07-21T15:41:06.017,21.9792,23.0787,66.8767
2026-07-21T15:41:06.017,21.9792,22.8633,66.6613
2026-07-21T15:41:06.017,22.0114,22.785,66.6222
2026-07-21T15:41:06.033,22.0114,22.5696,66.5047
2026-07-21T15:41:06.048,22.0114,22.6479,66.3872
2026-07-21T15:41:06.065,22.0402,22.4912,65.9564
2026-07-21T15:41:06.065,22.0419,22.3933,65.5844
2026-07-21T15:41:06.084,22.0576,22.2954,65.3298
2026-07-21T15:41:06.084,22.0576,22.2171,65.1732
2026-07-21T15:41:06.096,22.0576,22.1388,65.0361
2026-07-21T15:41:06.111,22.0893,22.1192,64.997
2026-07-21T15:41:06.111,22.0931,22.0409,64.8403
2026-07-21T15:41:06.138,22.1135,21.943,64.6249
2026-07-21T15:41:06.138,22.1135,21.8255,64.5858
2026-07-21T15:41:06.153,22.14,21.5709,64.4879
2026-07-21T15:41:06.165,22.14,21.4535,64.6445
2026-07-21T15:41:06.167,22.14,21.5122,64.8795
2026-07-21T15:41:06.182,22.1546,21.5905,64.8207
2026-07-21T15:41:06.190,22.1546,21.6493,64.7033
2026-07-21T15:41:06.200,22.1844,21.7863,64.5858
2026-07-21T15:41:06.208,22.1844,21.8451,64.4879
2026-07-21T15:41:06.222,22.1844,21.8451,64.4487
2026-07-21T15:41:06.225,22.202,21.943,64.4291
2026-07-21T15:41:06.238,22.2157,21.9821,64.39
2026-07-21T15:41:06.238,22.2313,22.2171,64.5858
2026-07-21T15:41:06.256,22.2313,22.5108,64.8991
2026-07-21T15:41:06.273,22.2313,22.7458,65.0165
2026-07-21T15:41:06.285,22.2631,22.7066,65.0753
2026-07-21T15:41:06.285,22.2631,22.7066,64.9382
2026-07-21T15:41:06.301,22.2791,22.4325,64.7228
2026-07-21T15:41:06.301,22.2791,22.315,64.6053
2026-07-21T15:41:06.317,22.2937,22.3542,64.5074
2026-07-21T15:41:06.333,22.3119,22.5696,64.6641
2026-07-21T15:41:06.333,22.3119,22.6283,64.7816
2026-07-21T15:41:06.351,22.3119,22.7066,64.8795
2026-07-21T15:41:06.366,22.3437,22.5696,64.762
2026-07-21T15:41:06.366,22.3437,22.4717,64.6837
2026-07-21T15:41:06.381,22.3589,22.4129,64.6053
2026-07-21T15:41:06.381,22.3589,22.5696,64.7816
2026-07-21T15:41:06.402,22.3745,22.7262,64.7816
2026-07-21T15:41:06.402,22.3906,23.0787,64.8207
2026-07-21T15:41:06.413,22.3906,23.1374,64.8012
2026-07-21T15:41:06.428,22.4061,23.2157,64.8012
2026-07-21T15:41:06.443,22.4061,23.1374,64.762
2026-07-21T15:41:06.453,22.4213,23.157,64.7424
2026-07-21T15:41:06.460,22.4369,23.2353,64.7228
2026-07-21T15:41:06.460,22.4369,23.2745,64.6445
2026-07-21T15:41:06.491,22.4528,23.2549,64.5466
2026-07-21T15:41:06.491,22.4684,23.1178,64.4487
2026-07-21T15:41:06.502,22.4684,23.1178,64.3704
2026-07-21T15:41:06.506,22.4855,23.0787,64.3312
2026-07-21T15:41:06.522,22.4855,22.922,64.3704
2026-07-21T15:41:06.522,22.5002,22.8241,64.39
2026-07-21T15:41:06.539,22.5159,22.9024,64.3312
2026-07-21T15:41:06.539,22.5195,23.1374,64.3116
2026-07-21T15:41:06.554,22.5317,23.3528,64.0962
2026-07-21T15:41:06.570,22.5317,23.3724,64.0767
2026-07-21T15:41:06.573,22.5634,23.4115,63.9788
2026-07-21T15:41:06.585,22.5634,23.3528,63.9592
2026-07-21T15:41:06.585,22.5701,23.4311,64.0767
2026-07-21T15:41:06.617,22.5794,23.5094,64.155
2026-07-21T15:41:06.617,22.5951,23.764,64.1158
2026-07-21T15:41:06.633,22.6109,23.8619,64.0962
2026-07-21T15:41:06.633,22.6109,23.8032,63.8613
2026-07-21T15:41:06.652,22.6109,23.6465,63.5088
2026-07-21T15:41:06.664,22.6267,23.4115,63.0976
2026-07-21T15:41:06.664,22.6267,23.2157,62.5885
2026-07-21T15:41:06.680,22.6596,22.9808,62.2361
2026-07-21T15:41:06.680,22.6596,22.8045,62.0403
2026-07-21T15:41:06.700,22.6838,22.7262,61.9424
2026-07-21T15:41:06.700,22.6838,22.6283,61.7857
2026-07-21T15:41:06.720,22.7084,22.7066,61.7074
2026-07-21T15:41:06.728,22.7084,22.785,61.6682
2026-07-21T15:41:06.743,22.7084,22.922,61.7857
2026-07-21T15:41:06.759,22.7271,22.9612,61.9619
2026-07-21T15:41:06.762,22.7373,22.9612,61.864
2026-07-21T15:41:06.762,22.7405,22.8437,61.8836
2026-07-21T15:41:06.781,22.7535,22.6871,61.7857
2026-07-21T15:41:06.791,22.7643,22.6871,61.8836
2026-07-21T15:41:06.794,22.7695,22.7458,61.9619
2026-07-21T15:41:06.807,22.7851,22.8829,61.8836
2026-07-21T15:41:06.818,22.7917,22.922,61.9032
2026-07-21T15:41:06.823,22.801,22.9612,61.7661
2026-07-21T15:41:06.841,22.801,23.0199,61.6095
2026-07-21T15:41:06.853,22.8166,22.9612,61.492
2026-07-21T15:41:06.855,22.8323,22.7066,61.492
2026-07-21T15:41:06.855,22.8323,22.5304,61.5507
2026-07-21T15:41:06.870,22.8483,22.2563,61.5703
2026-07-21T15:41:06.886,22.8611,22.1975,61.492
2026-07-21T15:41:06.902,22.8801,22.08,61.3549
2026-07-21T15:41:06.902,22.8801,22.08,61.1396
2026-07-21T15:41:06.918,22.8993,22.2367,61.1004
2026-07-21T15:41:06.918,22.8993,22.2563,61.1983
2026-07-21T15:41:06.944,22.9135,22.3346,61.2766
2026-07-21T15:41:06.953,22.9342,22.4912,61.1983
2026-07-21T15:41:06.953,22.9342,22.4717,61.1396
2026-07-21T15:41:06.967,22.9591,22.315,60.9046
2026-07-21T15:41:06.981,22.9612,22.1388,60.7675
2026-07-21T15:41:06.988,22.9612,21.9821,60.7088
2026-07-21T15:41:07.000,22.9845,21.8059,60.7284
2026-07-21T15:41:07.012,22.9845,21.8059,60.7479
2026-07-21T15:41:07.020,22.9909,21.943,60.7675
2026-07-21T15:41:07.029,23.0066,21.943,60.8458
2026-07-21T15:41:07.038,23.0148,21.9821,60.9046
2026-07-21T15:41:07.053,23.0389,21.9626,60.8458
2026-07-21T15:41:07.060,23.0389,21.943,60.5913
2026-07-21T15:41:07.068,23.0389,21.9038,60.2193
2026-07-21T15:41:07.077,23.0537,21.943,60.0234
2026-07-21T15:41:07.077,23.0638,22.0213,59.906
2026-07-21T15:41:07.100,23.0848,21.9626,59.7297
2026-07-21T15:41:07.107,23.0848,22.0017,59.7493
2026-07-21T15:41:07.122,23.0935,21.8255,59.5731
2026-07-21T15:41:07.132,23.1108,21.708,59.4752
2026-07-21T15:41:07.138,23.1159,21.5514,59.3773
2026-07-21T15:41:07.164,23.1389,21.336,59.0052
2026-07-21T15:41:07.164,23.1389,20.9444,58.7507
2026-07-21T15:41:07.170,23.1389,20.5332,58.5157
2026-07-21T15:41:07.175,23.1643,20.1807,58.2024
2026-07-21T15:41:07.193,23.1643,19.887,58.0458
2026-07-21T15:41:07.200,23.1643,19.6325,57.8304
2026-07-21T15:41:07.209,23.1833,19.4954,57.5954
2026-07-21T15:41:07.218,23.1946,19.4758,57.3996
2026-07-21T15:41:07.218,23.2107,19.5541,57.4388
2026-07-21T15:41:07.237,23.2107,19.6912,57.5171
2026-07-21T15:41:07.250,23.2107,19.887,57.6738
2026-07-21T15:41:07.264,23.2424,19.9457,57.6542
2026-07-21T15:41:07.264,23.2424,19.9653,57.5954
2026-07-21T15:41:07.281,23.258,19.9066,57.4192
2026-07-21T15:41:07.288,23.258,19.8478,57.243
2026-07-21T15:41:07.300,23.2737,19.8283,57.1647
2026-07-21T15:41:07.312,23.2904,19.8674,57.1451
2026-07-21T15:41:07.312,23.2904,20.0632,57.2038
2026-07-21T15:41:07.336,23.3208,20.3178,57.3409
2026-07-21T15:41:07.344,23.3208,20.1807,57.3017
2026-07-21T15:41:07.355,23.3208,20.0241,57.2038
2026-07-21T15:41:07.366,23.347,19.8283,57.1255
2026-07-21T15:41:07.366,23.347,19.6716,56.8905
2026-07-21T15:41:07.374,23.3533,19.6716,56.8514
2026-07-21T15:41:07.391,23.3738,19.7891,56.9297
2026-07-21T15:41:07.401,23.3765,19.9262,56.9101
2026-07-21T15:41:07.409,23.3765,20.0045,56.9493
2026-07-21T15:41:07.423,23.3997,20.0436,56.6947
2026-07-21T15:41:07.430,23.4012,19.9066,56.4989
2026-07-21T15:41:07.438,23.4217,19.8283,56.2444
2026-07-21T15:41:07.453,23.4217,19.7891,56.0094
2026-07-21T15:41:07.455,23.4471,19.8087,55.8136
2026-07-21T15:41:07.469,23.4471,19.7891,55.794
2026-07-21T15:41:07.475,23.4471,19.887,55.8723
2026-07-21T15:41:07.485,23.463,20.0632,56.029
2026-07-21T15:41:07.485,23.463,20.1416,56.1856
2026-07-21T15:41:07.501,23.5016,20.0828,56.2248
2026-07-21T15:41:07.517,23.5016,20.1416,56.2248
2026-07-21T15:41:07.532,23.5016,20.0241,56.1856
2026-07-21T15:41:07.543,23.5261,20.0436,56.0094
2026-07-21T15:41:07.548,23.5281,20.122,55.7548
2026-07-21T15:41:07.555,23.5332,20.1024,55.4416
2026-07-21T15:41:07.573,23.5535,20.0632,55.2849
2026-07-21T15:41:07.582,23.5535,19.9849,55.1283
2026-07-21T15:41:07.587,23.5579,19.9849,54.9912
2026-07-21T15:41:07.601,23.5804,19.9262,54.952
2026-07-21T15:41:07.611,23.5809,19.8087,54.8933
2026-07-21T15:41:07.627,23.6019,19.9262,54.815
2026-07-21T15:41:07.635,23.605,19.9849,54.7171
2026-07-21T15:41:07.643,23.6252,20.1024,54.6583
2026-07-21T15:41:07.643,23.6252,20.2395,54.6975
2026-07-21T15:41:07.659,23.6297,20.2395,54.6779
2026-07-21T15:41:07.674,23.652,20.259,54.6779
2026-07-21T15:41:07.679,23.652,20.2786,54.7366
2026-07-21T15:41:07.690,23.677,20.3765,54.6975
2026-07-21T15:41:07.701,23.6805,20.494,54.815
2026-07-21T15:41:07.706,23.6844,20.5919,54.9716
2026-07-21T15:41:07.720,23.7022,20.4353,54.9912
2026-07-21T15:41:07.734,23.7022,20.2786,54.9129
2026-07-21T15:41:07.738,23.7147,20.1807,54.7758
2026-07-21T15:41:07.756,23.7304,20.1416,54.9325
2026-07-21T15:41:07.756,23.7355,20.1807,54.8737
2026-07-21T15:41:07.768,23.7355,20.2395,54.9716
2026-07-21T15:41:07.768,23.7474,20.3569,55.0891
2026-07-21T15:41:07.789,23.7474,20.4157,55.2262
2026-07-21T15:41:07.801,23.7778,20.4548,55.3436
2026-07-21T15:41:07.801,23.7778,20.6115,55.5395
2026-07-21T15:41:07.816,23.8025,20.5527,55.5982
2026-07-21T15:41:07.831,23.8025,20.4744,55.5395
2026-07-21T15:41:07.831,23.8091,20.2786,55.422
2026-07-21T15:41:07.850,23.8274,20.2982,55.3241
2026-07-21T15:41:07.856,23.8323,20.1416,55.0891
2026-07-21T15:41:07.878,23.8475,20.0828,55.0695
2026-07-21T15:41:07.881,23.8475,20.0632,55.1674
2026-07-21T15:41:07.894,23.8749,20.1807,55.2457
2026-07-21T15:41:07.901,23.8769,20.2003,55.2066
2026-07-21T15:41:07.910,23.88,20.2786,55.2457
2026-07-21T15:41:07.926,23.9029,20.2395,55.3045
2026-07-21T15:41:07.931,23.9029,20.1024,55.3436
2026-07-21T15:41:07.942,23.923,19.9849,55.5786
2026-07-21T15:41:07.947,23.923,20.0241,55.7548
2026-07-21T15:41:07.958,23.9512,20.0436,55.7744
2026-07-21T15:41:07.973,23.9512,19.9066,55.6961
2026-07-21T15:41:07.977,23.9512,19.9653,55.6178
2026-07-21T15:41:08.001,23.9759,20.1807,55.6961
2026-07-21T15:41:08.003,23.9759,20.0632,55.7744
2026-07-21T15:41:08.012,23.9828,20.0436,55.9115
2026-07-21T15:41:08.020,23.9985,19.9457,55.8919
2026-07-21T15:41:08.029,24.0063,19.8087,55.7157
2026-07-21T15:41:08.038,24.0143,19.6325,55.5199
2026-07-21T15:41:08.052,24.0268,19.5541,55.3045
2026-07-21T15:41:08.060,24.0303,19.3583,55.1674
2026-07-21T15:41:08.068,24.0513,19.4171,54.9912
2026-07-21T15:41:08.084,24.0554,19.28,54.9716
2026-07-21T15:41:08.084,24.066,19.28,54.9716
2026-07-21T15:41:08.101,24.0774,19.28,55.1283
2026-07-21T15:41:08.109,24.0774,19.0842,55.2066
2026-07-21T15:41:08.120,24.1034,19.1234,55.1674
2026-07-21T15:41:08.131,24.1034,19.1038,55.1087
2026-07-21T15:41:08.138,24.1255,19.1038,55.1087
2026-07-21T15:41:08.147,24.1255,19.2408,55.2457
2026-07-21T15:41:08.162,24.1255,19.4562,55.3632
2026-07-21T15:41:08.179,24.1557,19.6325,55.4416
2026-07-21T15:41:08.179,24.1557,19.6912,55.4611
2026-07-21T15:41:08.194,24.1557,19.7695,55.4024
2026-07-21T15:41:08.201,24.1835,19.6912,55.3632
2026-07-21T15:41:08.209,24.1885,19.5933,55.422
2026-07-21T15:41:08.209,24.1905,19.2017,55.4807
2026-07-21T15:41:08.225,24.2037,18.9471,55.5003
2026-07-21T15:41:08.245,24.2111,18.8296,55.4416
2026-07-21T15:41:08.257,24.2318,18.9275,55.422
2026-07-21T15:41:08.257,24.2346,19.1038,55.4611
2026-07-21T15:41:08.268,24.2477,19.2213,55.6178
2026-07-21T15:41:08.277,24.2477,19.2996,55.6765
2026-07-21T15:41:08.288,24.2614,19.2996,55.8136
2026-07-21T15:41:08.301,24.2829,19.2408,55.8332
2026-07-21T15:41:08.301,24.285,19.2408,55.9507
2026-07-21T15:41:08.325,24.3041,19.28,56.0094
2026-07-21T15:41:08.331,24.3088,19.2408,55.8332
2026-07-21T15:41:08.341,24.3108,19.1625,55.6765
2026-07-21T15:41:08.351,24.3248,19.1234,55.5982
2026-07-21T15:41:08.358,24.3248,19.1821,55.5003
2026-07-21T15:41:08.364,24.3544,19.1234,55.4416
2026-07-21T15:41:08.378,24.3584,19.0254,55.2066
2026-07-21T15:41:08.378,24.3615,18.908,54.9325
2026-07-21T15:41:08.406,24.3749,18.7709,54.6975
2026-07-21T15:41:08.413,24.3882,18.7122,54.5017
2026-07-21T15:41:08.426,24.405,18.7122,54.4625
2026-07-21T15:41:08.429,24.405,18.5163,54.3059
2026-07-21T15:41:08.442,24.4168,18.3989,54.1884
2026-07-21T15:41:08.452,24.437,18.2031,54.0513
2026-07-21T15:41:08.459,24.437,18.0464,53.8751
2026-07-21T15:41:08.470,24.437,17.8506,53.601
2026-07-21T15:41:08.479,24.4619,17.6548,53.4443
2026-07-21T15:41:08.491,24.4674,17.5177,53.4052
2026-07-21T15:41:08.505,24.4841,17.4786,53.4443
2026-07-21T15:41:08.508,24.4841,17.4394,53.4443
2026-07-21T15:41:08.521,24.4841,17.4394,53.3856
2026-07-21T15:41:08.538,24.5048,17.4786,53.2093
2026-07-21T15:41:08.538,24.5048,17.4394,53.1114
2026-07-21T15:41:08.553,24.5342,17.3807,53.0527
2026-07-21T15:41:08.558,24.5342,17.3023,53.0723
2026-07-21T15:41:08.568,24.5342,17.3415,53.0723
2026-07-21T15:41:08.585,24.5479,17.3219,53.1506
2026-07-21T15:41:08.588,24.5655,17.3023,53.1114
2026-07-21T15:41:08.601,24.5854,17.2632,53.0919
2026-07-21T15:41:08.601,24.5854,17.1653,52.9156
2026-07-21T15:41:08.619,24.6093,17.1261,52.9156
2026-07-21T15:41:08.632,24.6093,17.2044,52.9548
2026-07-21T15:41:08.639,24.6093,17.1457,53.0331
2026-07-21T15:41:08.647,24.6252,17.2044,53.131
2026-07-21T15:41:08.663,24.6252,17.3611,53.2877
2026-07-21T15:41:08.663,24.6408,17.3611,53.3072
2026-07-21T15:41:08.679,24.659,17.3807,53.2681
2026-07-21T15:41:08.679,24.659,17.459,53.2681
2026-07-21T15:41:08.710,24.6724,17.3219,53.2485
2026-07-21T15:41:08.713,24.6893,17.3023,53.2877
2026-07-21T15:41:08.713,24.6922,17.2828,53.2681
2026-07-21T15:41:08.726,24.7057,17.4002,53.3268
2026-07-21T15:41:08.742,24.7147,17.459,53.3268
2026-07-21T15:41:08.748,24.7357,17.4786,53.2681
2026-07-21T15:41:08.759,24.7357,17.3611,53.366
2026-07-21T15:41:08.768,24.7444,17.3611,53.5226
2026-07-21T15:41:08.774,24.7518,17.4786,53.6401
2026-07-21T15:41:08.789,24.7675,17.4394,53.6205
2026-07-21T15:41:08.805,24.7833,17.4198,53.6597
2026-07-21T15:41:08.805,24.7833,17.3807,53.5031
2026-07-21T15:41:08.821,24.7833,17.2828,53.4247
2026-07-21T15:41:08.837,24.806,17.2436,53.4639
2026-07-21T15:41:08.837,24.815,17.2828,53.4443
2026-07-21T15:41:08.853,24.8307,17.1849,53.4443
2026-07-21T15:41:08.860,24.8307,17.224,53.5031
2026-07-21T15:41:08.869,24.8307,17.2632,53.6205
2026-07-21T15:41:08.884,24.862,17.3611,53.6989
2026-07-21T15:41:08.884,24.862,17.459,53.9143
2026-07-21T15:41:08.903,24.8781,17.6156,53.8163
2026-07-21T15:41:08.903,24.8781,17.7919,53.8359
2026-07-21T15:41:08.916,24.8922,17.9289,53.8555
2026-07-21T15:41:08.932,24.9096,18.0464,53.9143
2026-07-21T15:41:08.932,24.9096,17.9877,53.9143
2026-07-21T15:41:08.948,24.9253,17.8702,53.9143
2026-07-21T15:41:08.960,24.9409,17.7919,54.0317
2026-07-21T15:41:08.963,24.9429,17.7135,53.973
2026-07-21T15:41:08.979,24.9569,17.5961,54.0513
2026-07-21T15:41:08.979,24.9569,17.4982,54.0709
2026-07-21T15:41:09.002,24.9886,17.4786,54.0513
2026-07-21T15:41:09.011,24.9886,17.4786,53.8947
2026-07-21T15:41:09.011,24.9938,17.5177,53.9926
2026-07-21T15:41:09.026,25.0066,17.6352,53.9338
2026-07-21T15:41:09.042,25.0066,17.7723,53.6597
2026-07-21T15:41:09.047,25.0377,17.5961,53.5031
2026-07-21T15:41:09.060,25.0377,17.5569,53.4639
2026-07-21T15:41:09.060,25.0377,17.4786,53.5031
2026-07-21T15:41:09.091,25.068,17.4982,53.6989
2026-07-21T15:41:09.091,25.0703,17.4198,53.8163
2026-07-21T15:41:09.102,25.0746,17.224,53.8947
2026-07-21T15:41:09.106,25.0845,17.0282,53.8751
2026-07-21T15:41:09.122,25.0845,16.7541,53.8359
2026-07-21T15:41:09.128,25.1191,16.6366,53.8163
2026-07-21T15:41:09.138,25.1203,16.4995,53.738
2026-07-21T15:41:09.138,25.1231,16.5583,53.8163
2026-07-21T15:41:09.160,25.1312,16.617,53.8163
2026-07-21T15:41:09.173,25.1312,16.5583,53.7184
2026-07-21T15:41:09.185,25.1628,16.48,53.601
2026-07-21T15:41:09.185,25.1628,16.3233,53.6597
2026-07-21T15:41:09.202,25.1628,16.2841,53.738
2026-07-21T15:41:09.216,25.1941,16.2058,53.7184
2026-07-21T15:41:09.216,25.1981,16.1471,53.6793
2026-07-21T15:41:09.232,25.2027,16.2841,53.8359
2026-07-21T15:41:09.232,25.2204,16.3625,53.973
2026-07-21T15:41:09.252,25.2204,16.4604,53.8751
