wall_time,elapsed_s,F1_N,F2_N
2026-07-23T16:02:35.298,216.2787,-1.4848,-0.6054
2026-07-23T16:02:35.304,216.2869,-1.6219,-0.5663
2026-07-23T16:02:35.318,216.3136,-1.5436,-0.5859
2026-07-23T16:02:35.329,216.3136,-1.6415,-0.5663
2026-07-23T16:02:35.329,216.3136,-1.524,-0.4684
2026-07-23T16:02:35.345,216.3414,-1.5827,-0.5663
2026-07-23T16:02:35.355,216.3414,-1.4652,-0.6054
2026-07-23T16:02:35.364,216.3414,-1.6023,-0.5467
2026-07-23T16:02:35.392,216.3727,-1.5044,-0.5663
2026-07-23T16:02:35.392,216.3727,-1.6415,-0.5271
2026-07-23T16:02:35.392,216.3727,-1.5631,-0.625
2026-07-23T16:02:35.404,216.3727,-1.5631,-0.5859
2026-07-23T16:02:35.408,216.4195,-1.661,-0.6054
2026-07-23T16:02:35.424,216.4195,-1.524,-0.5663
2026-07-23T16:02:35.424,216.4195,-1.5631,-0.5663
2026-07-23T16:02:35.448,216.4511,-1.6219,-0.5467
2026-07-23T16:02:35.456,216.4537,-1.6023,-0.5859
2026-07-23T16:02:35.456,216.4561,-1.6023,-0.6054
2026-07-23T16:02:35.470,216.4593,-1.5827,-0.5859
2026-07-23T16:02:35.486,216.4824,-1.5827,-0.5859
2026-07-23T16:02:35.492,216.4824,-1.5827,-0.5467
2026-07-23T16:02:35.507,216.4902,-1.5631,-0.5663
2026-07-23T16:02:35.510,216.517,-1.6023,-0.5271
2026-07-23T16:02:35.523,216.5223,-1.5436,-0.5663
2026-07-23T16:02:35.533,216.5251,-1.5631,-0.6054
2026-07-23T16:02:35.541,216.5315,-1.5436,-0.6054
2026-07-23T16:02:35.566,216.5541,-1.5827,-0.5075
2026-07-23T16:02:35.566,216.5614,-1.5436,-0.6054
2026-07-23T16:02:35.576,216.5639,-1.5631,-0.5467
2026-07-23T16:02:35.584,216.5639,-1.5631,-0.625
2026-07-23T16:02:35.605,216.5934,-1.5436,-0.6054
2026-07-23T16:02:35.605,216.5934,-1.6023,-0.5859
2026-07-23T16:02:35.615,216.5934,-1.5631,-0.5859
2026-07-23T16:02:35.628,216.626,-1.6023,-0.5663
2026-07-23T16:02:35.628,216.626,-1.5436,-0.5467
2026-07-23T16:02:35.644,216.6327,-1.661,-0.6054
2026-07-23T16:02:35.676,216.6568,-1.524,-0.5271
2026-07-23T16:02:35.676,216.6568,-1.661,-0.625
2026-07-23T16:02:35.676,216.6568,-1.4456,-0.625
2026-07-23T16:02:35.683,216.6889,-1.5827,-0.5663
2026-07-23T16:02:35.693,216.6889,-1.5044,-0.5663
2026-07-23T16:02:35.708,216.6889,-1.6806,-0.6054
2026-07-23T16:02:35.708,216.7071,-1.4848,-0.5663
2026-07-23T16:02:35.737,216.737,-1.661,-0.5467
2026-07-23T16:02:35.740,216.737,-1.6219,-0.5663
2026-07-23T16:02:35.740,216.737,-1.661,-0.6054
2026-07-23T16:02:35.758,216.742,-1.5044,-0.5663
2026-07-23T16:02:35.771,216.7829,-1.661,-0.5467
2026-07-23T16:02:35.781,216.7829,-1.4652,-0.6446
2026-07-23T16:02:35.781,216.7829,-1.6415,-0.5859
2026-07-23T16:02:35.793,216.7829,-1.524,-0.5663
2026-07-23T16:02:35.805,216.8142,-1.6806,-0.6054
2026-07-23T16:02:35.805,216.8142,-1.524,-0.6054
2026-07-23T16:02:35.823,216.8142,-1.7198,-0.5663
2026-07-23T16:02:35.834,216.8142,-1.4261,-0.6054
2026-07-23T16:02:35.834,216.831,-1.6806,-0.6054
2026-07-23T16:02:35.855,216.856,-1.5044,-0.5663
2026-07-23T16:02:35.865,216.8614,-1.6219,-0.5663
2026-07-23T16:02:35.865,216.8635,-1.5044,-0.5467
2026-07-23T16:02:35.882,216.8635,-1.6415,-0.5663
2026-07-23T16:02:35.907,216.893,-1.5631,-0.5859
2026-07-23T16:02:35.907,216.893,-1.5436,-0.5467
2026-07-23T16:02:35.914,216.8977,-1.5631,-0.5859
2026-07-23T16:02:35.928,216.9247,-1.5631,-0.5271
2026-07-23T16:02:35.932,216.9247,-1.5827,-0.5467
2026-07-23T16:02:35.944,216.9247,-1.6415,-0.5075
2026-07-23T16:02:35.955,216.957,-1.5631,-0.5467
2026-07-23T16:02:35.964,216.957,-1.6023,-0.5859
2026-07-23T16:02:35.964,216.957,-1.5827,-0.6054
2026-07-23T16:02:35.983,216.9893,-1.5436,-0.5859
2026-07-23T16:02:35.993,216.9893,-1.6219,-0.6446
2026-07-23T16:02:36.006,216.9893,-1.5827,-0.6054
2026-07-23T16:02:36.008,216.9893,-1.661,-0.5663
2026-07-23T16:02:36.032,217.0334,-1.5827,-0.6446
2026-07-23T16:02:36.032,217.0334,-1.5827,-0.5663
2026-07-23T16:02:36.040,217.0374,-1.5631,-0.6054
2026-07-23T16:02:36.055,217.0664,-1.6023,-0.5859
2026-07-23T16:02:36.055,217.0707,-1.524,-0.6054
2026-07-23T16:02:36.073,217.0707,-1.5631,-0.5467
2026-07-23T16:02:36.086,217.0707,-1.5827,-0.625
2026-07-23T16:02:36.093,217.1061,-1.5827,-0.5663
2026-07-23T16:02:36.115,217.1061,-1.5631,-0.6054
2026-07-23T16:02:36.117,217.1061,-1.5827,-0.5467
2026-07-23T16:02:36.121,217.1143,-1.6023,-0.5663
2026-07-23T16:02:36.149,217.1453,-1.524,-0.5663
2026-07-23T16:02:36.149,217.1453,-1.6219,-0.5663
2026-07-23T16:02:36.157,217.1453,-1.524,-0.5271
2026-07-23T16:02:36.165,217.1479,-1.6219,-0.6054
2026-07-23T16:02:36.165,217.177,-1.5044,-0.5859
2026-07-23T16:02:36.188,217.177,-1.6415,-0.6054
2026-07-23T16:02:36.196,217.177,-1.5631,-0.4684
2026-07-23T16:02:36.207,217.2084,-1.6219,-0.5467
2026-07-23T16:02:36.221,217.2084,-1.5827,-0.5859
2026-07-23T16:02:36.221,217.2084,-1.661,-0.625
2026-07-23T16:02:36.228,217.2084,-1.5436,-0.5271
2026-07-23T16:02:36.244,217.2403,-1.5827,-0.5467
2026-07-23T16:02:36.255,217.2428,-1.5436,-0.5663
2026-07-23T16:02:36.259,217.2448,-1.661,-0.5467
2026-07-23T16:02:36.288,217.2701,-1.4848,-0.5663
2026-07-23T16:02:36.288,217.2716,-1.661,-0.5663
2026-07-23T16:02:36.296,217.2731,-1.4848,-0.625
2026-07-23T16:02:36.319,217.2869,-1.6023,-0.5663
2026-07-23T16:02:36.319,217.3028,-1.5827,-0.6054
2026-07-23T16:02:36.324,217.3038,-1.6415,-0.5467
2026-07-23T16:02:36.324,217.3188,-1.5044,-0.5859
2026-07-23T16:02:36.338,217.3188,-1.6219,-0.5663
2026-07-23T16:02:36.355,217.3345,-1.5436,-0.6054
2026-07-23T16:02:36.370,217.3627,-1.524,-0.5467
2026-07-23T16:02:36.370,217.3632,-1.5436,-0.6054
2026-07-23T16:02:36.385,217.3662,-1.5436,-0.5467
2026-07-23T16:02:36.394,217.3821,-1.6806,-0.5859
2026-07-23T16:02:36.408,217.3943,-1.5827,-0.5271
2026-07-23T16:02:36.417,217.3982,-1.6023,-0.5271
2026-07-23T16:02:36.421,217.4142,-1.5436,-0.5859
2026-07-23T16:02:36.433,217.4142,-1.5827,-0.5859
2026-07-23T16:02:36.446,217.4142,-1.4652,-0.5859
2026-07-23T16:02:36.455,217.4456,-1.4456,-0.6054
2026-07-23T16:02:36.465,217.4558,-1.5631,-0.5467
2026-07-23T16:02:36.465,217.4568,-1.661,-0.5075
2026-07-23T16:02:36.488,217.4815,-1.5631,-0.6054
2026-07-23T16:02:36.496,217.4815,-1.5827,-0.5859
2026-07-23T16:02:36.508,217.4876,-1.5827,-0.5859
2026-07-23T16:02:36.512,217.5084,-1.5827,-0.5663
2026-07-23T16:02:36.532,217.5084,-1.5631,-0.5859
2026-07-23T16:02:36.532,217.5084,-1.6023,-0.5467
2026-07-23T16:02:36.544,217.5434,-1.5044,-0.5859
2026-07-23T16:02:36.559,217.5434,-1.6415,-0.5663
2026-07-23T16:02:36.559,217.5434,-1.5631,-0.625
2026-07-23T16:02:36.579,217.5765,-1.6219,-0.5271
2026-07-23T16:02:36.592,217.5765,-1.4848,-0.6054
2026-07-23T16:02:36.594,217.5765,-1.6023,-0.488
2026-07-23T16:02:36.608,217.6066,-1.5827,-0.625
2026-07-23T16:02:36.622,217.6066,-1.6023,-0.5663
2026-07-23T16:02:36.622,217.6066,-1.6023,-0.5859
2026-07-23T16:02:36.638,217.6404,-1.6415,-0.5271
2026-07-23T16:02:36.654,217.6404,-1.6219,-0.6054
2026-07-23T16:02:36.657,217.6434,-1.524,-0.5467
2026-07-23T16:02:36.670,217.6707,-1.6023,-0.625
2026-07-23T16:02:36.672,217.6707,-1.5436,-0.5859
2026-07-23T16:02:36.688,217.6707,-1.6023,-0.5859
2026-07-23T16:02:36.697,217.6707,-1.524,-0.5663
2026-07-23T16:02:36.708,217.7039,-1.5827,-0.5859
2026-07-23T16:02:36.721,217.7039,-1.5631,-0.6054
2026-07-23T16:02:36.721,217.7139,-1.5827,-0.625
2026-07-23T16:02:36.733,217.7434,-1.5436,-0.5075
2026-07-23T16:02:36.748,217.7452,-1.6219,-0.5271
2026-07-23T16:02:36.755,217.7452,-1.5827,-0.5467
2026-07-23T16:02:36.765,217.7452,-1.6023,-0.5467
2026-07-23T16:02:36.788,217.7734,-1.5631,-0.6054
2026-07-23T16:02:36.788,217.7734,-1.6023,-0.5467
2026-07-23T16:02:36.796,217.7777,-1.5436,-0.5467
2026-07-23T16:02:36.812,217.8039,-1.5827,-0.5663
2026-07-23T16:02:36.812,217.8039,-1.6023,-0.5271
2026-07-23T16:02:36.824,217.808,-1.6415,-0.5663
2026-07-23T16:02:36.844,217.8373,-1.5827,-0.5663
2026-07-23T16:02:36.844,217.8373,-1.5631,-0.5467
2026-07-23T16:02:36.844,217.8398,-1.4848,-0.6446
2026-07-23T16:02:36.866,217.8692,-1.5631,-0.5271
2026-07-23T16:02:36.875,217.8717,-1.6023,-0.6054
2026-07-23T16:02:36.875,217.8717,-1.5044,-0.6054
2026-07-23T16:02:36.894,217.8717,-1.6219,-0.5663
2026-07-23T16:02:36.909,217.8985,-1.5631,-0.5271
2026-07-23T16:02:36.909,217.9038,-1.6023,-0.5663
2026-07-23T16:02:36.922,217.9202,-1.4848,-0.5663
2026-07-23T16:02:36.949,217.9352,-1.6415,-0.6642
2026-07-23T16:02:36.949,217.9352,-1.5044,-0.5271
2026-07-23T16:02:36.955,217.9352,-1.6415,-0.5859
2026-07-23T16:02:36.968,217.9588,-1.5436,-0.5663
2026-07-23T16:02:36.971,217.9672,-1.6415,-0.6054
2026-07-23T16:02:36.986,217.9672,-1.524,-0.5075
2026-07-23T16:02:36.999,217.9829,-1.6415,-0.5859
2026-07-23T16:02:37.010,217.9986,-1.5436,-0.5075
2026-07-23T16:02:37.018,217.9996,-1.661,-0.6054
2026-07-23T16:02:37.034,218.0268,-1.5631,-0.5663
2026-07-23T16:02:37.034,218.0301,-1.7002,-0.5663
2026-07-23T16:02:37.034,218.0301,-1.5631,-0.625
2026-07-23T16:02:37.055,218.046,-1.661,-0.488
2026-07-23T16:02:37.075,218.0589,-1.524,-0.5859
2026-07-23T16:02:37.075,218.0617,-1.5827,-0.5271
2026-07-23T16:02:37.088,218.0885,-1.524,-0.5663
2026-07-23T16:02:37.097,218.0885,-1.6219,-0.6054
2026-07-23T16:02:37.097,218.0885,-1.524,-0.5859
2026-07-23T16:02:37.124,218.1115,-1.661,-0.5467
2026-07-23T16:02:37.128,218.1115,-1.5631,-0.6054
2026-07-23T16:02:37.128,218.1115,-1.6219,-0.5467
2026-07-23T16:02:37.145,218.1274,-1.5436,-0.6054
2026-07-23T16:02:37.162,218.1488,-1.6023,-0.5271
2026-07-23T16:02:37.162,218.1488,-1.5631,-0.5859
2026-07-23T16:02:37.180,218.159,-1.5631,-0.5075
2026-07-23T16:02:37.188,218.1727,-1.5436,-0.6446
2026-07-23T16:02:37.200,218.1884,-1.5827,-0.5467
2026-07-23T16:02:37.200,218.1884,-1.5827,-0.6054
2026-07-23T16:02:37.216,218.2038,-1.5631,-0.5663
2026-07-23T16:02:37.223,218.2195,-1.524,-0.5467
2026-07-23T16:02:37.223,218.2195,-1.661,-0.5075
2026-07-23T16:02:37.241,218.2443,-1.5044,-0.5467
2026-07-23T16:02:37.255,218.2443,-1.6219,-0.5859
2026-07-23T16:02:37.255,218.2512,-1.5044,-0.5467
2026-07-23T16:02:37.295,218.274,-1.5631,-0.5467
2026-07-23T16:02:37.295,218.274,-1.5436,-0.625
2026-07-23T16:02:37.295,218.274,-1.6023,-0.5859
2026-07-23T16:02:37.305,218.3038,-1.5631,-0.5075
2026-07-23T16:02:37.325,218.3038,-1.6415,-0.5075
2026-07-23T16:02:37.325,218.3038,-1.5631,-0.5271
2026-07-23T16:02:37.341,218.3374,-1.6023,-0.6642
2026-07-23T16:02:37.355,218.3443,-1.5436,-0.5663
2026-07-23T16:02:37.355,218.3453,-1.6415,-0.6054
2026-07-23T16:02:37.365,218.3453,-1.524,-0.5467
2026-07-23T16:02:37.388,218.3706,-1.5827,-0.5075
2026-07-23T16:02:37.388,218.3706,-1.5436,-0.488
2026-07-23T16:02:37.396,218.3799,-1.6415,-0.5467
2026-07-23T16:02:37.410,218.404,-1.4456,-0.5663
2026-07-23T16:02:37.421,218.404,-1.6415,-0.6446
2026-07-23T16:02:37.428,218.4091,-1.4065,-0.5467
2026-07-23T16:02:37.431,218.425,-1.661,-0.5467
2026-07-23T16:02:37.450,218.425,-1.5044,-0.4684
2026-07-23T16:02:37.455,218.4408,-1.6219,-0.5467
2026-07-23T16:02:37.460,218.4446,-1.4652,-0.488
2026-07-23T16:02:37.476,218.4707,-1.7002,-0.4684
2026-07-23T16:02:37.476,218.4707,-1.4848,-0.5663
2026-07-23T16:02:37.495,218.4994,-1.6806,-0.6054
2026-07-23T16:02:37.511,218.4994,-1.524,-0.5859
2026-07-23T16:02:37.511,218.4994,-1.661,-0.5075
2026-07-23T16:02:37.523,218.504,-1.4848,-0.625
2026-07-23T16:02:37.538,218.5242,-1.6806,-0.5663
2026-07-23T16:02:37.538,218.5242,-1.5436,-0.5663
2026-07-23T16:02:37.555,218.5373,-1.6806,-0.5859
2026-07-23T16:02:37.566,218.5631,-1.4848,-0.5467
2026-07-23T16:02:37.575,218.5661,-1.6806,-0.5467
2026-07-23T16:02:37.588,218.5681,-1.5436,-0.625
2026-07-23T16:02:37.611,218.5831,-1.6806,-0.5467
2026-07-23T16:02:37.611,218.5831,-1.5436,-0.625
2026-07-23T16:02:37.617,218.5831,-1.6023,-0.5859
2026-07-23T16:02:37.632,218.6145,-1.4848,-0.5467
2026-07-23T16:02:37.634,218.6145,-1.5827,-0.5663
2026-07-23T16:02:37.634,218.6145,-1.524,-0.625
2026-07-23T16:02:37.650,218.6494,-1.6219,-0.5271
2026-07-23T16:02:37.665,218.6494,-1.5631,-0.5663
2026-07-23T16:02:37.665,218.6559,-1.6023,-0.5467
2026-07-23T16:02:37.688,218.6809,-1.5631,-0.6054
2026-07-23T16:02:37.700,218.6809,-1.524,-0.5467
2026-07-23T16:02:37.707,218.6809,-1.5827,-0.5075
2026-07-23T16:02:37.729,218.7155,-1.6806,-0.5271
2026-07-23T16:02:37.729,218.7155,-1.5631,-0.5859
2026-07-23T16:02:37.732,218.7155,-1.6219,-0.5663
2026-07-23T16:02:37.760,218.7449,-1.5827,-0.4684
2026-07-23T16:02:37.760,218.7449,-1.6415,-0.5859
2026-07-23T16:02:37.766,218.7449,-1.6023,-0.5467
2026-07-23T16:02:37.776,218.772,-1.6415,-0.5467
2026-07-23T16:02:37.791,218.7745,-1.5631,-0.5075
2026-07-23T16:02:37.796,218.7745,-1.5044,-0.625
2026-07-23T16:02:37.812,218.7892,-1.5827,-0.5075
2026-07-23T16:02:37.812,218.7892,-1.6023,-0.6446
2026-07-23T16:02:37.825,218.8045,-1.5436,-0.5663
2026-07-23T16:02:37.840,218.8213,-1.6219,-0.5663
2026-07-23T16:02:37.840,218.8213,-1.5631,-0.5271
2026-07-23T16:02:37.855,218.8511,-1.6415,-0.5663
2026-07-23T16:02:37.867,218.8578,-1.5436,-0.5467
2026-07-23T16:02:37.872,218.8616,-1.6023,-0.6054
2026-07-23T16:02:37.886,218.8837,-1.4848,-0.6054
2026-07-23T16:02:37.902,218.8837,-1.6415,-0.5663
2026-07-23T16:02:37.902,218.8837,-1.4456,-0.5467
2026-07-23T16:02:37.912,218.9169,-1.7198,-0.5663
2026-07-23T16:02:37.934,218.9169,-1.5044,-0.5075
2026-07-23T16:02:37.934,218.9169,-1.661,-0.625
2026-07-23T16:02:37.949,218.9452,-1.4848,-0.5467
2026-07-23T16:02:37.965,218.9518,-1.5631,-0.5859
2026-07-23T16:02:37.968,218.9518,-1.4652,-0.5663
2026-07-23T16:02:37.968,218.9575,-1.7394,-0.5663
2026-07-23T16:02:37.996,218.983,-1.5436,-0.5271
2026-07-23T16:02:37.996,218.983,-1.7198,-0.5859
2026-07-23T16:02:38.003,218.983,-1.5044,-0.5859
2026-07-23T16:02:38.021,219.008,-1.6415,-0.5859
2026-07-23T16:02:38.027,219.008,-1.4261,-0.5467
2026-07-23T16:02:38.034,219.008,-1.661,-0.5859
2026-07-23T16:02:38.043,219.0554,-1.4652,-0.5663
2026-07-23T16:02:38.059,219.0554,-1.7394,-0.4684
2026-07-23T16:02:38.059,219.0554,-1.5436,-0.5075
2026-07-23T16:02:38.075,219.0554,-1.661,-0.488
2026-07-23T16:02:38.088,219.0883,-1.5436,-0.5075
2026-07-23T16:02:38.096,219.0883,-1.6415,-0.6054
2026-07-23T16:02:38.106,219.0883,-1.5044,-0.5663
2026-07-23T16:02:38.122,219.1181,-1.5631,-0.5663
2026-07-23T16:02:38.122,219.1181,-1.4652,-0.6054
2026-07-23T16:02:38.122,219.1181,-1.6415,-0.6054
2026-07-23T16:02:38.153,219.1499,-1.524,-0.5859
2026-07-23T16:02:38.169,219.1499,-1.6219,-0.5271
2026-07-23T16:02:38.169,219.1499,-1.524,-0.5859
2026-07-23T16:02:38.169,219.1499,-1.5827,-0.5467
2026-07-23T16:02:38.201,219.1826,-1.6023,-0.6054
2026-07-23T16:02:38.201,219.1826,-1.6219,-0.5075
2026-07-23T16:02:38.201,219.1826,-1.5827,-0.6054
2026-07-23T16:02:38.217,219.2155,-1.5827,-0.5859
2026-07-23T16:02:38.232,219.2155,-1.5631,-0.625
2026-07-23T16:02:38.233,219.2155,-1.524,-0.5467
2026-07-23T16:02:38.250,219.2456,-1.5436,-0.6446
2026-07-23T16:02:38.264,219.2456,-1.6023,-0.5663
2026-07-23T16:02:38.266,219.2456,-1.5827,-0.488
2026-07-23T16:02:38.279,219.277,-1.6415,-0.625
2026-07-23T16:02:38.295,219.277,-1.5436,-0.5859
2026-07-23T16:02:38.295,219.277,-1.6415,-0.5859
2026-07-23T16:02:38.296,219.3074,-1.4848,-0.5271
2026-07-23T16:02:38.326,219.3074,-1.5631,-0.5859
2026-07-23T16:02:38.328,219.3074,-1.5436,-0.5467
2026-07-23T16:02:38.342,219.3384,-1.6415,-0.625
2026-07-23T16:02:38.342,219.3384,-1.4848,-0.5467
2026-07-23T16:02:38.357,219.3384,-1.6219,-0.5859
2026-07-23T16:02:38.358,219.3384,-1.4652,-0.5663
2026-07-23T16:02:38.373,219.3707,-1.6219,-0.5859
2026-07-23T16:02:38.373,219.3707,-1.5631,-0.5663
2026-07-23T16:02:38.396,219.4022,-1.7198,-0.5271
2026-07-23T16:02:38.414,219.4022,-1.4848,-0.5271
2026-07-23T16:02:38.414,219.4042,-1.661,-0.5859
2026-07-23T16:02:38.426,219.4314,-1.4848,-0.5859
2026-07-23T16:02:38.437,219.4314,-1.6023,-0.6446
2026-07-23T16:02:38.448,219.434,-1.5044,-0.5663
2026-07-23T16:02:38.455,219.4362,-1.5631,-0.6054
2026-07-23T16:02:38.469,219.464,-1.5044,-0.5663
2026-07-23T16:02:38.469,219.464,-1.6806,-0.5075
2026-07-23T16:02:38.487,219.4658,-1.4848,-0.5271
2026-07-23T16:02:38.501,219.4838,-1.661,-0.5467
2026-07-23T16:02:38.501,219.4838,-1.4456,-0.625
2026-07-23T16:02:38.517,219.4975,-1.661,-0.5467
2026-07-23T16:02:38.531,219.5284,-1.524,-0.5663
2026-07-23T16:02:38.535,219.5284,-1.7002,-0.5663
2026-07-23T16:02:38.535,219.5284,-1.5631,-0.5271
2026-07-23T16:02:38.557,219.5631,-1.661,-0.5075
2026-07-23T16:02:38.576,219.5646,-1.5631,-0.5663
2026-07-23T16:02:38.579,219.5646,-1.5827,-0.5663
2026-07-23T16:02:38.585,219.5957,-1.4652,-0.5467
2026-07-23T16:02:38.599,219.5957,-1.524,-0.5859
2026-07-23T16:02:38.599,219.5957,-1.5631,-0.5663
2026-07-23T16:02:38.615,219.5957,-1.5436,-0.4488
2026-07-23T16:02:38.643,219.6232,-1.5436,-0.6054
2026-07-23T16:02:38.643,219.6232,-1.5631,-0.5467
2026-07-23T16:02:38.646,219.6232,-1.5827,-0.6054
2026-07-23T16:02:38.667,219.665,-1.5631,-0.5271
2026-07-23T16:02:38.674,219.665,-1.5436,-0.6054
2026-07-23T16:02:38.674,219.665,-1.5827,-0.5467
2026-07-23T16:02:38.688,219.6921,-1.6023,-0.5075
2026-07-23T16:02:38.706,219.6921,-1.5436,-0.6446
2026-07-23T16:02:38.706,219.6921,-1.5827,-0.5467
2026-07-23T16:02:38.716,219.7005,-1.6219,-0.6054
2026-07-23T16:02:38.743,219.7339,-1.5436,-0.5859
2026-07-23T16:02:38.743,219.7339,-1.6219,-0.5467
2026-07-23T16:02:38.743,219.7339,-1.6415,-0.5467
2026-07-23T16:02:38.770,219.7655,-1.6415,-0.5271
2026-07-23T16:02:38.770,219.7655,-1.5436,-0.4488
2026-07-23T16:02:38.770,219.7655,-1.6415,-0.6446
2026-07-23T16:02:38.788,219.7655,-1.4848,-0.5467
2026-07-23T16:02:38.797,219.797,-1.6415,-0.5663
2026-07-23T16:02:38.800,219.797,-1.5044,-0.5663
2026-07-23T16:02:38.816,219.797,-1.7002,-0.5467
2026-07-23T16:02:38.832,219.8303,-1.524,-0.5467
2026-07-23T16:02:38.832,219.8303,-1.6415,-0.5271
2026-07-23T16:02:38.848,219.8303,-1.524,-0.6054
2026-07-23T16:02:38.868,219.8607,-1.6219,-0.6054
2026-07-23T16:02:38.868,219.8607,-1.4652,-0.5271
2026-07-23T16:02:38.868,219.8607,-1.661,-0.5271
2026-07-23T16:02:38.881,219.8661,-1.4848,-0.5663
2026-07-23T16:02:38.910,219.8923,-1.661,-0.5663
2026-07-23T16:02:38.911,219.8923,-1.524,-0.6054
2026-07-23T16:02:38.917,219.8923,-1.6219,-0.5467
2026-07-23T16:02:38.943,219.9239,-1.5044,-0.6054
2026-07-23T16:02:38.943,219.9239,-1.6415,-0.6054
2026-07-23T16:02:38.943,219.9239,-1.524,-0.5859
2026-07-23T16:02:38.963,219.9552,-1.7002,-0.5271
2026-07-23T16:02:38.975,219.9552,-1.524,-0.6054
2026-07-23T16:02:38.975,219.9552,-1.6219,-0.5467
2026-07-23T16:02:38.992,219.9876,-1.5436,-0.5663
2026-07-23T16:02:39.006,219.9876,-1.5827,-0.5663
2026-07-23T16:02:39.006,219.9876,-1.5436,-0.6054
2026-07-23T16:02:39.006,219.9876,-1.5436,-0.5663
2026-07-23T16:02:39.038,220.0228,-1.6023,-0.5467
2026-07-23T16:02:39.038,220.026,-1.5827,-0.5271
2026-07-23T16:02:39.038,220.026,-1.5827,-0.5663
2026-07-23T16:02:39.057,220.0494,-1.5436,-0.5075
2026-07-23T16:02:39.069,220.0494,-1.5827,-0.5663
2026-07-23T16:02:39.077,220.0494,-1.5631,-0.5467
2026-07-23T16:02:39.088,220.0852,-1.5631,-0.5271
2026-07-23T16:02:39.100,220.0852,-1.5044,-0.5271
2026-07-23T16:02:39.100,220.0852,-1.524,-0.5663
2026-07-23T16:02:39.132,220.1122,-1.6023,-0.5075
2026-07-23T16:02:39.132,220.1122,-1.5827,-0.6054
2026-07-23T16:02:39.136,220.1122,-1.5827,-0.5467
2026-07-23T16:02:39.147,220.1436,-1.6023,-0.5663
2026-07-23T16:02:39.163,220.1466,-1.5827,-0.5859
2026-07-23T16:02:39.163,220.1466,-1.5827,-0.5271
2026-07-23T16:02:39.183,220.1772,-1.6023,-0.5859
2026-07-23T16:02:39.188,220.1772,-1.6415,-0.5271
2026-07-23T16:02:39.197,220.1772,-1.6023,-0.5859
2026-07-23T16:02:39.202,220.2107,-1.6023,-0.5663
2026-07-23T16:02:39.226,220.2127,-1.5436,-0.5663
2026-07-23T16:02:39.226,220.2127,-1.5631,-0.5271
2026-07-23T16:02:39.245,220.2389,-1.6023,-0.5075
2026-07-23T16:02:39.245,220.2389,-1.524,-0.5663
2026-07-23T16:02:39.258,220.2389,-1.661,-0.6054
2026-07-23T16:02:39.268,220.2469,-1.5631,-0.5271
2026-07-23T16:02:39.280,220.2763,-1.5827,-0.625
2026-07-23T16:02:39.290,220.2763,-1.5436,-0.488
2026-07-23T16:02:39.298,220.2763,-1.7002,-0.5271
2026-07-23T16:02:39.308,220.308,-1.5436,-0.625
2026-07-23T16:02:39.321,220.308,-1.6023,-0.5859
2026-07-23T16:02:39.327,220.308,-1.524,-0.6054
2026-07-23T16:02:39.337,220.3375,-1.661,-0.5467
2026-07-23T16:02:39.355,220.3375,-1.5827,-0.5467
2026-07-23T16:02:39.359,220.3375,-1.6023,-0.5467
2026-07-23T16:02:39.372,220.3683,-1.524,-0.5467
2026-07-23T16:02:39.385,220.3708,-1.6023,-0.5075
2026-07-23T16:02:39.388,220.3708,-1.5436,-0.5859
2026-07-23T16:02:39.404,220.401,-1.6415,-0.5663
2026-07-23T16:02:39.416,220.401,-1.524,-0.5859
2026-07-23T16:02:39.422,220.4041,-1.5631,-0.5859
2026-07-23T16:02:39.422,220.4285,-1.5631,-0.5271
2026-07-23T16:02:39.448,220.4364,-1.5827,-0.5467
2026-07-23T16:02:39.448,220.4364,-1.6219,-0.6054
2026-07-23T16:02:39.455,220.4429,-1.4848,-0.5859
2026-07-23T16:02:39.464,220.4687,-1.5631,-0.6054
2026-07-23T16:02:39.479,220.4707,-1.5044,-0.5859
2026-07-23T16:02:39.487,220.4707,-1.6806,-0.5075
2026-07-23T16:02:39.495,220.4914,-1.524,-0.5859
2026-07-23T16:02:39.511,220.4914,-1.6219,-0.488
2026-07-23T16:02:39.511,220.5042,-1.5436,-0.5467
2026-07-23T16:02:39.527,220.5264,-1.6023,-0.5467
2026-07-23T16:02:39.542,220.5264,-1.5631,-0.5075
2026-07-23T16:02:39.542,220.5264,-1.6023,-0.6446
2026-07-23T16:02:39.558,220.5355,-1.5436,-0.5271
2026-07-23T16:02:39.574,220.56,-1.6415,-0.5271
2026-07-23T16:02:39.577,220.56,-1.5436,-0.5663
2026-07-23T16:02:39.586,220.56,-1.6219,-0.5663
2026-07-23T16:02:39.605,220.5857,-1.5631,-0.5859
2026-07-23T16:02:39.605,220.5857,-1.6219,-0.5663
2026-07-23T16:02:39.619,220.618,-1.524,-0.5859
2026-07-23T16:02:39.623,220.618,-1.6219,-0.5663
2026-07-23T16:02:39.636,220.618,-1.6023,-0.5859
2026-07-23T16:02:39.652,220.6489,-1.6023,-0.5467
2026-07-23T16:02:39.661,220.6494,-1.5827,-0.6054
2026-07-23T16:02:39.669,220.6514,-1.5044,-0.5075
2026-07-23T16:02:39.669,220.6737,-1.5827,-0.6054
2026-07-23T16:02:39.688,220.6808,-1.5436,-0.5467
2026-07-23T16:02:39.688,220.6808,-1.6023,-0.625
2026-07-23T16:02:39.712,220.7041,-1.5436,-0.5271
2026-07-23T16:02:39.725,220.7095,-1.6219,-0.5663
2026-07-23T16:02:39.725,220.7095,-1.5436,-0.5467
2026-07-23T16:02:39.744,220.7399,-1.6023,-0.6054
2026-07-23T16:02:39.755,220.7419,-1.524,-0.5859
2026-07-23T16:02:39.760,220.7439,-1.6415,-0.5859
2026-07-23T16:02:39.777,220.7698,-1.5827,-0.5859
2026-07-23T16:02:39.777,220.7708,-1.661,-0.5467
2026-07-23T16:02:39.788,220.7708,-1.6023,-0.5663
2026-07-23T16:02:39.798,220.7925,-1.5436,-0.5271
2026-07-23T16:02:39.811,220.8042,-1.5827,-0.6446
2026-07-23T16:02:39.822,220.8042,-1.524,-0.5271
2026-07-23T16:02:39.827,220.8233,-1.5827,-0.6054
2026-07-23T16:02:39.827,220.8233,-1.5827,-0.5859
2026-07-23T16:02:39.843,220.8358,-1.5631,-0.5271
2026-07-23T16:02:39.855,220.8373,-1.5827,-0.5663
2026-07-23T16:02:39.874,220.8601,-1.6219,-0.5859
2026-07-23T16:02:39.874,220.8601,-1.6415,-0.5271
2026-07-23T16:02:39.888,220.867,-1.5436,-0.5467
2026-07-23T16:02:39.911,220.8856,-1.5631,-0.6054
2026-07-23T16:02:39.911,220.8856,-1.6219,-0.6054
2026-07-23T16:02:39.918,220.8856,-1.524,-0.5467
2026-07-23T16:02:39.933,220.9171,-1.661,-0.5663
2026-07-23T16:02:39.936,220.9171,-1.524,-0.6642
2026-07-23T16:02:39.936,220.9171,-1.6023,-0.6642
2026-07-23T16:02:39.968,220.9489,-1.4456,-0.5859
2026-07-23T16:02:39.968,220.9489,-1.6806,-0.6642
2026-07-23T16:02:39.968,220.971,-1.5631,-0.5271
2026-07-23T16:02:39.999,220.9806,-1.6023,-0.625
2026-07-23T16:02:40.000,220.9806,-1.4848,-0.6642
2026-07-23T16:02:40.013,221.0042,-1.5631,-0.6642
2026-07-23T16:02:40.022,221.0042,-1.4848,-0.6642
2026-07-23T16:02:40.022,221.0042,-1.6023,-0.6838
2026-07-23T16:02:40.047,221.0374,-1.5044,-0.6642
2026-07-23T16:02:40.055,221.0374,-1.661,-0.6642
2026-07-23T16:02:40.055,221.0374,-1.4848,-0.625
2026-07-23T16:02:40.073,221.0686,-1.6023,-0.5663
2026-07-23T16:02:40.081,221.0708,-1.5044,-0.6838
2026-07-23T16:02:40.088,221.0708,-1.6219,-0.5859
2026-07-23T16:02:40.104,221.0913,-1.5044,-0.6054
2026-07-23T16:02:40.111,221.0913,-1.6219,-0.5663
2026-07-23T16:02:40.111,221.1041,-1.5044,-0.6446
2026-07-23T16:02:40.126,221.1227,-1.6219,-0.5663
2026-07-23T16:02:40.142,221.1375,-1.5631,-0.625
2026-07-23T16:02:40.142,221.1385,-1.5827,-0.5663
2026-07-23T16:02:40.167,221.1542,-1.5044,-0.6446
2026-07-23T16:02:40.173,221.1542,-1.5827,-0.5859
2026-07-23T16:02:40.173,221.1698,-1.6023,-0.5467
2026-07-23T16:02:40.188,221.1734,-1.5436,-0.6054
2026-07-23T16:02:40.199,221.2013,-1.5827,-0.5467
2026-07-23T16:02:40.205,221.2042,-1.5436,-0.5271
2026-07-23T16:02:40.205,221.2042,-1.5827,-0.5663
2026-07-23T16:02:40.244,221.2373,-1.6023,-0.5467
2026-07-23T16:02:40.244,221.2373,-1.524,-0.6054
2026-07-23T16:02:40.244,221.2373,-1.5436,-0.5859
2026-07-23T16:02:40.255,221.2404,-1.5827,-0.5467
2026-07-23T16:02:40.268,221.2708,-1.5631,-0.5663
2026-07-23T16:02:40.284,221.2718,-1.5827,-0.5663
2026-07-23T16:02:40.288,221.2718,-1.5631,-0.5663
2026-07-23T16:02:40.301,221.3042,-1.6415,-0.5075
2026-07-23T16:02:40.318,221.3042,-1.524,-0.625
2026-07-23T16:02:40.323,221.3042,-1.6219,-0.6054
2026-07-23T16:02:40.328,221.3108,-1.6023,-0.5663
2026-07-23T16:02:40.350,221.3375,-1.6023,-0.5271
2026-07-23T16:02:40.350,221.3425,-1.6219,-0.6446
2026-07-23T16:02:40.362,221.3425,-1.6023,-0.488
2026-07-23T16:02:40.377,221.3741,-1.6415,-0.625
2026-07-23T16:02:40.388,221.3741,-1.524,-0.5075
2026-07-23T16:02:40.388,221.3741,-1.661,-0.625
2026-07-23T16:02:40.399,221.3741,-1.5436,-0.6054
2026-07-23T16:02:40.409,221.4043,-1.7002,-0.625
2026-07-23T16:02:40.423,221.4059,-1.5436,-0.5859
2026-07-23T16:02:40.425,221.4064,-1.6415,-0.6642
2026-07-23T16:02:40.441,221.422,-1.4652,-0.5859
2026-07-23T16:02:40.453,221.422,-1.5827,-0.6054
2026-07-23T16:02:40.457,221.4372,-1.4848,-0.5467
2026-07-23T16:02:40.473,221.4532,-1.6415,-0.5271
2026-07-23T16:02:40.473,221.4532,-1.4652,-0.5467
2026-07-23T16:02:40.488,221.4725,-1.6219,-0.5859
2026-07-23T16:02:40.504,221.4859,-1.5044,-0.5075
2026-07-23T16:02:40.504,221.4859,-1.5827,-0.6054
2026-07-23T16:02:40.520,221.5005,-1.4848,-0.5859
2026-07-23T16:02:40.537,221.5274,-1.6415,-0.5271
2026-07-23T16:02:40.537,221.5274,-1.4848,-0.488
2026-07-23T16:02:40.551,221.5324,-1.7002,-0.5467
2026-07-23T16:02:40.555,221.562,-1.4848,-0.5271
2026-07-23T16:02:40.567,221.564,-1.6219,-0.5467
2026-07-23T16:02:40.578,221.564,-1.4652,-0.5859
2026-07-23T16:02:40.588,221.5954,-1.5827,-0.5271
2026-07-23T16:02:40.599,221.5954,-1.4848,-0.5663
2026-07-23T16:02:40.599,221.5954,-1.6219,-0.5859
2026-07-23T16:02:40.615,221.5954,-1.5631,-0.5271
2026-07-23T16:02:40.632,221.6264,-1.5827,-0.5075
2026-07-23T16:02:40.632,221.6264,-1.5044,-0.5859
2026-07-23T16:02:40.646,221.6324,-1.5044,-0.5271
2026-07-23T16:02:40.655,221.6609,-1.5631,-0.5859
2026-07-23T16:02:40.677,221.6646,-1.6219,-0.5467
2026-07-23T16:02:40.677,221.6646,-1.6219,-0.5663
2026-07-23T16:02:40.694,221.6941,-1.6415,-0.5663
2026-07-23T16:02:40.709,221.6961,-1.5827,-0.6054
2026-07-23T16:02:40.709,221.6961,-1.6219,-0.5859
2026-07-23T16:02:40.715,221.6961,-1.5436,-0.5859
2026-07-23T16:02:40.740,221.7269,-1.6023,-0.5271
2026-07-23T16:02:40.740,221.7269,-1.5631,-0.5859
2026-07-23T16:02:40.747,221.7269,-1.5631,-0.5663
2026-07-23T16:02:40.757,221.759,-1.5827,-0.4488
2026-07-23T16:02:40.771,221.759,-1.6415,-0.5663
2026-07-23T16:02:40.778,221.759,-1.5436,-0.5271
2026-07-23T16:02:40.789,221.7884,-1.6023,-0.5663
2026-07-23T16:02:40.804,221.7884,-1.5044,-0.5271
2026-07-23T16:02:40.804,221.7884,-1.5436,-0.5859
2026-07-23T16:02:40.822,221.8194,-1.4848,-0.5075
2026-07-23T16:02:40.834,221.8194,-1.6415,-0.5663
2026-07-23T16:02:40.839,221.8194,-1.4848,-0.5271
2026-07-23T16:02:40.855,221.8523,-1.661,-0.5663
2026-07-23T16:02:40.866,221.8523,-1.3869,-0.5859
2026-07-23T16:02:40.866,221.8523,-1.661,-0.5075
2026-07-23T16:02:40.881,221.8819,-1.5044,-0.5663
2026-07-23T16:02:40.900,221.8819,-1.6415,-0.5663
2026-07-23T16:02:40.900,221.8819,-1.5631,-0.6054
2026-07-23T16:02:40.919,221.9135,-1.661,-0.5467
2026-07-23T16:02:40.929,221.915,-1.5827,-0.6054
2026-07-23T16:02:40.929,221.9156,-1.7589,-0.6446
2026-07-23T16:02:40.933,221.918,-1.5631,-0.5663
2026-07-23T16:02:40.962,221.9402,-1.7589,-0.5859
2026-07-23T16:02:40.962,221.9443,-1.5044,-0.6642
2026-07-23T16:02:40.975,221.9724,-1.7198,-0.625
2026-07-23T16:02:40.991,221.9757,-1.5436,-0.6446
2026-07-23T16:02:40.991,221.9757,-1.7785,-0.5859
2026-07-23T16:02:41.000,221.9926,-1.4456,-0.6838
2026-07-23T16:02:41.022,222.0041,-1.7198,-0.5859
2026-07-23T16:02:41.022,222.0041,-1.524,-0.625
2026-07-23T16:02:41.026,222.0041,-1.6219,-0.5859
2026-07-23T16:02:41.043,222.0279,-1.5436,-0.6838
2026-07-23T16:02:41.043,222.0279,-1.6415,-0.5467
2026-07-23T16:02:41.055,222.0373,-1.6023,-0.6054
2026-07-23T16:02:41.079,222.0519,-1.6415,-0.6054
2026-07-23T16:02:41.079,222.0519,-1.7002,-0.625
2026-07-23T16:02:41.088,222.0677,-1.6023,-0.488
2026-07-23T16:02:41.103,222.0942,-1.6219,-0.6446
2026-07-23T16:02:41.103,222.0942,-1.661,-0.5467
2026-07-23T16:02:41.118,222.0977,-1.6415,-0.5859
2026-07-23T16:02:41.129,222.1152,-1.6219,-0.5663
2026-07-23T16:02:41.134,222.1152,-1.5631,-0.5271
2026-07-23T16:02:41.150,222.131,-1.6219,-0.6446
2026-07-23T16:02:41.166,222.1564,-1.6023,-0.39
2026-07-23T16:02:41.166,222.1564,-1.8568,-0.5859
2026-07-23T16:02:41.166,222.16,-1.6219,-0.6054
2026-07-23T16:02:41.190,222.1892,-1.6219,-0.6446
2026-07-23T16:02:41.204,222.1892,-1.6023,-0.6642
2026-07-23T16:02:41.207,222.1939,-1.6219,-0.6838
2026-07-23T16:02:41.229,222.2107,-1.6219,-0.625
2026-07-23T16:02:41.229,222.2107,-1.8177,-0.6642
2026-07-23T16:02:41.240,222.2107,-1.6023,-0.6446
2026-07-23T16:02:41.246,222.2496,-1.7785,-0.6838
2026-07-23T16:02:41.258,222.257,-1.5631,-0.6838
2026-07-23T16:02:41.261,222.257,-1.7394,-0.6446
2026-07-23T16:02:41.278,222.259,-1.6415,-0.6642
2026-07-23T16:02:41.288,222.2889,-1.7785,-0.6642
2026-07-23T16:02:41.300,222.2889,-1.6023,-0.6446
2026-07-23T16:02:41.310,222.2941,-1.8177,-0.6838
2026-07-23T16:02:41.329,222.3217,-1.661,-0.6838
2026-07-23T16:02:41.329,222.3217,-1.7785,-0.6446
2026-07-23T16:02:41.340,222.3217,-1.6219,-0.6446
2026-07-23T16:02:41.345,222.3217,-1.7589,-0.6642
2026-07-23T16:02:41.358,222.3546,-1.6415,-0.6054
2026-07-23T16:02:41.358,222.3546,-1.7981,-0.6838
2026-07-23T16:02:41.372,222.36,-1.6219,-0.7033
2026-07-23T16:02:41.391,222.3892,-1.8373,-0.6446
2026-07-23T16:02:41.403,222.3892,-1.661,-0.7229
2026-07-23T16:02:41.411,222.3892,-1.7785,-0.6642
2026-07-23T16:02:41.422,222.4208,-1.6415,-0.7033
2026-07-23T16:02:41.435,222.4246,-1.8568,-0.6446
2026-07-23T16:02:41.440,222.4269,-1.6806,-0.7229
2026-07-23T16:02:41.452,222.4494,-1.7589,-0.6838
2026-07-23T16:02:41.466,222.4494,-1.7589,-0.7425
2026-07-23T16:02:41.472,222.4494,-1.7002,-0.6642
2026-07-23T16:02:41.480,222.4625,-1.7589,-0.7229
2026-07-23T16:02:41.500,222.4867,-1.7394,-0.6642
2026-07-23T16:02:41.500,222.4867,-1.7394,-0.6642
2026-07-23T16:02:41.510,222.4918,-1.7589,-0.6838
2026-07-23T16:02:41.529,222.5099,-1.7002,-0.6838
2026-07-23T16:02:41.529,222.5099,-1.7785,-0.7033
2026-07-23T16:02:41.538,222.5099,-1.5827,-0.7229
2026-07-23T16:02:41.555,222.5531,-1.7785,-0.625
2026-07-23T16:02:41.561,222.5531,-1.7394,-0.7229
2026-07-23T16:02:41.561,222.5574,-1.7981,-0.6642
2026-07-23T16:02:41.587,222.5864,-1.6806,-0.5859
2026-07-23T16:02:41.588,222.59,-1.7002,-0.7425
2026-07-23T16:02:41.600,222.59,-1.7198,-0.625
2026-07-23T16:02:41.608,222.593,-1.7198,-0.7229
2026-07-23T16:02:41.608,222.6251,-1.7198,-0.6642
2026-07-23T16:02:41.634,222.6251,-1.7394,-0.7425
2026-07-23T16:02:41.637,222.6251,-1.7002,-0.6838
2026-07-23T16:02:41.644,222.6534,-1.7589,-0.6838
2026-07-23T16:02:41.674,222.6534,-1.6023,-0.6054
2026-07-23T16:02:41.674,222.6534,-1.7785,-0.7033
2026-07-23T16:02:41.676,222.669,-1.6415,-0.6838
2026-07-23T16:02:41.689,222.7002,-1.7785,-0.7229
2026-07-23T16:02:41.704,222.7012,-1.6219,-0.7033
2026-07-23T16:02:41.704,222.7012,-1.7785,-0.6838
2026-07-23T16:02:41.722,222.7042,-1.6023,-0.6446
2026-07-23T16:02:41.729,222.7376,-1.7785,-0.6838
2026-07-23T16:02:41.746,222.7376,-1.5436,-0.7033
2026-07-23T16:02:41.752,222.7432,-1.7785,-0.6838
2026-07-23T16:02:41.762,222.746,-1.6219,-0.6838
2026-07-23T16:02:41.767,222.7785,-1.7785,-0.6446
2026-07-23T16:02:41.784,222.7801,-1.6415,-0.6838
2026-07-23T16:02:41.788,222.7801,-1.7785,-0.6054
2026-07-23T16:02:41.797,222.7801,-1.6415,-0.6838
2026-07-23T16:02:41.811,222.8103,-1.8177,-0.6642
2026-07-23T16:02:41.822,222.8103,-1.6219,-0.6838
2026-07-23T16:02:41.831,222.8103,-1.7002,-0.6838
2026-07-23T16:02:41.831,222.8431,-1.6415,-0.7229
2026-07-23T16:02:41.861,222.8498,-1.7198,-0.625
2026-07-23T16:02:41.861,222.8498,-1.6806,-0.7425
2026-07-23T16:02:41.861,222.8498,-1.7002,-0.6838
2026-07-23T16:02:41.881,222.8784,-1.7198,-0.7425
2026-07-23T16:02:41.894,222.8784,-1.661,-0.625
2026-07-23T16:02:41.901,222.8784,-1.6415,-0.625
2026-07-23T16:02:41.908,222.8893,-1.6415,-0.6446
2026-07-23T16:02:41.924,222.9153,-1.5827,-0.6642
2026-07-23T16:02:41.929,222.9153,-1.6219,-0.625
2026-07-23T16:02:41.942,222.9222,-1.6023,-0.6642
2026-07-23T16:02:41.952,222.9526,-1.6219,-0.6054
2026-07-23T16:02:41.965,222.9526,-1.5436,-0.625
2026-07-23T16:02:41.966,222.9566,-1.661,-0.625
2026-07-23T16:02:41.977,222.9873,-1.6219,-0.5859
2026-07-23T16:02:42.001,222.9904,-1.6023,-0.625
2026-07-23T16:02:42.001,222.9904,-1.524,-0.5663
2026-07-23T16:02:42.007,222.9904,-1.5827,-0.6446
2026-07-23T16:02:42.022,223.0166,-1.5631,-0.6054
2026-07-23T16:02:42.036,223.0166,-1.5436,-0.6642
2026-07-23T16:02:42.041,223.0166,-1.5436,-0.625
2026-07-23T16:02:42.041,223.0288,-1.6415,-0.5859
2026-07-23T16:02:42.066,223.0579,-1.4848,-0.6054
2026-07-23T16:02:42.067,223.0579,-1.661,-0.6446
2026-07-23T16:02:42.080,223.061,-1.524,-0.5663
2026-07-23T16:02:42.098,223.0789,-1.661,-0.6054
2026-07-23T16:02:42.101,223.0789,-1.5436,-0.5663
2026-07-23T16:02:42.112,223.0789,-1.6806,-0.6838
2026-07-23T16:02:42.125,223.1122,-1.6219,-0.6054
2026-07-23T16:02:42.130,223.1122,-1.7002,-0.625
2026-07-23T16:02:42.130,223.1122,-1.6219,-0.6838
2026-07-23T16:02:42.145,223.1541,-1.7002,-0.6446
2026-07-23T16:02:42.163,223.1576,-1.5631,-0.6838
2026-07-23T16:02:42.163,223.1597,-1.5436,-0.6838
2026-07-23T16:02:42.177,223.1597,-1.6023,-0.7229
2026-07-23T16:02:42.201,223.1891,-1.7589,-0.6642
2026-07-23T16:02:42.201,223.1891,-1.6415,-0.6446
2026-07-23T16:02:42.210,223.1959,-1.7394,-0.625
2026-07-23T16:02:42.221,223.2207,-1.6219,-0.7229
2026-07-23T16:02:42.230,223.2245,-1.6806,-0.6054
2026-07-23T16:02:42.240,223.2245,-1.661,-0.7033
2026-07-23T16:02:42.247,223.2522,-1.661,-0.6642
2026-07-23T16:02:42.256,223.2576,-1.661,-0.7425
2026-07-23T16:02:42.256,223.2576,-1.6806,-0.7033
2026-07-23T16:02:42.275,223.2845,-1.7394,-0.7033
2026-07-23T16:02:42.303,223.2905,-1.7589,-0.7817
2026-07-23T16:02:42.303,223.2905,-1.7589,-0.7621
2026-07-23T16:02:42.308,223.2905,-1.7394,-0.7425
2026-07-23T16:02:42.322,223.3221,-1.8373,-0.8208
2026-07-23T16:02:42.335,223.3309,-1.8373,-0.8404
2026-07-23T16:02:42.335,223.3309,-1.8373,-0.7621
2026-07-23T16:02:42.350,223.3376,-1.8177,-0.8208
2026-07-23T16:02:42.361,223.3627,-1.896,-0.7817
2026-07-23T16:02:42.373,223.3655,-1.8177,-0.7817
2026-07-23T16:02:42.382,223.3655,-1.896,-0.8012
2026-07-23T16:02:42.388,223.3708,-1.8764,-0.8796
2026-07-23T16:02:42.401,223.3959,-1.9352,-0.7425
2026-07-23T16:02:42.401,223.3959,-1.8764,-0.8991
2026-07-23T16:02:42.416,223.4005,-1.896,-0.8796
2026-07-23T16:02:42.432,223.4255,-2.0722,-0.9187
2026-07-23T16:02:42.432,223.4255,-1.896,-0.8991
2026-07-23T16:02:42.451,223.4348,-1.9939,-0.7817
2026-07-23T16:02:42.461,223.4574,-1.8373,-0.9775
2026-07-23T16:02:42.476,223.464,-1.9156,-0.9971
2026-07-23T16:02:42.476,223.464,-1.8177,-0.9187
2026-07-23T16:02:42.497,223.492,-1.8764,-0.8991
2026-07-23T16:02:42.497,223.4958,-1.7394,-0.86
2026-07-23T16:02:42.515,223.4958,-1.7394,-0.9187
2026-07-23T16:02:42.522,223.4958,-1.6023,-0.86
2026-07-23T16:02:42.531,223.52,-1.7002,-0.8208
2026-07-23T16:02:42.540,223.5295,-1.5631,-0.86
2026-07-23T16:02:42.547,223.5321,-1.5827,-0.8404
2026-07-23T16:02:42.555,223.5514,-1.5044,-0.86
2026-07-23T16:02:42.571,223.5514,-1.5631,-0.7817
2026-07-23T16:02:42.583,223.5514,-1.4848,-0.8796
2026-07-23T16:02:42.589,223.5865,-1.4652,-0.7425
2026-07-23T16:02:42.602,223.5916,-1.4652,-0.7425
2026-07-23T16:02:42.602,223.595,-1.4848,-0.7033
2026-07-23T16:02:42.622,223.6147,-1.4456,-0.8012
2026-07-23T16:02:42.634,223.6147,-1.3477,-0.7621
2026-07-23T16:02:42.646,223.6147,-1.4261,-0.7229
2026-07-23T16:02:42.655,223.6507,-1.4065,-0.6838
2026-07-23T16:02:42.665,223.6507,-1.4652,-0.6642
2026-07-23T16:02:42.665,223.6548,-1.3477,-0.5467
2026-07-23T16:02:42.665,223.681,-1.3477,-0.625
2026-07-23T16:02:42.697,223.6878,-1.2303,-0.6054
2026-07-23T16:02:42.697,223.6878,-1.1911,-0.5271
2026-07-23T16:02:42.706,223.7087,-1.0932,-0.4488
2026-07-23T16:02:42.713,223.7087,-1.1324,-0.4684
2026-07-23T16:02:42.732,223.7087,-1.0736,-0.4488
2026-07-23T16:02:42.739,223.7253,-1.1128,-0.39
2026-07-23T16:02:42.759,223.7507,-1.0149,-0.4292
2026-07-23T16:02:42.759,223.7507,-1.0736,-0.4096
2026-07-23T16:02:42.759,223.7507,-0.8386,-0.4096
2026-07-23T16:02:42.776,223.7813,-1.0345,-0.3313
2026-07-23T16:02:42.791,223.7813,-1.1128,-0.4292
2026-07-23T16:02:42.801,223.7813,-1.1715,-0.3705
2026-07-23T16:02:42.808,223.8043,-1.054,-0.3509
2026-07-23T16:02:42.823,223.8117,-1.0736,-0.3705
2026-07-23T16:02:42.832,223.8117,-1.0345,-0.4096
2026-07-23T16:02:42.838,223.8117,-1.0345,-0.3117
2026-07-23T16:02:42.855,223.8377,-1.0149,-0.3705
2026-07-23T16:02:42.855,223.8377,-0.9953,-0.3705
2026-07-23T16:02:42.874,223.8712,-1.054,-0.3117
2026-07-23T16:02:42.888,223.8712,-1.1911,-0.4488
2026-07-23T16:02:42.888,223.8712,-1.1519,-0.5075
2026-07-23T16:02:42.888,223.8982,-1.1715,-0.4488
2026-07-23T16:02:42.919,223.8982,-1.1128,-0.488
2026-07-23T16:02:42.922,223.8982,-1.1519,-0.4488
2026-07-23T16:02:42.934,223.9253,-1.1911,-0.488
2026-07-23T16:02:42.934,223.9253,-1.2107,-0.5663
2026-07-23T16:02:42.949,223.93,-1.2107,-0.488
2026-07-23T16:02:42.965,223.9511,-1.2107,-0.5271
2026-07-23T16:02:42.965,223.9511,-1.2694,-0.5467
2026-07-23T16:02:42.982,223.9511,-1.1324,-0.5859
2026-07-23T16:02:42.993,223.9818,-1.289,-0.5271
2026-07-23T16:02:43.002,223.9818,-1.2694,-0.5467
2026-07-23T16:02:43.011,224.0096,-1.1911,-0.488
2026-07-23T16:02:43.022,224.0096,-1.2694,-0.5859
2026-07-23T16:02:43.033,224.0096,-1.1715,-0.5271
2026-07-23T16:02:43.039,224.0096,-1.3477,-0.5859
2026-07-23T16:02:43.052,224.0495,-1.1128,-0.4684
2026-07-23T16:02:43.060,224.0495,-1.4065,-0.5467
2026-07-23T16:02:43.060,224.0557,-1.2107,-0.4684
2026-07-23T16:02:43.083,224.0804,-1.3673,-0.4684
2026-07-23T16:02:43.096,224.0819,-1.2498,-0.5075
2026-07-23T16:02:43.104,224.0819,-1.3477,-0.5271
2026-07-23T16:02:43.107,224.1044,-1.3086,-0.488
2026-07-23T16:02:43.129,224.1133,-1.4065,-0.5271
2026-07-23T16:02:43.129,224.1133,-1.1911,-0.5663
2026-07-23T16:02:43.138,224.1376,-1.4456,-0.5075
2026-07-23T16:02:43.155,224.1376,-1.3477,-0.5075
2026-07-23T16:02:43.155,224.1494,-1.4456,-0.5467
2026-07-23T16:02:43.170,224.1509,-1.3086,-0.5859
2026-07-23T16:02:43.188,224.1772,-1.4848,-0.5859
2026-07-23T16:02:43.188,224.1772,-1.4456,-0.5859
2026-07-23T16:02:43.200,224.1772,-1.3869,-0.625
2026-07-23T16:02:43.206,224.2043,-1.3477,-0.6446
2026-07-23T16:02:43.222,224.2043,-1.4848,-0.5467
2026-07-23T16:02:43.228,224.2043,-1.5044,-0.6054
2026-07-23T16:02:43.233,224.2299,-1.524,-0.625
2026-07-23T16:02:43.249,224.2384,-1.5436,-0.7033
2026-07-23T16:02:43.255,224.2434,-1.5436,-0.6446
2026-07-23T16:02:43.265,224.2692,-1.6023,-0.6446
2026-07-23T16:02:43.281,224.2698,-1.7002,-0.6054
2026-07-23T16:02:43.289,224.2717,-1.6806,-0.7229
2026-07-23T16:02:43.310,224.3045,-1.661,-0.6642
2026-07-23T16:02:43.317,224.3045,-1.524,-0.7229
2026-07-23T16:02:43.328,224.3086,-1.524,-0.7425
2026-07-23T16:02:43.331,224.3124,-1.4065,-0.7621
2026-07-23T16:02:43.344,224.3399,-1.3673,-0.8404
2026-07-23T16:02:43.354,224.3421,-1.2694,-0.8012
2026-07-23T16:02:43.359,224.3421,-1.3282,-0.86
2026-07-23T16:02:43.375,224.371,-1.289,-0.8991
2026-07-23T16:02:43.375,224.371,-1.2303,-0.8796
2026-07-23T16:02:43.393,224.371,-1.2303,-0.8796
2026-07-23T16:02:43.402,224.3831,-1.3086,-0.8991
2026-07-23T16:02:43.410,224.4054,-1.2694,-0.9187
2026-07-23T16:02:43.415,224.4097,-1.4065,-1.0166
2026-07-23T16:02:43.434,224.4097,-1.3673,-0.9383
2026-07-23T16:02:43.437,224.4375,-1.5044,-0.9971
2026-07-23T16:02:43.453,224.4396,-1.3869,-0.8796
2026-07-23T16:02:43.460,224.4396,-1.5631,-0.8991
2026-07-23T16:02:43.469,224.465,-1.4456,-0.7033
2026-07-23T16:02:43.485,224.465,-1.5827,-0.7621
2026-07-23T16:02:43.490,224.471,-1.4652,-0.7033
2026-07-23T16:02:43.502,224.4889,-1.6023,-0.6446
2026-07-23T16:02:43.502,224.4967,-1.4652,-0.6838
2026-07-23T16:02:43.522,224.4967,-1.6219,-0.6838
2026-07-23T16:02:43.534,224.5123,-1.524,-0.6838
2026-07-23T16:02:43.540,224.5123,-1.661,-0.7425
2026-07-23T16:02:43.555,224.5304,-1.5044,-0.7425
2026-07-23T16:02:43.563,224.5514,-1.7198,-0.7621
2026-07-23T16:02:43.563,224.5514,-1.5631,-0.7621
2026-07-23T16:02:43.581,224.5514,-1.7394,-0.7817
2026-07-23T16:02:43.595,224.5818,-1.6023,-0.8208
2026-07-23T16:02:43.595,224.5838,-1.7785,-0.7229
2026-07-23T16:02:43.611,224.6074,-1.6023,-0.8012
2026-07-23T16:02:43.627,224.6102,-1.661,-0.8012
2026-07-23T16:02:43.627,224.6102,-1.6806,-0.7817
2026-07-23T16:02:43.655,224.6387,-1.7394,-0.7033
2026-07-23T16:02:43.655,224.6387,-1.7198,-0.8404
2026-07-23T16:02:43.661,224.6387,-1.7785,-0.7425
2026-07-23T16:02:43.669,224.6387,-1.7002,-0.8404
2026-07-23T16:02:43.688,224.6729,-1.7198,-0.7621
2026-07-23T16:02:43.689,224.6729,-1.7394,-0.7817
2026-07-23T16:02:43.706,224.6974,-1.8177,-0.8404
2026-07-23T16:02:43.707,224.7025,-1.7589,-0.7817
2026-07-23T16:02:43.707,224.7045,-1.7981,-0.8012
2026-07-23T16:02:43.730,224.7096,-1.7589,-0.8012
2026-07-23T16:02:43.738,224.7188,-1.7981,-0.8208
2026-07-23T16:02:43.753,224.7342,-1.7198,-0.8012
2026-07-23T16:02:43.760,224.739,-1.8764,-0.7621
2026-07-23T16:02:43.770,224.7622,-1.6806,-0.8208
2026-07-23T16:02:43.770,224.766,-1.7785,-0.8012
2026-07-23T16:02:43.790,224.7932,-1.7002,-0.7817
2026-07-23T16:02:43.806,224.7976,-1.7589,-0.8404
2026-07-23T16:02:43.806,224.7976,-1.661,-0.7425
2026-07-23T16:02:43.822,224.7976,-1.7394,-0.7621
2026-07-23T16:02:43.835,224.8226,-1.6023,-0.7425
2026-07-23T16:02:43.835,224.8226,-1.7394,-0.7425
2026-07-23T16:02:43.848,224.832,-1.5436,-0.7033
2026-07-23T16:02:43.861,224.8515,-1.7394,-0.7229
2026-07-23T16:02:43.864,224.8598,-1.4848,-0.7033
2026-07-23T16:02:43.883,224.8642,-1.6219,-0.7033
2026-07-23T16:02:43.888,224.8853,-1.4652,-0.6446
2026-07-23T16:02:43.902,224.8853,-1.6023,-0.6642
2026-07-23T16:02:43.915,224.8933,-1.4652,-0.6446
2026-07-23T16:02:43.915,224.9156,-1.6219,-0.7229
2026-07-23T16:02:43.936,224.9176,-1.4261,-0.6446
2026-07-23T16:02:43.936,224.9212,-1.5827,-0.6446
2026-07-23T16:02:43.944,224.9484,-1.4652,-0.7033
2026-07-23T16:02:43.959,224.9508,-1.5631,-0.6054
2026-07-23T16:02:43.974,224.9554,-1.3869,-0.6054
2026-07-23T16:02:43.974,224.9782,-1.5436,-0.488
2026-07-23T16:02:43.995,224.9814,-1.3673,-0.6054
2026-07-23T16:02:44.002,224.9859,-1.4652,-0.6054
2026-07-23T16:02:44.007,225.0107,-1.3477,-0.5663
2026-07-23T16:02:44.024,225.0107,-1.3673,-0.5075
2026-07-23T16:02:44.032,225.0203,-1.2694,-0.5075
2026-07-23T16:02:44.040,225.0448,-1.3282,-0.4684
2026-07-23T16:02:44.055,225.0493,-1.3086,-0.5271
2026-07-23T16:02:44.061,225.0518,-1.3086,-0.4096
2026-07-23T16:02:44.074,225.0553,-1.2694,-0.4488
2026-07-23T16:02:44.089,225.0814,-1.2107,-0.5075
2026-07-23T16:02:44.089,225.0814,-1.1911,-0.4684
2026-07-23T16:02:44.100,225.0883,-1.2498,-0.3313
2026-07-23T16:02:44.116,225.1186,-1.1324,-0.4488
2026-07-23T16:02:44.124,225.1186,-1.1911,-0.4292
2026-07-23T16:02:44.132,225.1274,-1.0932,-0.4292
2026-07-23T16:02:44.139,225.1291,-1.1715,-0.3705
2026-07-23T16:02:44.155,225.1611,-1.0736,-0.3313
2026-07-23T16:02:44.165,225.1611,-1.0345,-0.4096
2026-07-23T16:02:44.169,225.1611,-1.054,-0.488
2026-07-23T16:02:44.180,225.1711,-1.1519,-0.2921
2026-07-23T16:02:44.192,225.2042,-0.9953,-0.1747
2026-07-23T16:02:44.207,225.208,-1.1128,-0.2138
2026-07-23T16:02:44.212,225.208,-0.8582,-0.1942
2026-07-23T16:02:44.222,225.2139,-1.0345,-0.1747
2026-07-23T16:02:44.227,225.2397,-0.8974,-0.1942
2026-07-23T16:02:44.243,225.251,-1.1324,-0.1942
2026-07-23T16:02:44.249,225.252,-0.9561,-0.0768
2026-07-23T16:02:44.259,225.2554,-1.1324,-0.2138
2026-07-23T16:02:44.271,225.29,-0.9365,-0.1355
2026-07-23T16:02:44.275,225.294,-1.0345,-0.1551
2026-07-23T16:02:44.290,225.294,-0.8386,-0.0963
2026-07-23T16:02:44.303,225.3027,-1.0736,-0.0376
2026-07-23T16:02:44.313,225.3066,-0.8386,-0.0376
2026-07-23T16:02:44.322,225.3346,-0.9365,0.0603
2026-07-23T16:02:44.338,225.3376,-0.7603,0.0016
2026-07-23T16:02:44.345,225.3396,-0.917,0.0799
2026-07-23T16:02:44.357,225.3396,-0.7016,0.0799
2026-07-23T16:02:44.357,225.3731,-0.8778,0.1386
2026-07-23T16:02:44.374,225.3761,-0.6428,0.1386
2026-07-23T16:02:44.384,225.3792,-0.8191,0.1778
2026-07-23T16:02:44.390,225.3822,-0.7212,0.2561
2026-07-23T16:02:44.403,225.4065,-0.7799,0.2953
2026-07-23T16:02:44.417,225.4065,-0.7016,0.217
2026-07-23T16:02:44.417,225.4065,-0.7212,0.2953
2026-07-23T16:02:44.435,225.4157,-0.6624,0.2757
2026-07-23T16:02:44.449,225.4452,-0.7212,0.2757
2026-07-23T16:02:44.449,225.4452,-0.6428,0.2953
2026-07-23T16:02:44.457,225.4482,-0.7016,0.354
2026-07-23T16:02:44.466,225.4767,-0.682,0.4128
2026-07-23T16:02:44.488,225.4767,-0.6037,0.2953
2026-07-23T16:02:44.488,225.4767,-0.6037,0.3344
2026-07-23T16:02:44.503,225.49,-0.6428,0.3344
2026-07-23T16:02:44.512,225.5182,-0.6428,0.3736
2026-07-23T16:02:44.522,225.5182,-0.6428,0.354
2026-07-23T16:02:44.527,225.5182,-0.6037,0.3932
2026-07-23T16:02:44.541,225.5239,-0.682,0.3149
2026-07-23T16:02:44.560,225.5521,-0.6233,0.4128
2026-07-23T16:02:44.560,225.5521,-0.7016,0.4128
2026-07-23T16:02:44.575,225.5573,-0.6233,0.3736
2026-07-23T16:02:44.582,225.5734,-0.7407,0.3149
2026-07-23T16:02:44.590,225.5734,-0.6428,0.4519
2026-07-23T16:02:44.590,225.5876,-0.7799,0.3149
2026-07-23T16:02:44.608,225.5952,-0.6037,0.3932
2026-07-23T16:02:44.622,225.6189,-0.7799,0.354
2026-07-23T16:02:44.624,225.6228,-0.5645,0.4519
2026-07-23T16:02:44.646,225.6228,-0.7407,0.3932
2026-07-23T16:02:44.655,225.655,-0.6037,0.4715
2026-07-23T16:02:44.655,225.657,-0.682,0.4323
2026-07-23T16:02:44.674,225.657,-0.5841,0.4128
2026-07-23T16:02:44.674,225.657,-0.682,0.3932
2026-07-23T16:02:44.691,225.688,-0.5841,0.4519
2026-07-23T16:02:44.701,225.688,-0.682,0.5107
2026-07-23T16:02:44.708,225.6985,-0.4666,0.4519
2026-07-23T16:02:44.724,225.7284,-0.7016,0.4911
2026-07-23T16:02:44.732,225.7284,-0.5449,0.4323
2026-07-23T16:02:44.739,225.7401,-0.6037,0.5302
2026-07-23T16:02:44.757,225.7452,-0.5449,0.4911
2026-07-23T16:02:44.764,225.7749,-0.5645,0.5302
2026-07-23T16:02:44.779,225.7764,-0.447,0.589
2026-07-23T16:02:44.779,225.7764,-0.5058,0.589
2026-07-23T16:02:44.791,225.7764,-0.4274,0.589
2026-07-23T16:02:44.796,225.8094,-0.4274,0.6086
2026-07-23T16:02:44.822,225.8094,-0.4274,0.6477
2026-07-23T16:02:44.822,225.8094,-0.4666,0.589
2026-07-23T16:02:44.832,225.8094,-0.447,0.5498
2026-07-23T16:02:44.839,225.8395,-0.4079,0.5694
2026-07-23T16:02:44.855,225.8532,-0.4274,0.6477
2026-07-23T16:02:44.860,225.8557,-0.4666,0.5694
2026-07-23T16:02:44.860,225.8633,-0.5058,0.5498
2026-07-23T16:02:44.874,225.8885,-0.3295,0.6477
2026-07-23T16:02:44.890,225.8885,-0.5841,0.589
2026-07-23T16:02:44.890,225.8885,-0.5449,0.6282
2026-07-23T16:02:44.907,225.9037,-0.5254,0.6282
2026-07-23T16:02:44.922,225.9188,-0.5058,0.6869
2026-07-23T16:02:44.938,225.9342,-0.5058,0.7456
2026-07-23T16:02:44.939,225.9378,-0.4862,0.824
2026-07-23T16:02:44.954,225.9415,-0.3687,0.9023
2026-07-23T16:02:44.958,225.9711,-0.5058,0.8827
2026-07-23T16:02:44.970,225.9765,-0.3295,0.9219
2026-07-23T16:02:44.985,225.9794,-0.4274,0.961
2026-07-23T16:02:44.992,225.983,-0.1925,1.0198
2026-07-23T16:02:45.004,226.0136,-0.2512,1.0198
2026-07-23T16:02:45.018,226.0207,-0.1729,1.1373
2026-07-23T16:02:45.022,226.0217,-0.2512,1.1373
2026-07-23T16:02:45.033,226.0249,-0.075,1.1764
2026-07-23T16:02:45.041,226.0554,-0.2316,1.2352
2026-07-23T16:02:45.050,226.0554,-0.075,1.1373
2026-07-23T16:02:45.064,226.0635,-0.1533,1.196
2026-07-23T16:02:45.073,226.0635,-0.0946,1.1373
2026-07-23T16:02:45.083,226.074,-0.2512,1.196
2026-07-23T16:02:45.089,226.1,-0.1337,1.1177
2026-07-23T16:02:45.106,226.1,-0.31,1.0589
2026-07-23T16:02:45.114,226.1079,-0.0946,1.0198
2026-07-23T16:02:45.114,226.1079,-0.2121,1.0002
2026-07-23T16:02:45.127,226.1239,-0.1337,0.961
2026-07-23T16:02:45.144,226.1375,-0.2121,1.0002
2026-07-23T16:02:45.151,226.1436,-0.1925,1.0393
2026-07-23T16:02:45.159,226.1436,-0.1925,1.0002
2026-07-23T16:02:45.166,226.1711,-0.2708,1.0002
2026-07-23T16:02:45.175,226.1711,-0.1925,0.9806
2026-07-23T16:02:45.194,226.1711,-0.2121,0.9023
2026-07-23T16:02:45.204,226.1898,-0.2316,1.0002
2026-07-23T16:02:45.210,226.2042,-0.1533,0.8827
2026-07-23T16:02:45.222,226.2147,-0.1337,0.8827
2026-07-23T16:02:45.222,226.2189,-0.2708,0.824
2026-07-23T16:02:45.250,226.2508,-0.2121,0.7848
2026-07-23T16:02:45.255,226.2534,-0.2121,0.824
2026-07-23T16:02:45.255,226.2534,-0.1337,0.8044
2026-07-23T16:02:45.270,226.2605,-0.31,0.8631
2026-07-23T16:02:45.291,226.29,-0.1925,0.8044
2026-07-23T16:02:45.291,226.29,-0.1925,0.9414
2026-07-23T16:02:45.304,226.29,-0.1337,0.8044
2026-07-23T16:02:45.318,226.2999,-0.1729,0.8631
2026-07-23T16:02:45.322,226.3243,-0.2121,0.7065
2026-07-23T16:02:45.333,226.3269,-0.1337,0.7261
2026-07-23T16:02:45.341,226.3297,-0.2512,0.7065
2026-07-23T16:02:45.353,226.3535,-0.1729,0.6673
2026-07-23T16:02:45.359,226.3635,-0.2316,0.6869
2026-07-23T16:02:45.375,226.3683,-0.1729,0.6477
2026-07-23T16:02:45.389,226.3751,-0.2316,0.6673
2026-07-23T16:02:45.389,226.3751,-0.075,0.6086
2026-07-23T16:02:45.404,226.3966,-0.1729,0.5694
2026-07-23T16:02:45.419,226.4029,-0.075,0.4911
2026-07-23T16:02:45.426,226.4084,-0.1337,0.4519
2026-07-23T16:02:45.434,226.4241,-0.0163,0.3149
2026-07-23T16:02:45.444,226.4241,-0.1729,0.2757
2026-07-23T16:02:45.454,226.4379,-0.075,0.1191
2026-07-23T16:02:45.459,226.4558,-0.0946,0.0799
2026-07-23T16:02:45.475,226.4711,-0.1142,-0.018
2026-07-23T16:02:45.475,226.4758,-0.1142,-0.0376
2026-07-23T16:02:45.496,226.4803,-0.0554,-0.1551
2026-07-23T16:02:45.505,226.5066,-0.0554,-0.1551
2026-07-23T16:02:45.507,226.5113,-0.0946,-0.2334
2026-07-23T16:02:45.522,226.5113,-0.0358,-0.2138
2026-07-23T16:02:45.531,226.5182,-0.0554,-0.3313
2026-07-23T16:02:45.544,226.5461,-0.0554,-0.2921
2026-07-23T16:02:45.555,226.5461,0.16,-0.3117
2026-07-23T16:02:45.562,226.5538,0.0425,-0.1355
2026-07-23T16:02:45.569,226.5538,-0.0946,-0.2334
2026-07-23T16:02:45.584,226.5814,0.0033,-0.2334
2026-07-23T16:02:45.588,226.5865,-0.1142,-0.2334
2026-07-23T16:02:45.605,226.5913,0.0033,-0.2334
2026-07-23T16:02:45.605,226.5971,-0.1337,-0.2138
2026-07-23T16:02:45.625,226.6208,-0.0163,-0.2334
2026-07-23T16:02:45.632,226.6243,-0.0946,-0.1551
2026-07-23T16:02:45.645,226.6301,0.0425,-0.1942
2026-07-23T16:02:45.655,226.6596,0.0033,-0.1551
2026-07-23T16:02:45.664,226.6616,0.0425,-0.1942
2026-07-23T16:02:45.675,226.6616,0.0817,-0.0768
2026-07-23T16:02:45.685,226.6681,0.16,-0.1159
2026-07-23T16:02:45.703,226.6955,0.1208,-0.0963
2026-07-23T16:02:45.705,226.6976,0.2383,-0.1355
2026-07-23T16:02:45.719,226.7007,0.2579,0.0016
2026-07-23T16:02:45.722,226.7064,0.297,-0.0768
2026-07-23T16:02:45.742,226.7223,0.3166,-0.018
2026-07-23T16:02:45.748,226.7411,0.4928,0.0407
2026-07-23T16:02:45.751,226.7435,0.532,0.0799
2026-07-23T16:02:45.773,226.7761,0.4537,0.1191
2026-07-23T16:02:45.773,226.7761,0.6299,0.1778
2026-07-23T16:02:45.773,226.7761,0.5712,0.1191
2026-07-23T16:02:45.794,226.7858,0.7278,0.2561
2026-07-23T16:02:45.805,226.8134,0.7278,0.2757
2026-07-23T16:02:45.805,226.8176,0.8649,0.3344
2026-07-23T16:02:45.827,226.8218,0.9824,0.4519
2026-07-23T16:02:45.837,226.8267,1.1194,0.4519
2026-07-23T16:02:45.837,226.8267,1.1978,0.4519
2026-07-23T16:02:45.855,226.8565,1.2957,0.5302
2026-07-23T16:02:45.864,226.8565,1.3152,0.4911
2026-07-23T16:02:45.878,226.8565,1.2957,0.4911
2026-07-23T16:02:45.878,226.8565,1.2761,0.5302
2026-07-23T16:02:45.900,226.8967,1.374,0.4715
2026-07-23T16:02:45.907,226.8967,1.374,0.6869
2026-07-23T16:02:45.907,226.8967,1.2761,0.5694
2026-07-23T16:02:45.924,226.928,1.374,0.6282
2026-07-23T16:02:45.932,226.935,1.2565,0.6673
2026-07-23T16:02:45.947,226.935,1.3348,0.6282
2026-07-23T16:02:45.947,226.938,1.1782,0.6869
2026-07-23T16:02:45.963,226.9597,1.2565,0.7065
2026-07-23T16:02:45.963,226.9597,1.1194,0.6869
2026-07-23T16:02:45.986,226.9712,1.2369,0.589
2026-07-23T16:02:45.989,226.9756,1.0607,0.6282
2026-07-23T16:02:46.001,226.9977,1.1586,0.6282
2026-07-23T16:02:46.010,227.0046,1.0411,0.6477
2026-07-23T16:02:46.026,227.0075,1.2369,0.5498
2026-07-23T16:02:46.036,227.0334,0.9824,0.6869
2026-07-23T16:02:46.044,227.0376,1.139,0.6673
2026-07-23T16:02:46.055,227.0391,1.0215,0.6282
2026-07-23T16:02:46.060,227.0551,1.1194,0.6282
2026-07-23T16:02:46.075,227.0551,0.9824,0.6673
2026-07-23T16:02:46.084,227.0748,1.1194,0.6477
2026-07-23T16:02:46.090,227.0748,0.9236,0.6477
2026-07-23T16:02:46.106,227.101,1.0411,0.6673
2026-07-23T16:02:46.106,227.1031,0.9432,0.7065
2026-07-23T16:02:46.126,227.1047,1.0411,0.6673
2026-07-23T16:02:46.126,227.1198,0.9432,0.6673
2026-07-23T16:02:46.144,227.1377,0.9432,0.5498
2026-07-23T16:02:46.156,227.1442,0.904,0.7456
2026-07-23T16:02:46.163,227.1442,0.904,0.589
2026-07-23T16:02:46.171,227.1711,0.9236,0.6869
2026-07-23T16:02:46.171,227.1711,0.9432,0.6477
2026-07-23T16:02:46.195,227.1821,0.8845,0.6477
2026-07-23T16:02:46.201,227.2045,0.8649,0.6086
2026-07-23T16:02:46.217,227.2045,0.9432,0.6282
2026-07-23T16:02:46.222,227.2136,0.8649,0.589
2026-07-23T16:02:46.236,227.2136,0.8257,0.5498
2026-07-23T16:02:46.236,227.2415,0.8061,0.6673
2026-07-23T16:02:46.251,227.2452,0.8061,0.6086
2026-07-23T16:02:46.264,227.2505,0.8257,0.6086
2026-07-23T16:02:46.264,227.2505,0.8649,0.589
2026-07-23T16:02:46.280,227.2766,0.8453,0.5694
2026-07-23T16:02:46.295,227.2836,0.7082,0.589
2026-07-23T16:02:46.301,227.2836,0.7866,0.5302
2026-07-23T16:02:46.315,227.3083,0.7082,0.5498
2026-07-23T16:02:46.322,227.3083,0.7278,0.589
2026-07-23T16:02:46.334,227.3083,0.6299,0.5302
2026-07-23T16:02:46.345,227.3401,0.7474,0.5694
2026-07-23T16:02:46.358,227.3401,0.6299,0.4519
2026-07-23T16:02:46.359,227.3401,1.1194,0.5498
2026-07-23T16:02:46.359,227.3712,0.6103,0.4911
2026-07-23T16:02:46.376,227.3787,0.7866,0.4715
2026-07-23T16:02:46.391,227.3787,0.6495,0.5107
2026-07-23T16:02:46.391,227.3887,0.8061,0.5694
2026-07-23T16:02:46.406,227.4106,0.7082,0.5302
2026-07-23T16:02:46.422,227.4106,0.8649,0.6086
2026-07-23T16:02:46.437,227.4106,0.6691,0.5302
2026-07-23T16:02:46.446,227.4378,0.8453,0.5694
2026-07-23T16:02:46.455,227.4411,0.6495,0.5498
2026-07-23T16:02:46.461,227.4411,0.8453,0.5694
2026-07-23T16:02:46.469,227.466,0.6887,0.5498
2026-07-23T16:02:46.485,227.4693,0.8649,0.589
2026-07-23T16:02:46.492,227.4713,0.8257,0.6282
2026-07-23T16:02:46.503,227.5014,0.9236,0.6282
2026-07-23T16:02:46.506,227.5014,0.8845,0.6869
2026-07-23T16:02:46.522,227.5067,0.9236,0.6869
2026-07-23T16:02:46.532,227.5337,0.8649,0.7456
2026-07-23T16:02:46.548,227.5377,0.9432,0.6477
2026-07-23T16:02:46.552,227.542,0.9236,0.7261
2026-07-23T16:02:46.564,227.5462,0.9432,0.7065
2026-07-23T16:02:46.579,227.5695,0.9432,0.824
2026-07-23T16:02:46.579,227.5695,1.0019,0.7652
2026-07-23T16:02:46.593,227.5757,0.904,0.7652
2026-07-23T16:02:46.607,227.5991,1.0019,0.7848
2026-07-23T16:02:46.612,227.5991,0.9628,0.7848
2026-07-23T16:02:46.626,227.6071,1.0411,0.9023
2026-07-23T16:02:46.626,227.6071,1.0607,0.7848
2026-07-23T16:02:46.646,227.6253,1.0999,0.8631
2026-07-23T16:02:46.650,227.6388,1.0607,0.8044
2026-07-23T16:02:46.663,227.6589,1.0803,0.9023
2026-07-23T16:02:46.676,227.6669,1.0215,0.8044
2026-07-23T16:02:46.676,227.6669,1.0999,0.8631
2026-07-23T16:02:46.691,227.6712,1.0999,0.8435
2026-07-23T16:02:46.691,227.6983,1.1586,0.9219
2026-07-23T16:02:46.710,227.7021,0.9432,0.8827
2026-07-23T16:02:46.722,227.7046,1.1586,0.9414
2026-07-23T16:02:46.742,227.7358,0.9432,0.961
2026-07-23T16:02:46.742,227.7358,1.1978,0.9023
2026-07-23T16:02:46.755,227.7424,0.904,0.9806
2026-07-23T16:02:46.760,227.7424,1.1194,0.9806
2026-07-23T16:02:46.769,227.7752,1.0215,1.0393
2026-07-23T16:02:46.787,227.7779,1.2565,1.0198
2026-07-23T16:02:46.793,227.7779,1.0411,1.1177
2026-07-23T16:02:46.807,227.8045,1.2173,1.0981
2026-07-23T16:02:46.816,227.8137,1.0019,1.1177
2026-07-23T16:02:46.829,227.8184,1.2369,1.0198
2026-07-23T16:02:46.835,227.8184,1.0215,1.0785
2026-07-23T16:02:46.855,227.8529,1.2565,1.0981
2026-07-23T16:02:46.855,227.8529,1.0803,1.1177
2026-07-23T16:02:46.865,227.8558,1.2565,1.1764
2026-07-23T16:02:46.869,227.8606,1.1978,1.2352
2026-07-23T16:02:46.889,227.8767,1.2761,1.2156
2026-07-23T16:02:46.895,227.8891,1.2369,1.2939
2026-07-23T16:02:46.904,227.8891,1.3152,1.3331
2026-07-23T16:02:46.911,227.8961,1.374,1.3722
2026-07-23T16:02:46.927,227.9236,1.3152,1.3526
2026-07-23T16:02:46.927,227.9244,1.2565,1.3918
2026-07-23T16:02:46.947,227.9308,1.2761,1.431
2026-07-23T16:02:46.947,227.9559,1.2565,1.4114
2026-07-23T16:02:46.961,227.9645,1.3544,1.4505
2026-07-23T16:02:46.961,227.9645,1.2957,1.4897
2026-07-23T16:02:46.982,227.9726,1.3348,1.4505
2026-07-23T16:02:46.992,227.9965,1.2957,1.431
2026-07-23T16:02:47.007,228.0024,1.3348,1.4897
2026-07-23T16:02:47.015,228.0065,1.2957,1.4701
2026-07-23T16:02:47.023,228.0151,1.3936,1.5289
2026-07-23T16:02:47.023,228.0378,1.3348,1.4897
2026-07-23T16:02:47.043,228.0378,1.4719,1.5484
2026-07-23T16:02:47.053,228.0378,1.374,1.5876
2026-07-23T16:02:47.066,228.0501,1.511,1.568
2026-07-23T16:02:47.078,228.0758,1.3544,1.5484
2026-07-23T16:02:47.089,228.0758,1.4719,1.6072
2026-07-23T16:02:47.089,228.0826,1.2957,1.568
2026-07-23T16:02:47.101,228.0826,1.511,1.5876
2026-07-23T16:02:47.116,228.1045,1.2369,1.5876
2026-07-23T16:02:47.127,228.1125,1.511,1.5093
2026-07-23T16:02:47.133,228.1175,1.2369,1.5484
2026-07-23T16:02:47.155,228.1444,1.4915,1.568
2026-07-23T16:02:47.155,228.1449,1.3348,1.568
2026-07-23T16:02:47.163,228.149,1.4915,1.5093
2026-07-23T16:02:47.168,228.1712,1.3544,1.4505
2026-07-23T16:02:47.189,228.1754,1.4719,1.4701
2026-07-23T16:02:47.196,228.1794,1.3348,1.4897
2026-07-23T16:02:47.207,228.2045,1.4915,1.4505
2026-07-23T16:02:47.211,228.2075,1.3544,1.431
2026-07-23T16:02:47.226,228.211,1.5306,1.3918
2026-07-23T16:02:47.230,228.2164,1.4131,1.4505
2026-07-23T16:02:47.241,228.239,1.609,1.431
2026-07-23T16:02:47.258,228.2431,1.4719,1.6464
2026-07-23T16:02:47.262,228.2501,1.609,1.431
2026-07-23T16:02:47.274,228.2712,1.511,1.4897
2026-07-23T16:02:47.274,228.2712,1.6285,1.431
2026-07-23T16:02:47.294,228.2845,1.609,1.5093
2026-07-23T16:02:47.303,228.2869,1.609,1.3918
2026-07-23T16:02:47.322,228.3047,1.609,1.431
2026-07-23T16:02:47.322,228.3047,1.8048,1.3918
2026-07-23T16:02:47.322,228.3224,1.5502,1.3918
2026-07-23T16:02:47.348,228.3511,1.5894,1.431
2026-07-23T16:02:47.355,228.3536,1.5502,1.4114
2026-07-23T16:02:47.355,228.3566,1.5894,1.3331
2026-07-23T16:02:47.373,228.3593,1.5502,1.3526
2026-07-23T16:02:47.385,228.3816,1.5306,1.3331
2026-07-23T16:02:47.389,228.3881,1.4915,1.431
2026-07-23T16:02:47.407,228.3942,1.5306,1.3331
2026-07-23T16:02:47.415,228.398,1.4719,1.3135
2026-07-23T16:02:47.422,228.4207,1.4719,1.3526
2026-07-23T16:02:47.445,228.4207,1.4327,1.2352
2026-07-23T16:02:47.445,228.4294,1.5306,1.3331
2026-07-23T16:02:47.457,228.4549,1.4915,1.2547
2026-07-23T16:02:47.466,228.4569,1.5698,1.3331
2026-07-23T16:02:47.472,228.4569,1.4327,1.3135
2026-07-23T16:02:47.480,228.4612,1.5698,1.4114
2026-07-23T16:02:47.496,228.4768,1.4523,1.2939
2026-07-23T16:02:47.508,228.4768,1.6285,1.431
2026-07-23T16:02:47.512,228.4768,1.4719,1.3331
2026-07-23T16:02:47.528,228.5082,1.7069,1.3918
2026-07-23T16:02:47.528,228.5175,1.4131,1.3722
2026-07-23T16:02:47.544,228.5212,1.6285,1.3918
2026-07-23T16:02:47.549,228.5439,1.5502,1.3918
2026-07-23T16:02:47.559,228.5493,1.7656,1.4897
2026-07-23T16:02:47.575,228.5493,1.6873,1.4505
2026-07-23T16:02:47.585,228.5752,1.9222,1.4897
2026-07-23T16:02:47.595,228.5791,1.8439,1.5289
2026-07-23T16:02:47.600,228.5791,2.0006,1.4897
2026-07-23T16:02:47.622,228.6047,1.8243,1.568
2026-07-23T16:02:47.622,228.6124,2.0201,1.5484
2026-07-23T16:02:47.630,228.6181,1.8831,1.568
2026-07-23T16:02:47.639,228.6425,1.9418,1.5484
2026-07-23T16:02:47.656,228.6477,1.9222,1.6268
2026-07-23T16:02:47.663,228.651,2.0201,1.5876
2026-07-23T16:02:47.669,228.6713,1.9614,1.6268
2026-07-23T16:02:47.688,228.6713,2.0006,1.6464
2026-07-23T16:02:47.693,228.6786,2.0006,1.6659
2026-07-23T16:02:47.702,228.6813,2.0593,1.6464
2026-07-23T16:02:47.711,228.7046,2.0397,1.6659
2026-07-23T16:02:47.722,228.7113,2.1181,1.6659
2026-07-23T16:02:47.732,228.7169,2.1181,1.7051
2026-07-23T16:02:47.755,228.7434,2.1572,1.6659
2026-07-23T16:02:47.755,228.745,2.1572,1.7443
2026-07-23T16:02:47.768,228.745,2.1376,1.7051
2026-07-23T16:02:47.768,228.7765,2.1181,1.7051
2026-07-23T16:02:47.780,228.7765,2.1572,1.7247
2026-07-23T16:02:47.796,228.7851,2.1768,1.6464
2026-07-23T16:02:47.796,228.7873,2.1768,1.6855
2026-07-23T16:02:47.822,228.8083,2.1572,1.6855
2026-07-23T16:02:47.822,228.8083,2.216,1.7247
2026-07-23T16:02:47.838,228.8083,2.0985,1.6464
2026-07-23T16:02:47.851,228.8492,2.1572,1.7051
2026-07-23T16:02:47.859,228.8492,2.0397,1.7247
2026-07-23T16:02:47.859,228.8492,2.1768,1.6855
2026-07-23T16:02:47.875,228.8572,2.0397,1.6464
2026-07-23T16:02:47.878,228.885,2.1964,1.7247
2026-07-23T16:02:47.891,228.887,2.0789,1.7051
2026-07-23T16:02:47.900,228.8911,2.1768,1.7051
2026-07-23T16:02:47.914,228.8947,2.0201,1.6659
2026-07-23T16:02:47.925,228.9237,2.1964,1.7051
2026-07-23T16:02:47.938,228.9263,2.1572,1.6855
2026-07-23T16:02:47.942,228.9263,2.1964,1.7247
2026-07-23T16:02:47.955,228.9519,2.0789,1.7247
2026-07-23T16:02:47.961,228.9573,2.216,1.7051
2026-07-23T16:02:47.977,228.9573,2.0397,1.8226
2026-07-23T16:02:47.982,228.964,2.1768,1.7443
2026-07-23T16:02:48.003,228.9822,2.0985,1.7443
2026-07-23T16:02:48.008,228.9938,2.1768,1.7051
2026-07-23T16:02:48.015,228.998,2.0397,1.7638
2026-07-23T16:02:48.022,229.0239,2.1964,1.7051
2026-07-23T16:02:48.033,229.0239,2.1181,1.6855
2026-07-23T16:02:48.045,229.0297,2.0789,1.7443
2026-07-23T16:02:48.059,229.0556,2.0789,1.7051
2026-07-23T16:02:48.065,229.0576,2.0593,1.6659
2026-07-23T16:02:48.075,229.0576,2.0201,1.7051
2026-07-23T16:02:48.080,229.0633,2.0201,1.6464
2026-07-23T16:02:48.096,229.078,2.0201,1.7051
2026-07-23T16:02:48.106,229.078,2.0201,1.6659
2026-07-23T16:02:48.114,229.093,2.0397,1.8226
2026-07-23T16:02:48.122,229.1208,2.0593,1.6855
2026-07-23T16:02:48.129,229.1255,2.0397,1.6659
2026-07-23T16:02:48.144,229.1255,2.0397,1.7443
2026-07-23T16:02:48.160,229.1576,2.0985,1.7638
2026-07-23T16:02:48.160,229.1604,2.0985,1.7443
2026-07-23T16:02:48.176,229.1604,2.0789,1.6855
2026-07-23T16:02:48.176,229.1604,2.0006,1.7834
2026-07-23T16:02:48.193,229.1869,2.0201,1.6659
2026-07-23T16:02:48.193,229.1869,2.0397,1.7638
2026-07-23T16:02:48.211,229.1869,1.9614,1.6855
2026-07-23T16:02:48.224,229.2179,2.0789,1.7247
2026-07-23T16:02:48.238,229.2289,1.981,1.7051
2026-07-23T16:02:48.238,229.2351,2.0985,1.7443
2026-07-23T16:02:48.253,229.2379,1.9614,1.7051
2026-07-23T16:02:48.269,229.2613,2.0789,1.7638
2026-07-23T16:02:48.269,229.2639,1.9418,1.803
2026-07-23T16:02:48.286,229.2683,2.1376,1.8226
2026-07-23T16:02:48.295,229.2959,2.0789,1.8422
2026-07-23T16:02:48.300,229.2998,2.1572,1.8422
2026-07-23T16:02:48.315,229.3018,2.0397,1.9009
2026-07-23T16:02:48.322,229.3117,2.216,1.9205
2026-07-23T16:02:48.336,229.3274,2.0985,1.9988
2026-07-23T16:02:48.349,229.3274,2.2747,1.9988
2026-07-23T16:02:48.355,229.3401,2.2551,2.0184
2026-07-23T16:02:48.363,229.3621,2.3334,2.0575
2026-07-23T16:02:48.363,229.3668,2.2943,2.0967
2026-07-23T16:02:48.391,229.3748,2.4509,2.1359
2026-07-23T16:02:48.391,229.3961,2.4313,2.1555
2026-07-23T16:02:48.410,229.4047,2.5292,2.1555
2026-07-23T16:02:48.413,229.4065,2.4705,2.1555
2026-07-23T16:02:48.426,229.4108,2.5488,2.1555
2026-07-23T16:02:48.447,229.4409,2.5488,2.1946
2026-07-23T16:02:48.447,229.4409,2.5292,2.1946
2026-07-23T16:02:48.457,229.4437,2.6272,2.2925
2026-07-23T16:02:48.462,229.4437,2.5488,2.2142
2026-07-23T16:02:48.473,229.4712,2.6272,2.175
2026-07-23T16:02:48.473,229.4712,2.6467,2.1555
2026-07-23T16:02:48.494,229.4819,2.7055,2.3121
2026-07-23T16:02:48.503,229.5046,2.823,2.175
2026-07-23T16:02:48.522,229.5196,2.9209,2.3317
2026-07-23T16:02:48.522,229.5196,2.9992,2.3317
2026-07-23T16:02:48.537,229.5251,3.0188,2.2925
2026-07-23T16:02:48.545,229.5549,2.9404,2.3513
2026-07-23T16:02:48.555,229.5577,2.9404,2.3121
2026-07-23T16:02:48.570,229.5649,2.96,2.3904
2026-07-23T16:02:48.570,229.5649,2.96,2.3513
2026-07-23T16:02:48.586,229.5919,2.9013,2.4296
2026-07-23T16:02:48.600,229.5967,2.7838,2.3708
2026-07-23T16:02:48.606,229.5967,2.96,2.3708
2026-07-23T16:02:48.609,229.6044,2.9992,2.3121
2026-07-23T16:02:48.628,229.6352,3.1363,2.4492
2026-07-23T16:02:48.632,229.6382,3.1558,2.41
2026-07-23T16:02:48.647,229.6382,3.2537,2.4883
2026-07-23T16:02:48.655,229.6486,3.0971,2.4296
2026-07-23T16:02:48.668,229.6766,3.2342,2.4296
2026-07-23T16:02:48.679,229.6766,3.1558,2.4492
2026-07-23T16:02:48.683,229.6838,3.1754,2.4492
2026-07-23T16:02:48.695,229.6878,3.0971,2.4492
2026-07-23T16:02:48.712,229.7144,3.2342,2.4687
2026-07-23T16:02:48.722,229.7144,3.1363,2.4492
2026-07-23T16:02:48.727,229.7234,3.195,2.5471
2026-07-23T16:02:48.739,229.7262,3.1167,2.5275
2026-07-23T16:02:48.742,229.7539,3.2146,2.4296
2026-07-23T16:02:48.758,229.7572,3.1363,2.5079
2026-07-23T16:02:48.765,229.7602,3.1754,2.4296
2026-07-23T16:02:48.774,229.7602,3.1754,2.5275
2026-07-23T16:02:48.779,229.7863,3.195,2.4883
2026-07-23T16:02:48.795,229.7988,3.195,2.5079
2026-07-23T16:02:48.805,229.8036,3.2733,2.5275
2026-07-23T16:02:48.811,229.8046,3.2929,2.5666
2026-07-23T16:02:48.822,229.8339,3.195,2.5079
2026-07-23T16:02:48.837,229.84,3.3516,2.5471
2026-07-23T16:02:48.837,229.84,3.2146,2.5666
2026-07-23T16:02:48.855,229.8472,3.3712,2.6254
2026-07-23T16:02:48.855,229.8714,3.3321,2.6254
2026-07-23T16:02:48.879,229.8807,3.3712,2.5862
2026-07-23T16:02:48.885,229.8807,3.2733,2.6645
2026-07-23T16:02:48.898,229.8863,3.4691,2.6058
2026-07-23T16:02:48.909,229.9113,3.4691,2.6841
2026-07-23T16:02:48.922,229.9209,3.5866,2.645
2026-07-23T16:02:48.931,229.9209,3.5083,2.7037
2026-07-23T16:02:48.931,229.9209,3.6454,2.6645
2026-07-23T16:02:48.942,229.953,3.567,2.7037
2026-07-23T16:02:48.962,229.9608,3.6845,2.645
2026-07-23T16:02:48.962,229.9629,3.6062,2.7233
2026-07-23T16:02:48.972,229.9663,3.5866,2.7037
2026-07-23T16:02:48.989,229.9947,3.6845,2.7429
2026-07-23T16:02:48.994,229.9947,3.6062,2.7429
2026-07-23T16:02:48.994,229.9947,3.6454,2.782
2026-07-23T16:02:49.017,230.0066,3.6454,2.782
2026-07-23T16:02:49.022,230.0066,3.7433,2.7429
2026-07-23T16:02:49.042,230.0229,3.7237,2.7233
2026-07-23T16:02:49.045,230.0379,3.7237,2.8016
2026-07-23T16:02:49.057,230.0453,3.8216,2.8212
2026-07-23T16:02:49.066,230.0714,3.9586,2.9191
2026-07-23T16:02:49.074,230.0714,3.8412,2.9191
2026-07-23T16:02:49.089,230.0781,3.9782,2.8799
2026-07-23T16:02:49.096,230.0781,3.9391,2.9583
2026-07-23T16:02:49.109,230.1047,4.0957,2.9191
2026-07-23T16:02:49.120,230.1047,4.037,3.017
2026-07-23T16:02:49.122,230.1169,4.0565,3.0562
2026-07-23T16:02:49.137,230.1196,4.0565,3.0562
2026-07-23T16:02:49.137,230.1518,4.0957,2.9974
2026-07-23T16:02:49.156,230.1518,4.0761,3.0757
2026-07-23T16:02:49.168,230.1582,3.9782,3.0953
2026-07-23T16:02:49.170,230.1615,4.2132,3.1345
2026-07-23T16:02:49.184,230.1803,3.9586,3.0953
2026-07-23T16:02:49.189,230.1803,4.1544,3.1541
2026-07-23T16:02:49.209,230.1803,3.9978,3.2128
2026-07-23T16:02:49.216,230.1975,4.1153,3.1345
2026-07-23T16:02:49.231,230.2226,3.8803,3.0757
2026-07-23T16:02:49.231,230.2226,4.0174,3.1149
2026-07-23T16:02:49.248,230.2277,3.8999,3.1345
2026-07-23T16:02:49.248,230.2277,3.9782,3.0953
2026-07-23T16:02:49.263,230.2576,3.8412,3.0953
2026-07-23T16:02:49.273,230.2598,3.9782,3.0366
2026-07-23T16:02:49.289,230.2867,3.7824,3.0953
2026-07-23T16:02:49.296,230.2907,3.9586,3.0562
2026-07-23T16:02:49.310,230.2907,3.8412,3.1149
2026-07-23T16:02:49.315,230.2995,3.9391,3.0562
2026-07-23T16:02:49.326,230.3224,3.8216,3.0953
2026-07-23T16:02:49.326,230.3224,3.8607,3.0366
2026-07-23T16:02:49.341,230.3285,3.8803,3.0757
2026-07-23T16:02:49.358,230.3579,3.8216,3.0562
2026-07-23T16:02:49.358,230.3626,3.802,3.0757
2026-07-23T16:02:49.379,230.3657,3.802,3.017
2026-07-23T16:02:49.379,230.3713,3.7824,3.0562
2026-07-23T16:02:49.389,230.3851,3.7433,3.0366
2026-07-23T16:02:49.404,230.3851,3.6845,3.1541
2026-07-23T16:02:49.416,230.4045,3.7628,3.0366
2026-07-23T16:02:49.422,230.4056,3.7041,2.9974
2026-07-23T16:02:49.422,230.4323,3.7237,3.0757
2026-07-23T16:02:49.436,230.4323,3.7433,3.0953
2026-07-23T16:02:49.456,230.4382,3.6454,3.0366
2026-07-23T16:02:49.468,230.4639,3.6845,2.9974
2026-07-23T16:02:49.475,230.4644,3.6845,3.0562
2026-07-23T16:02:49.483,230.4683,3.6062,2.9974
2026-07-23T16:02:49.499,230.4957,3.6845,3.017
2026-07-23T16:02:49.509,230.4982,3.6258,2.9974
2026-07-23T16:02:49.519,230.4982,3.7824,2.9583
2026-07-23T16:02:49.522,230.5057,3.6258,3.017
2026-07-23T16:02:49.531,230.5291,3.7628,3.017
2026-07-23T16:02:49.549,230.5291,3.5866,3.0562
2026-07-23T16:02:49.556,230.5291,3.7628,3.1345
2026-07-23T16:02:49.564,230.5579,3.5474,3.0757
2026-07-23T16:02:49.576,230.5611,3.7433,3.1345
2026-07-23T16:02:49.580,230.5654,3.7041,3.0562
2026-07-23T16:02:49.594,230.5912,3.8412,3.1149
2026-07-23T16:02:49.594,230.5912,3.6454,3.1149
2026-07-23T16:02:49.616,230.5912,3.8999,3.1149
2026-07-23T16:02:49.629,230.6203,3.7041,3.1932
2026-07-23T16:02:49.640,230.6203,3.8412,3.1149
2026-07-23T16:02:49.642,230.6341,3.7041,3.1736
2026-07-23T16:02:49.657,230.6382,3.6845,3.1345
2026-07-23T16:02:49.657,230.6619,3.7433,3.2128
2026-07-23T16:02:49.671,230.6674,3.8803,3.2716
2026-07-23T16:02:49.689,230.6711,3.7433,3.1932
2026-07-23T16:02:49.689,230.6988,3.8607,3.2128
2026-07-23T16:02:49.709,230.7049,3.8216,3.1932
2026-07-23T16:02:49.713,230.7084,3.8803,3.2128
2026-07-23T16:02:49.726,230.7149,3.8412,3.252
2026-07-23T16:02:49.737,230.7382,3.9391,3.252
2026-07-23T16:02:49.737,230.7382,3.8803,3.252
2026-07-23T16:02:49.759,230.7453,3.8216,3.2911
2026-07-23T16:02:49.766,230.7463,3.8412,3.2716
2026-07-23T16:02:49.766,230.7714,3.8803,3.2716
2026-07-23T16:02:49.781,230.7714,3.9391,3.1932
2026-07-23T16:02:49.789,230.778,3.9195,3.252
2026-07-23T16:02:49.799,230.8018,3.9391,3.1736
2026-07-23T16:02:49.813,230.8048,3.9391,3.252
2026-07-23T16:02:49.829,230.8098,3.9586,3.2716
2026-07-23T16:02:49.833,230.8098,4.037,3.3695
2026-07-23T16:02:49.845,230.8378,4.037,3.3695
2026-07-23T16:02:49.853,230.8413,4.174,3.4086
2026-07-23T16:02:49.861,230.8428,4.037,3.4086
2026-07-23T16:02:49.876,230.8582,4.3111,3.5065
2026-07-23T16:02:49.879,230.8582,4.0957,3.5261
2026-07-23T16:02:49.894,230.873,4.3307,3.5848
2026-07-23T16:02:49.894,230.8889,4.2132,3.5457
2026-07-23T16:02:49.909,230.8889,4.5265,3.6632
2026-07-23T16:02:49.924,230.9047,4.3698,3.7219
2026-07-23T16:02:49.935,230.9205,4.6048,3.7023
2026-07-23T16:02:49.940,230.9205,4.409,3.6827
2026-07-23T16:02:49.957,230.9402,4.644,3.7611
2026-07-23T16:02:49.971,230.9627,4.5461,3.7807
2026-07-23T16:02:49.971,230.9674,4.6244,3.7415
2026-07-23T16:02:49.991,230.9712,4.5265,3.8394
2026-07-23T16:02:50.009,230.9992,4.6831,3.8002
2026-07-23T16:02:50.009,230.9992,4.5656,3.8981
2026-07-23T16:02:50.013,230.9992,4.6635,3.9569
2026-07-23T16:02:50.022,231.0074,4.5852,3.9177
2026-07-23T16:02:50.034,231.0334,4.6831,3.8981
2026-07-23T16:02:50.047,231.0386,4.5656,3.859
2026-07-23T16:02:50.058,231.0409,4.644,3.8198
2026-07-23T16:02:50.066,231.0624,4.5852,3.8981
2026-07-23T16:02:50.066,231.0714,4.644,3.8002
2026-07-23T16:02:50.087,231.0744,4.5656,3.8198
2026-07-23T16:02:50.097,231.079,4.5852,3.8002
2026-07-23T16:02:50.100,231.1049,4.5265,3.8002
2026-07-23T16:02:50.113,231.1097,4.5461,3.8198
2026-07-23T16:02:50.130,231.1097,4.4873,3.859
2026-07-23T16:02:50.130,231.1097,4.4873,3.8002
2026-07-23T16:02:50.145,231.1412,4.5265,3.859
2026-07-23T16:02:50.159,231.1412,4.5656,3.8786
2026-07-23T16:02:50.161,231.1483,4.4873,3.7807
2026-07-23T16:02:50.176,231.1729,4.7027,3.8002
2026-07-23T16:02:50.186,231.1729,4.4873,3.7611
2026-07-23T16:02:50.192,231.1729,4.5069,3.7415
2026-07-23T16:02:50.210,231.2043,4.409,3.7219
2026-07-23T16:02:50.213,231.2043,4.5461,3.8002
2026-07-23T16:02:50.224,231.2083,4.3111,3.6827
2026-07-23T16:02:50.224,231.2338,4.4286,3.7023
2026-07-23T16:02:50.247,231.2378,4.0957,3.624
2026-07-23T16:02:50.259,231.2419,4.3894,3.6436
2026-07-23T16:02:50.259,231.2671,4.1936,3.5848
2026-07-23T16:02:50.272,231.2735,4.3503,3.624
2026-07-23T16:02:50.285,231.2735,4.2328,3.5653
2026-07-23T16:02:50.297,231.2828,4.409,3.624
2026-07-23T16:02:50.318,231.3087,4.2719,3.624
2026-07-23T16:02:50.318,231.3087,4.4482,3.6632
2026-07-23T16:02:50.324,231.3145,4.3111,3.7807
2026-07-23T16:02:50.336,231.3145,4.5069,3.7023
2026-07-23T16:02:50.354,231.3464,4.3503,3.7611
2026-07-23T16:02:50.356,231.3464,4.6244,3.7415
2026-07-23T16:02:50.365,231.3464,4.4286,3.8002
2026-07-23T16:02:50.389,231.3862,4.5852,3.8198
2026-07-23T16:02:50.396,231.3862,4.5461,3.8786
2026-07-23T16:02:50.397,231.3862,4.7419,3.7807
2026-07-23T16:02:50.397,231.3935,4.6831,3.8786
2026-07-23T16:02:50.413,231.4255,4.7027,3.8394
2026-07-23T16:02:50.429,231.4255,4.6635,3.996
2026-07-23T16:02:50.437,231.4255,4.781,3.8394
2026-07-23T16:02:50.444,231.4381,4.781,3.9177
2026-07-23T16:02:50.456,231.4594,4.9768,3.9373
2026-07-23T16:02:50.463,231.4594,5.1726,4.0548
2026-07-23T16:02:50.476,231.4714,5.4076,4.1527
2026-07-23T16:02:50.476,231.4741,5.5251,4.2114
2026-07-23T16:02:50.508,231.5046,5.6622,4.2898
2026-07-23T16:02:50.510,231.5046,5.5643,4.4464
2026-07-23T16:02:50.510,231.5046,5.6426,4.466
2026-07-23T16:02:50.525,231.5114,5.6426,4.4856
2026-07-23T16:02:50.539,231.547,5.8188,4.6422
2026-07-23T16:02:50.547,231.5509,5.8384,4.5835
2026-07-23T16:02:50.555,231.5509,5.995,4.7009
2026-07-23T16:02:50.562,231.5595,5.8971,4.7009
2026-07-23T16:02:50.575,231.5944,6.1125,4.7793
2026-07-23T16:02:50.586,231.5982,5.995,4.7989
2026-07-23T16:02:50.598,231.6022,6.1125,4.8184
2026-07-23T16:02:50.602,231.6067,6.0146,4.7205
2026-07-23T16:02:50.616,231.6137,6.1125,4.7989
2026-07-23T16:02:50.624,231.6451,5.9363,4.7597
2026-07-23T16:02:50.641,231.6451,6.0538,4.7989
2026-07-23T16:02:50.649,231.6553,5.7797,4.838
2026-07-23T16:02:50.657,231.6595,5.995,4.838
2026-07-23T16:02:50.665,231.6621,5.7405,4.838
2026-07-23T16:02:50.672,231.6886,5.858,4.7597
2026-07-23T16:02:50.689,231.6927,5.7797,4.8184
2026-07-23T16:02:50.696,231.6975,5.858,4.7793
2026-07-23T16:02:50.710,231.6975,5.7013,4.7401
2026-07-23T16:02:50.714,231.7048,5.7992,4.838
2026-07-23T16:02:50.728,231.73,5.7013,4.7793
2026-07-23T16:02:50.728,231.73,5.7797,4.7401
2026-07-23T16:02:50.748,231.7402,5.7405,4.7597
2026-07-23T16:02:50.756,231.7465,5.7797,4.6814
2026-07-23T16:02:50.761,231.7725,5.6426,4.7597
2026-07-23T16:02:50.775,231.7796,5.6817,4.7205
2026-07-23T16:02:50.781,231.7796,5.7013,4.8184
2026-07-23T16:02:50.797,231.7881,5.7013,4.7205
2026-07-23T16:02:50.810,231.8103,5.6817,4.7009
2026-07-23T16:02:50.810,231.8169,5.6817,4.7401
2026-07-23T16:02:50.830,231.8189,5.7601,4.7205
2026-07-23T16:02:50.838,231.8189,5.7013,4.7205
2026-07-23T16:02:50.841,231.8506,5.6817,4.7401
2026-07-23T16:02:50.855,231.8614,5.7013,4.6814
2026-07-23T16:02:50.868,231.8665,5.6426,4.6422
2026-07-23T16:02:50.870,231.8665,5.7013,4.6814
2026-07-23T16:02:50.889,231.898,5.6034,4.6618
2026-07-23T16:02:50.901,231.9069,5.7013,4.7205
2026-07-23T16:02:50.901,231.9069,5.5838,4.6814
2026-07-23T16:02:50.917,231.9141,5.7013,4.7597
2026-07-23T16:02:50.922,231.9381,5.623,4.7597
2026-07-23T16:02:50.935,231.9458,5.7797,4.7009
2026-07-23T16:02:50.949,231.9511,5.6034,4.7793
2026-07-23T16:02:50.958,231.955,5.7992,4.7793
2026-07-23T16:02:50.970,231.957,5.623,4.7401
2026-07-23T16:02:50.989,231.9772,5.8188,4.7205
2026-07-23T16:02:50.989,231.9772,5.5838,4.7401
2026-07-23T16:02:50.997,231.9909,5.7797,4.6814
2026-07-23T16:02:51.010,231.9967,5.623,4.7401
2026-07-23T16:02:51.022,232.0244,5.7405,4.7205
2026-07-23T16:02:51.028,232.032,5.6622,4.7597
2026-07-23T16:02:51.028,232.032,5.7797,4.7205
2026-07-23T16:02:51.047,232.0401,5.6426,4.7401
2026-07-23T16:02:51.062,232.0594,5.7601,4.7009
2026-07-23T16:02:51.075,232.0716,5.7209,4.7597
2026-07-23T16:02:51.075,232.0716,5.7601,4.6814
2026-07-23T16:02:51.089,232.0804,5.7601,4.7205
2026-07-23T16:02:51.110,232.113,5.7601,4.7205
2026-07-23T16:02:51.110,232.1186,5.7797,4.7401
2026-07-23T16:02:51.110,232.1221,5.7013,4.7597
2026-07-23T16:02:51.122,232.1221,5.7209,4.7597
2026-07-23T16:02:51.138,232.1221,5.7013,4.7401
2026-07-23T16:02:51.138,232.1594,5.7797,4.7793
2026-07-23T16:02:51.156,232.1657,5.7405,4.7401
2026-07-23T16:02:51.164,232.1704,5.7992,4.7401
2026-07-23T16:02:51.185,232.1714,5.7405,4.7989
2026-07-23T16:02:51.185,232.1714,5.7797,4.7597
2026-07-23T16:02:51.189,232.2053,5.7601,4.8576
2026-07-23T16:02:51.201,232.2128,5.7405,4.838
2026-07-23T16:02:51.221,232.2184,5.7013,4.8184
2026-07-23T16:02:51.222,232.2211,5.7601,4.7401
2026-07-23T16:02:51.232,232.2491,5.8188,4.7597
2026-07-23T16:02:51.249,232.2526,5.6622,4.7597
2026-07-23T16:02:51.262,232.2548,5.7013,4.7205
2026-07-23T16:02:51.269,232.2579,5.623,4.6618
2026-07-23T16:02:51.274,232.2754,5.7797,4.7989
2026-07-23T16:02:51.295,232.291,5.623,4.7205
2026-07-23T16:02:51.300,232.291,5.7209,4.7401
2026-07-23T16:02:51.306,232.2995,5.5643,4.7205
2026-07-23T16:02:51.322,232.3306,5.6426,4.7597
2026-07-23T16:02:51.326,232.3306,5.5251,4.7597
2026-07-23T16:02:51.326,232.3306,5.623,4.7793
2026-07-23T16:02:51.342,232.34,5.5055,4.8184
2026-07-23T16:02:51.358,232.3464,5.6426,4.7401
2026-07-23T16:02:51.373,232.3721,5.5447,4.7793
2026-07-23T16:02:51.373,232.3721,5.6034,4.7793
2026-07-23T16:02:51.381,232.3794,5.4468,4.838
2026-07-23T16:02:51.391,232.3794,5.5447,4.7989
2026-07-23T16:02:51.407,232.414,5.3685,4.9163
2026-07-23T16:02:51.418,232.4167,5.4664,4.9163
2026-07-23T16:02:51.423,232.4167,5.4468,4.9751
2026-07-23T16:02:51.436,232.4236,5.388,5.0338
2026-07-23T16:02:51.456,232.4505,5.388,5.073
2026-07-23T16:02:51.456,232.4527,5.3489,5.0926
2026-07-23T16:02:51.465,232.4556,5.3489,5.1709
2026-07-23T16:02:51.474,232.4602,5.2706,5.1121
2026-07-23T16:02:51.483,232.4804,5.3293,5.1317
2026-07-23T16:02:51.489,232.4872,5.251,5.073
2026-07-23T16:02:51.506,232.4951,5.3097,5.0142
2026-07-23T16:02:51.514,232.5127,5.2314,4.9947
2026-07-23T16:02:51.531,232.5267,5.1726,4.8968
2026-07-23T16:02:51.538,232.5267,5.1139,4.9359
2026-07-23T16:02:51.548,232.535,5.1139,4.8968
2026-07-23T16:02:51.556,232.5601,4.9964,4.8772
2026-07-23T16:02:51.563,232.5625,4.9768,4.8184
2026-07-23T16:02:51.577,232.568,5.016,4.8184
2026-07-23T16:02:51.586,232.5734,5.0552,4.7401
2026-07-23T16:02:51.600,232.5892,5.0552,4.9163
2026-07-23T16:02:51.609,232.5892,5.0356,4.7989
2026-07-23T16:02:51.619,232.6048,5.1335,4.9359
2026-07-23T16:02:51.627,232.6226,4.9964,4.838
2026-07-23T16:02:51.640,232.6379,5.1531,4.8576
2026-07-23T16:02:51.640,232.6379,5.016,4.838
2026-07-23T16:02:51.656,232.6447,5.0356,4.8184
2026-07-23T16:02:51.664,232.6447,4.9768,4.8184
2026-07-23T16:02:51.673,232.6716,5.0747,4.8772
2026-07-23T16:02:51.689,232.6804,4.9964,4.838
2026-07-23T16:02:51.695,232.6846,5.1922,4.8184
2026-07-23T16:02:51.711,232.7133,4.9377,4.7793
2026-07-23T16:02:51.719,232.7133,5.0356,4.6422
2026-07-23T16:02:51.731,232.7153,4.9964,4.7597
2026-07-23T16:02:51.738,232.7153,4.9181,4.7401
2026-07-23T16:02:51.738,232.7478,4.9573,4.6618
2026-07-23T16:02:51.757,232.7478,4.8985,4.6814
2026-07-23T16:02:51.766,232.7478,4.9377,4.6422
2026-07-23T16:02:51.777,232.7478,4.8789,4.7009
2026-07-23T16:02:51.789,232.7783,4.9964,4.9751
2026-07-23T16:02:51.799,232.7893,4.8985,4.6226
2026-07-23T16:02:51.799,232.7893,5.016,4.7597
2026-07-23T16:02:51.813,232.8194,4.9768,4.7597
2026-07-23T16:02:51.829,232.8249,5.0747,4.7401
2026-07-23T16:02:51.840,232.8279,5.016,4.7793
2026-07-23T16:02:51.846,232.8312,5.0943,4.7597
2026-07-23T16:02:51.865,232.8603,5.0356,4.7989
2026-07-23T16:02:51.865,232.8603,5.2314,4.8184
2026-07-23T16:02:51.879,232.8603,5.1922,4.7401
2026-07-23T16:02:51.882,232.8893,5.3685,4.6422
2026-07-23T16:02:51.893,232.8983,5.3489,4.7597
2026-07-23T16:02:51.909,232.8983,5.4076,4.7793
2026-07-23T16:02:51.911,232.9068,5.388,4.6814
2026-07-23T16:02:51.924,232.929,5.4664,4.6814
2026-07-23T16:02:51.940,232.9365,5.6034,4.7205
2026-07-23T16:02:51.949,232.938,5.6426,4.7793
2026-07-23T16:02:51.958,232.9421,5.7797,4.7989
2026-07-23T16:02:51.971,232.9705,5.7797,4.8576
2026-07-23T16:02:51.971,232.9715,5.8188,4.9163
2026-07-23T16:02:51.989,232.9715,5.7992,4.9947
2026-07-23T16:02:51.993,232.9797,5.858,5.0338
2026-07-23T16:02:52.011,233.005,5.8776,5.1317
2026-07-23T16:02:52.021,233.005,5.9559,5.1513
2026-07-23T16:02:52.031,233.0121,5.9755,5.3471
2026-07-23T16:02:52.035,233.0313,6.0342,5.2492
2026-07-23T16:02:52.051,233.0395,6.0342,5.3471
2026-07-23T16:02:52.056,233.0429,6.0538,5.4059
2026-07-23T16:02:52.066,233.0627,6.2104,5.4842
2026-07-23T16:02:52.082,233.0714,6.23,5.5821
2026-07-23T16:02:52.082,233.0714,6.3671,5.6604
2026-07-23T16:02:52.096,233.0812,6.3279,5.7779
2026-07-23T16:02:52.114,233.1048,6.5629,5.8954
2026-07-23T16:02:52.114,233.11,6.5629,5.915
2026-07-23T16:02:52.129,233.1148,6.7195,6.052
2026-07-23T16:02:52.132,233.1415,6.6999,6.0912
2026-07-23T16:02:52.145,233.1509,6.7587,6.1303
2026-07-23T16:02:52.161,233.1546,6.6412,6.1499
2026-07-23T16:02:52.166,233.1566,6.7391,6.2282
2026-07-23T16:02:52.192,233.1725,6.6412,6.2674
2026-07-23T16:02:52.192,233.1881,6.7391,6.2478
2026-07-23T16:02:52.192,233.1881,6.6608,6.3262
2026-07-23T16:02:52.210,233.1881,6.8762,6.287
2026-07-23T16:02:52.216,233.227,6.7391,6.4632
2026-07-23T16:02:52.223,233.227,6.8174,6.4828
2026-07-23T16:02:52.239,233.2328,6.7783,6.5415
2026-07-23T16:02:52.239,233.2384,6.9153,6.6003
2026-07-23T16:02:52.255,233.2638,7.0916,6.8157
2026-07-23T16:02:52.272,233.2697,7.1699,6.9332
2026-07-23T16:02:52.278,233.2717,7.2482,7.0702
2026-07-23T16:02:52.293,233.2717,7.3265,7.2856
2026-07-23T16:02:52.302,233.3048,7.4636,7.5597
2026-07-23T16:02:52.314,233.3135,7.6007,7.6185
2026-07-23T16:02:52.321,233.3155,7.6986,7.7751
2026-07-23T16:02:52.323,233.3175,7.7377,7.8339
2026-07-23T16:02:52.341,233.348,7.7377,7.9122
2026-07-23T16:02:52.356,233.348,7.7573,7.9318
2026-07-23T16:02:52.356,233.348,7.6986,7.8535
2026-07-23T16:02:52.368,233.3565,7.7377,7.9514
2026-07-23T16:02:52.383,233.3889,7.7573,7.7751
2026-07-23T16:02:52.389,233.3889,7.8161,7.7555
2026-07-23T16:02:52.396,233.3982,7.7377,7.736
2026-07-23T16:02:52.407,233.3982,7.8552,7.736
2026-07-23T16:02:52.412,233.4239,7.679,7.7164
2026-07-23T16:02:52.428,233.4361,7.8161,7.736
2026-07-23T16:02:52.428,233.4361,7.6007,7.8339
2026-07-23T16:02:52.455,233.4425,7.7181,7.8535
2026-07-23T16:02:52.457,233.4425,7.5811,7.873
2026-07-23T16:02:52.475,233.4745,7.7769,7.9514
2026-07-23T16:02:52.475,233.4745,7.6202,7.8926
2026-07-23T16:02:52.491,233.4823,7.7181,7.9709
2026-07-23T16:02:52.493,233.5047,7.6007,8.0101
2026-07-23T16:02:52.512,233.5192,7.7769,7.9514
2026-07-23T16:02:52.512,233.5192,7.6398,8.0493
2026-07-23T16:02:52.525,233.525,7.7965,7.9514
2026-07-23T16:02:52.538,233.525,7.6007,7.9514
2026-07-23T16:02:52.538,233.5614,7.8161,7.9122
2026-07-23T16:02:52.555,233.5665,7.5615,7.873
2026-07-23T16:02:52.570,233.5714,7.679,7.873
2026-07-23T16:02:52.576,233.5714,7.5615,7.8339
2026-07-23T16:02:52.591,233.6048,7.7181,7.736
2026-07-23T16:02:52.601,233.6048,7.6202,7.8339
2026-07-23T16:02:52.612,233.6161,7.6594,7.736
2026-07-23T16:02:52.617,233.6161,7.6202,7.7555
2026-07-23T16:02:52.622,233.6234,7.6007,7.7164
2026-07-23T16:02:52.633,233.6536,7.5811,7.7751
2026-07-23T16:02:52.648,233.6559,7.5811,7.6576
2026-07-23T16:02:52.656,233.6613,7.5615,7.6772
2026-07-23T16:02:52.667,233.6651,7.5419,7.6185
2026-07-23T16:02:52.680,233.6714,7.444,7.5597
2026-07-23T16:02:52.689,233.6921,7.5028,7.5793
2026-07-23T16:02:52.696,233.6921,7.4636,7.501
2026-07-23T16:02:52.707,233.6921,7.5419,7.5597
2026-07-23T16:02:52.722,233.7108,7.444,7.4814
2026-07-23T16:02:52.725,233.7246,7.5223,7.5597
2026-07-23T16:02:52.743,233.7402,7.444,7.4423
2026-07-23T16:02:52.743,233.7402,7.6202,7.4814
2026-07-23T16:02:52.762,233.7488,7.4049,7.4031
2026-07-23T16:02:52.775,233.7715,7.5615,7.4423
2026-07-23T16:02:52.775,233.7715,7.3853,7.4031
2026-07-23T16:02:52.791,233.7715,7.5615,7.4618
2026-07-23T16:02:52.800,233.7715,7.4244,7.4227
2026-07-23T16:02:52.810,233.8089,7.5615,7.4618
2026-07-23T16:02:52.812,233.8146,7.444,7.4227
2026-07-23T16:02:52.822,233.8187,7.5419,7.4031
2026-07-23T16:02:52.838,233.822,7.4049,7.4618
2026-07-23T16:02:52.854,233.8382,7.6007,7.3444
2026-07-23T16:02:52.860,233.8502,7.4049,7.4618
2026-07-23T16:02:52.865,233.8536,7.5811,7.3444
2026-07-23T16:02:52.873,233.8736,7.3657,7.4227
2026-07-23T16:02:52.889,233.8847,7.4832,7.3444
2026-07-23T16:02:52.889,233.8847,7.4049,7.3444
2026-07-23T16:02:52.909,233.8847,7.4636,7.3444
2026-07-23T16:02:52.924,233.9157,7.2678,7.4031
2026-07-23T16:02:52.924,233.9172,7.444,7.3248
2026-07-23T16:02:52.935,233.9252,7.3853,7.3835
2026-07-23T16:02:52.949,233.9518,7.4636,7.3248
2026-07-23T16:02:52.956,233.9573,7.4049,7.3835
2026-07-23T16:02:52.968,233.9592,7.4244,7.3052
2026-07-23T16:02:52.976,233.9637,7.3265,7.3639
2026-07-23T16:02:52.995,233.9887,7.4049,7.3639
2026-07-23T16:02:52.995,233.9907,7.3657,7.4227
2026-07-23T16:02:53.014,233.9934,7.444,7.4031
2026-07-23T16:02:53.014,233.9954,7.4244,7.4227
2026-07-23T16:02:53.027,234.0215,7.5223,7.3639
2026-07-23T16:02:53.041,234.0215,7.5223,7.3639
2026-07-23T16:02:53.046,234.0265,7.5223,7.4031
2026-07-23T16:02:53.059,234.0543,7.4832,7.3639
2026-07-23T16:02:53.059,234.0543,7.6007,7.4031
2026-07-23T16:02:53.077,234.0558,7.5223,7.3835
2026-07-23T16:02:53.077,234.0876,7.5419,7.4227
2026-07-23T16:02:53.101,234.0876,7.307,7.3444
2026-07-23T16:02:53.107,234.0931,7.4832,7.3835
2026-07-23T16:02:53.112,234.124,7.3853,7.2464
2026-07-23T16:02:53.123,234.1298,7.5223,7.3248
2026-07-23T16:02:53.138,234.1298,7.4049,7.266
2026-07-23T16:02:53.144,234.1352,7.5811,7.3052
2026-07-23T16:02:53.156,234.1618,7.444,7.266
2026-07-23T16:02:53.170,234.1668,7.6398,7.129
2026-07-23T16:02:53.181,234.1718,7.444,7.1485
2026-07-23T16:02:53.189,234.1718,7.7181,7.0702
2026-07-23T16:02:53.189,234.1985,7.4636,7.1681
2026-07-23T16:02:53.202,234.2018,7.6986,7.0898
2026-07-23T16:02:53.221,234.2055,7.6007,7.2073
2026-07-23T16:02:53.223,234.2104,7.7573,7.2464
2026-07-23T16:02:53.234,234.2298,7.7181,7.2269
2026-07-23T16:02:53.249,234.2382,7.8552,7.2073
2026-07-23T16:02:53.261,234.2382,7.679,7.266
2026-07-23T16:02:53.269,234.2651,7.7573,7.2464
2026-07-23T16:02:53.281,234.2651,7.7573,7.3835
2026-07-23T16:02:53.289,234.2715,7.8552,7.3639
2026-07-23T16:02:53.300,234.2969,7.8748,7.4227
2026-07-23T16:02:53.313,234.3,7.9727,7.4423
2026-07-23T16:02:53.316,234.3,7.8356,7.4423
2026-07-23T16:02:53.329,234.3288,7.914,7.4814
2026-07-23T16:02:53.344,234.3326,7.7965,7.501
2026-07-23T16:02:53.351,234.3326,7.8356,7.5402
2026-07-23T16:02:53.356,234.3399,7.7181,7.4618
2026-07-23T16:02:53.375,234.3621,7.7573,7.501
2026-07-23T16:02:53.380,234.3664,7.8161,7.4423
2026-07-23T16:02:53.389,234.3664,7.8748,7.6185
2026-07-23T16:02:53.391,234.3875,7.7965,7.5793
2026-07-23T16:02:53.406,234.3989,8.0119,7.7164
2026-07-23T16:02:53.425,234.4048,7.8748,7.6772
2026-07-23T16:02:53.425,234.4188,8.0706,7.736
2026-07-23T16:02:53.438,234.4305,7.8944,7.736
2026-07-23T16:02:53.450,234.4344,8.051,7.7555
2026-07-23T16:02:53.456,234.4622,7.7965,7.7751
2026-07-23T16:02:53.470,234.4679,8.0119,7.8143
2026-07-23T16:02:53.481,234.4716,7.7769,7.7947
2026-07-23T16:02:53.489,234.4716,7.9335,7.7751
2026-07-23T16:02:53.501,234.4996,7.7377,7.8339
2026-07-23T16:02:53.509,234.4996,7.9727,7.7947
2026-07-23T16:02:53.522,234.5049,7.8356,7.9122
2026-07-23T16:02:53.522,234.5314,8.1098,7.873
2026-07-23T16:02:53.535,234.5314,7.8552,7.9318
2026-07-23T16:02:53.550,234.5358,8.0314,7.8339
2026-07-23T16:02:53.559,234.5392,7.8748,7.8926
2026-07-23T16:02:53.580,234.5666,8.0706,7.9122
2026-07-23T16:02:53.580,234.5715,7.8748,7.9709
2026-07-23T16:02:53.587,234.5715,8.051,7.9709
2026-07-23T16:02:53.595,234.5917,8.051,8.0884
2026-07-23T16:02:53.613,234.5917,8.1098,7.9905
2026-07-23T16:02:53.617,234.6048,8.0706,8.0493
2026-07-23T16:02:53.627,234.6074,8.0706,8.0688
2026-07-23T16:02:53.642,234.6247,8.051,8.0493
2026-07-23T16:02:53.642,234.6247,8.1098,8.0493
2026-07-23T16:02:53.658,234.6391,8.051,8.0297
2026-07-23T16:02:53.658,234.6624,8.0706,8.0884
2026-07-23T16:02:53.676,234.6665,7.9727,8.0688
2026-07-23T16:02:53.689,234.6717,8.051,8.0493
2026-07-23T16:02:53.690,234.6948,8.0314,8.0884
2026-07-23T16:02:53.706,234.7014,8.0706,8.1863
2026-07-23T16:02:53.717,234.7029,8.051,8.1667
2026-07-23T16:02:53.723,234.7198,8.0902,8.2255
2026-07-23T16:02:53.738,234.7348,8.0119,8.1863
2026-07-23T16:02:53.746,234.7363,8.1293,8.343
2026-07-23T16:02:53.759,234.7625,8.0706,8.2451
2026-07-23T16:02:53.771,234.7668,8.2468,8.2646
2026-07-23T16:02:53.771,234.7668,8.0706,8.2646
2026-07-23T16:02:53.787,234.7715,8.1881,8.343
2026-07-23T16:02:53.803,234.7986,8.0314,8.1863
2026-07-23T16:02:53.803,234.7986,8.1881,8.3234
2026-07-23T16:02:53.822,234.8047,8.0314,8.2646
2026-07-23T16:02:53.834,234.8331,8.2272,8.343
2026-07-23T16:02:53.842,234.8381,8.0902,8.343
2026-07-23T16:02:53.849,234.8381,8.3839,8.3234
2026-07-23T16:02:53.856,234.8469,8.2664,8.4213
2026-07-23T16:02:53.869,234.8729,8.4035,8.4213
2026-07-23T16:02:53.881,234.8769,8.3252,8.6367
2026-07-23T16:02:53.889,234.8769,8.5014,8.6954
2026-07-23T16:02:53.898,234.8854,8.4818,8.8717
2026-07-23T16:02:53.914,234.9125,8.5405,8.9304
2026-07-23T16:02:53.914,234.9125,8.5014,9.0283
2026-07-23T16:02:53.928,234.9166,8.4622,9.0283
2026-07-23T16:02:53.936,234.9203,8.4231,9.1066
2026-07-23T16:02:53.945,234.9461,8.4035,9.1262
2026-07-23T16:02:53.963,234.9461,8.4035,9.1654
2026-07-23T16:02:53.967,234.9461,8.4035,9.1066
2026-07-23T16:02:53.977,234.9718,8.3056,9.2241
2026-07-23T16:02:53.992,234.9864,8.3252,9.1066
2026-07-23T16:02:53.997,234.9879,8.2468,9.1262
2026-07-23T16:02:54.012,235.005,8.2468,9.1654
2026-07-23T16:02:54.019,235.0127,8.2468,9.2045
2026-07-23T16:02:54.023,235.0167,8.286,9.1849
2026-07-23T16:02:54.039,235.0235,8.2272,9.1849
2026-07-23T16:02:54.056,235.051,8.3056,9.1654
2026-07-23T16:02:54.056,235.051,8.2077,9.1849
2026-07-23T16:02:54.072,235.051,8.286,9.1849
2026-07-23T16:02:54.074,235.0599,8.2272,9.2241
2026-07-23T16:02:54.092,235.0835,8.3252,9.2633
2026-07-23T16:02:54.102,235.0835,8.2664,9.2437
2026-07-23T16:02:54.102,235.0983,8.4035,9.4982
2026-07-23T16:02:54.118,235.13,8.2664,9.322
2026-07-23T16:02:54.133,235.13,8.3839,9.2437
2026-07-23T16:02:54.134,235.13,8.3056,9.2828
2026-07-23T16:02:54.149,235.1384,8.4426,9.3416
2026-07-23T16:02:54.156,235.1651,8.3252,9.3612
2026-07-23T16:02:54.172,235.1687,8.4622,9.322
2026-07-23T16:02:54.181,235.1718,8.3447,9.0675
2026-07-23T16:02:54.181,235.1771,8.4426,9.322
2026-07-23T16:02:54.197,235.203,8.3447,9.322
2026-07-23T16:02:54.197,235.203,8.4035,9.3612
2026-07-23T16:02:54.219,235.2084,8.3839,9.3808
2026-07-23T16:02:54.228,235.2084,8.4035,9.322
2026-07-23T16:02:54.228,235.2385,8.4426,9.4199
2026-07-23T16:02:54.244,235.2417,8.4622,9.3416
2026-07-23T16:02:54.259,235.2417,8.5405,9.3612
2026-07-23T16:02:54.275,235.2653,8.5405,9.3612
2026-07-23T16:02:54.275,235.2653,8.5601,9.3416
2026-07-23T16:02:54.293,235.274,8.4818,9.3612
2026-07-23T16:02:54.293,235.2763,8.521,9.3416
2026-07-23T16:02:54.312,235.2921,8.5405,9.4591
2026-07-23T16:02:54.316,235.3062,8.5014,9.3024
2026-07-23T16:02:54.327,235.308,8.5405,9.3808
2026-07-23T16:02:54.343,235.3381,8.521,9.3808
2026-07-23T16:02:54.343,235.3381,8.6189,9.4199
2026-07-23T16:02:54.359,235.3419,8.5405,9.3808
2026-07-23T16:02:54.373,235.3696,8.658,9.4395
2026-07-23T16:02:54.375,235.3716,8.5014,9.3612
2026-07-23T16:02:54.389,235.3753,8.5797,9.4199
2026-07-23T16:02:54.398,235.3753,8.4622,9.3416
2026-07-23T16:02:54.402,235.405,8.5601,9.3612
2026-07-23T16:02:54.418,235.405,8.4426,9.2828
2026-07-23T16:02:54.426,235.4142,8.521,9.3024
2026-07-23T16:02:54.449,235.4422,8.3839,9.2828
2026-07-23T16:02:54.449,235.4422,8.5405,9.2241
2026-07-23T16:02:54.456,235.4458,8.4622,9.3024
2026-07-23T16:02:54.468,235.4458,8.521,9.2633
2026-07-23T16:02:54.489,235.4716,8.521,9.2241
2026-07-23T16:02:54.489,235.4716,8.5601,9.2828
2026-07-23T16:02:54.497,235.4776,8.4426,9.3612
2026-07-23T16:02:54.513,235.5016,8.521,9.3612
2026-07-23T16:02:54.516,235.5016,8.4818,9.3416
2026-07-23T16:02:54.528,235.5048,8.3839,9.3024
2026-07-23T16:02:54.528,235.531,8.5405,9.2828
2026-07-23T16:02:54.552,235.5341,8.4622,9.2828
2026-07-23T16:02:54.560,235.5408,8.521,9.2437
2026-07-23T16:02:54.576,235.5656,8.4426,9.2828
2026-07-23T16:02:54.578,235.5678,8.4818,9.2828
2026-07-23T16:02:54.585,235.5678,8.4231,9.1849
2026-07-23T16:02:54.599,235.5885,8.4622,9.2045
2026-07-23T16:02:54.609,235.5984,8.4426,9.2241
2026-07-23T16:02:54.619,235.6029,8.5601,9.1654
2026-07-23T16:02:54.622,235.6256,8.4818,9.2633
2026-07-23T16:02:54.639,235.634,8.521,9.2045
2026-07-23T16:02:54.654,235.6384,8.6189,9.3024
2026-07-23T16:02:54.656,235.6657,8.6384,9.2633
2026-07-23T16:02:54.676,235.6718,8.6972,9.3416
2026-07-23T16:02:54.685,235.6718,8.7168,9.3416
2026-07-23T16:02:54.689,235.6804,8.8147,9.3808
2026-07-23T16:02:54.701,235.709,8.6972,9.3612
2026-07-23T16:02:54.701,235.709,8.8343,9.4982
2026-07-23T16:02:54.717,235.7128,8.8538,9.4787
2026-07-23T16:02:54.732,235.722,8.9126,9.5374
2026-07-23T16:02:54.735,235.7442,8.8538,9.4591
2026-07-23T16:02:54.748,235.7526,8.9322,9.4591
2026-07-23T16:02:54.760,235.7526,8.9126,9.5766
2026-07-23T16:02:54.769,235.7602,8.9713,9.4395
2026-07-23T16:02:54.781,235.7925,8.9517,9.5178
2026-07-23T16:02:54.781,235.7925,8.9713,9.4982
2026-07-23T16:02:54.795,235.7992,8.9126,9.5374
2026-07-23T16:02:54.803,235.8049,8.9126,9.5178
2026-07-23T16:02:54.822,235.8234,8.9517,9.5961
2026-07-23T16:02:54.828,235.8371,8.8343,9.6353
2026-07-23T16:02:54.843,235.8391,8.9909,9.6157
2026-07-23T16:02:54.850,235.8425,8.9126,9.6157
2026-07-23T16:02:54.859,235.8718,9.0301,9.7332
2026-07-23T16:02:54.859,235.8774,8.893,9.6549
2026-07-23T16:02:54.874,235.8839,9.0105,9.6549
2026-07-23T16:02:54.889,235.8865,9.0301,9.7724
2026-07-23T16:02:54.893,235.8943,9.1084,9.7528
2026-07-23T16:02:54.906,235.9291,9.0301,9.9878
2026-07-23T16:02:54.922,235.9291,9.1867,9.8899
2026-07-23T16:02:54.935,235.9382,9.1475,10.0073
2026-07-23T16:02:54.937,235.9382,9.3042,10.0073
2026-07-23T16:02:54.956,235.9736,9.2846,10.0661
2026-07-23T16:02:54.956,235.9736,9.4608,10.0073
2026-07-23T16:02:54.975,235.9736,9.3825,10.1444
2026-07-23T16:02:54.980,235.9844,9.3825,10.0661
2026-07-23T16:02:54.989,235.9844,9.4608,10.1248
2026-07-23T16:02:55.000,235.9844,9.4804,10.0857
2026-07-23T16:02:55.016,236.0122,9.5,10.164
2026-07-23T16:02:55.017,236.0242,9.5,10.164
2026-07-23T16:02:55.032,236.0242,9.5196,10.2227
2026-07-23T16:02:55.035,236.0299,9.4608,10.2423
2026-07-23T16:02:55.047,236.0299,9.5196,10.301
2026-07-23T16:02:55.063,236.0608,9.4413,10.3402
2026-07-23T16:02:55.063,236.0608,9.6175,10.2227
2026-07-23T16:02:55.081,236.0658,9.5196,10.2619
2026-07-23T16:02:55.095,236.0908,9.6175,10.2815
2026-07-23T16:02:55.095,236.0908,9.5979,10.301
2026-07-23T16:02:55.117,236.0908,9.6566,10.3402
2026-07-23T16:02:55.123,236.105,9.735,10.3206
2026-07-23T16:02:55.130,236.126,9.6371,10.2619
2026-07-23T16:02:55.142,236.126,9.735,10.301
2026-07-23T16:02:55.142,236.126,9.6566,10.3206
2026-07-23T16:02:55.175,236.1541,9.7545,10.3402
2026-07-23T16:02:55.175,236.166,9.6958,10.2619
2026-07-23T16:02:55.177,236.168,9.735,10.3206
2026-07-23T16:02:55.189,236.1718,9.5979,10.1836
2026-07-23T16:02:55.205,236.1985,9.6762,10.164
2026-07-23T16:02:55.205,236.2014,9.5587,10.164
2026-07-23T16:02:55.223,236.2095,9.7154,10.0465
2026-07-23T16:02:55.223,236.2372,9.6175,10.0073
2026-07-23T16:02:55.236,236.2411,9.735,9.8115
2026-07-23T16:02:55.252,236.2437,9.7154,9.8311
2026-07-23T16:02:55.260,236.2487,9.6958,9.7332
2026-07-23T16:02:55.275,236.2739,9.6175,9.5374
2026-07-23T16:02:55.284,236.2739,9.6958,9.4395
2026-07-23T16:02:55.292,236.2799,9.7154,9.4003
2026-07-23T16:02:55.299,236.2841,9.6958,9.2437
2026-07-23T16:02:55.312,236.3126,9.6371,9.2828
2026-07-23T16:02:55.325,236.3166,9.6566,9.1849
2026-07-23T16:02:55.330,236.3166,9.6371,9.2633
2026-07-23T16:02:55.344,236.344,9.6566,9.2045
2026-07-23T16:02:55.356,236.3492,9.6958,9.1262
2026-07-23T16:02:55.365,236.3557,9.735,9.2241
2026-07-23T16:02:55.367,236.3593,9.7937,9.2241
2026-07-23T16:02:55.379,236.3758,9.7741,9.2437
2026-07-23T16:02:55.389,236.3911,9.8329,9.3024
2026-07-23T16:02:55.400,236.3911,9.8329,9.3416
2026-07-23T16:02:55.411,236.4008,9.8525,9.3612
2026-07-23T16:02:55.427,236.4281,9.9112,9.3612
2026-07-23T16:02:55.427,236.4281,9.9895,9.3808
2026-07-23T16:02:55.442,236.4281,10.0874,9.4591
2026-07-23T16:02:55.452,236.4382,9.9699,9.4395
2026-07-23T16:02:55.459,236.4658,10.2245,9.5374
2026-07-23T16:02:55.473,236.4658,10.1462,9.557
2026-07-23T16:02:55.479,236.4701,10.3811,9.5961
2026-07-23T16:02:55.491,236.4716,10.2636,9.5766
2026-07-23T16:02:55.491,236.5052,10.479,9.5961
2026-07-23T16:02:55.511,236.5072,10.342,9.7528
2026-07-23T16:02:55.521,236.5072,10.6553,9.7724
2026-07-23T16:02:55.522,236.5173,10.4399,9.8311
2026-07-23T16:02:55.538,236.5497,10.6553,9.8115
2026-07-23T16:02:55.538,236.5497,10.5574,9.7919
2026-07-23T16:02:55.568,236.5497,10.714,9.7919
2026-07-23T16:02:55.568,236.5614,10.6161,9.7528
2026-07-23T16:02:55.584,236.585,10.6944,9.6745
2026-07-23T16:02:55.584,236.585,10.7336,9.5961
2026-07-23T16:02:55.599,236.5941,10.7532,9.5374
2026-07-23T16:02:55.612,236.6005,10.7727,9.4591
2026-07-23T16:02:55.622,236.6276,10.7923,9.4003
2026-07-23T16:02:55.632,236.6276,10.8707,9.5374
2026-07-23T16:02:55.636,236.6365,11.1056,9.4982
2026-07-23T16:02:55.651,236.6385,11.086,9.6157
2026-07-23T16:02:55.664,236.6682,11.3014,9.6353
2026-07-23T16:02:55.664,236.6717,11.321,9.6745
2026-07-23T16:02:55.678,236.6748,11.3993,9.7919
2026-07-23T16:02:55.689,236.6799,11.4581,9.7724
2026-07-23T16:02:55.694,236.714,11.4972,9.8899
2026-07-23T16:02:55.710,236.7184,11.5168,9.8311
2026-07-23T16:02:55.726,236.7226,11.4777,9.8899
2026-07-23T16:02:55.735,236.7262,11.4777,9.8703
2026-07-23T16:02:55.741,236.7543,11.6539,9.8899
2026-07-23T16:02:55.745,236.7573,11.5364,9.9486
2026-07-23T16:02:55.761,236.7573,11.7909,9.9682
2026-07-23T16:02:55.769,236.7663,11.5951,9.929
2026-07-23T16:02:55.782,236.7719,11.7518,9.9486
2026-07-23T16:02:55.789,236.7935,11.5756,9.929
2026-07-23T16:02:55.793,236.8018,11.7322,9.9878
2026-07-23T16:02:55.808,236.8048,11.556,9.9878
2026-07-23T16:02:55.823,236.8048,11.7322,9.929
2026-07-23T16:02:55.831,236.8402,11.5951,10.1248
2026-07-23T16:02:55.844,236.8402,11.7714,10.0857
2026-07-23T16:02:55.844,236.8489,11.6343,10.164
2026-07-23T16:02:55.856,236.8489,11.8301,10.1836
2026-07-23T16:02:55.877,236.8827,11.6147,10.2619
2026-07-23T16:02:55.886,236.8861,11.8105,10.2619
2026-07-23T16:02:55.891,236.8884,11.6735,10.399
2026-07-23T16:02:55.900,236.8884,11.7714,10.3598
2026-07-23T16:02:55.900,236.9121,11.7909,10.4577
2026-07-23T16:02:55.928,236.9208,11.7909,10.3794
2026-07-23T16:02:55.934,236.9266,11.7714,10.4381
2026-07-23T16:02:55.939,236.9282,11.7714,10.4381
2026-07-23T16:02:55.948,236.9438,11.7518,10.5556
2026-07-23T16:02:55.963,236.9601,11.7909,10.5948
2026-07-23T16:02:55.972,236.9601,11.7126,10.6143
2026-07-23T16:02:55.981,236.9664,11.7322,10.5164
2026-07-23T16:02:55.989,236.995,11.556,10.5556
2026-07-23T16:02:55.995,237.0002,11.6343,10.4969
2026-07-23T16:02:56.011,237.0067,11.5168,10.4577
2026-07-23T16:02:56.017,237.0067,11.5364,10.5164
2026-07-23T16:02:56.034,237.027,11.3798,10.4381
2026-07-23T16:02:56.042,237.027,11.5168,10.4381
2026-07-23T16:02:56.051,237.027,11.3798,10.301
2026-07-23T16:02:56.057,237.0406,11.5364,10.3598
2026-07-23T16:02:56.057,237.0665,11.3014,10.2423
2026-07-23T16:02:56.078,237.0716,11.4777,10.3402
2026-07-23T16:02:56.094,237.0767,11.3014,10.3206
2026-07-23T16:02:56.094,237.1014,11.5364,10.4185
2026-07-23T16:02:56.105,237.105,11.3406,10.301
2026-07-23T16:02:56.122,237.105,11.4777,10.3794
2026-07-23T16:02:56.130,237.1167,11.3602,10.4381
2026-07-23T16:02:56.138,237.1383,11.4777,10.3794
2026-07-23T16:02:56.152,237.1383,11.3014,10.4185
2026-07-23T16:02:56.156,237.1485,11.4972,10.4185
2026-07-23T16:02:56.174,237.1717,11.3014,10.3794
2026-07-23T16:02:56.183,237.1717,11.4385,10.3598
2026-07-23T16:02:56.189,237.1804,11.3406,10.3794
2026-07-23T16:02:56.204,237.1842,11.5951,10.3402
2026-07-23T16:02:56.211,237.205,11.4189,10.4577
2026-07-23T16:02:56.220,237.2088,11.6147,10.4381
2026-07-23T16:02:56.235,237.2143,11.5756,10.5556
2026-07-23T16:02:56.235,237.2385,11.6539,10.5164
2026-07-23T16:02:56.247,237.2439,11.5951,10.6143
2026-07-23T16:02:56.265,237.2471,11.7126,10.6143
2026-07-23T16:02:56.265,237.2525,11.7322,10.6927
2026-07-23T16:02:56.280,237.2766,11.8497,10.6927
2026-07-23T16:02:56.298,237.2802,11.7714,10.771
2026-07-23T16:02:56.303,237.2802,11.8693,10.8297
2026-07-23T16:02:56.312,237.3091,11.7909,10.8101
2026-07-23T16:02:56.323,237.3155,11.8105,10.8689
2026-07-23T16:02:56.331,237.3202,11.7909,10.7906
2026-07-23T16:02:56.337,237.3244,11.8497,10.8493
2026-07-23T16:02:56.356,237.3395,11.7714,10.9276
2026-07-23T16:02:56.360,237.3395,11.9476,10.9668
2026-07-23T16:02:56.375,237.3545,11.9868,10.9668
2026-07-23T16:02:56.379,237.3775,11.9868,11.0255
2026-07-23T16:02:56.390,237.3818,11.7714,11.0255
2026-07-23T16:02:56.390,237.3856,12.0455,11.0451
2026-07-23T16:02:56.407,237.3896,11.8105,11.1039
2026-07-23T16:02:56.422,237.4109,11.9868,11.1234
2026-07-23T16:02:56.428,237.4172,11.8693,11.1626
2026-07-23T16:02:56.440,237.4192,12.2021,11.2213
2026-07-23T16:02:56.456,237.4487,11.9868,11.378
2026-07-23T16:02:56.462,237.4508,12.2609,11.378
2026-07-23T16:02:56.470,237.4508,12.0847,11.5151
2026-07-23T16:02:56.489,237.4803,12.3196,11.5542
2026-07-23T16:02:56.489,237.4803,12.2609,11.5934
2026-07-23T16:02:56.502,237.4892,12.3588,11.5934
2026-07-23T16:02:56.517,237.5114,12.2609,11.6325
2026-07-23T16:02:56.517,237.5114,12.3588,11.6913
2026-07-23T16:02:56.531,237.5274,12.3784,11.6913
2026-07-23T16:02:56.540,237.5314,12.3979,11.7696
2026-07-23T16:02:56.556,237.5574,12.1826,11.8479
2026-07-23T16:02:56.562,237.5611,12.4959,11.8675
2026-07-23T16:02:56.562,237.5611,12.535,11.985
2026-07-23T16:02:56.585,237.5706,12.5938,12.0242
2026-07-23T16:02:56.595,237.5914,12.535,12.0633
2026-07-23T16:02:56.595,237.5914,12.6133,12.1416
2026-07-23T16:02:56.608,237.6019,12.6917,12.1416
2026-07-23T16:02:56.621,237.6072,12.7112,12.2004
2026-07-23T16:02:56.627,237.6292,12.7308,12.1416
2026-07-23T16:02:56.642,237.6384,12.8091,12.3374
2026-07-23T16:02:56.653,237.6445,12.77,12.2787
2026-07-23T16:02:56.659,237.6493,12.8483,12.3374
2026-07-23T16:02:56.680,237.6826,12.8091,12.2591
2026-07-23T16:02:56.680,237.6826,12.9462,12.4158
2026-07-23T16:02:56.692,237.6854,12.7896,12.4549
2026-07-23T16:02:56.704,237.6854,13.005,12.5137
2026-07-23T16:02:56.705,237.722,12.77,12.6116
2026-07-23T16:02:56.720,237.7269,12.9658,12.5724
2026-07-23T16:02:56.733,237.7325,12.8679,12.6507
2026-07-23T16:02:56.736,237.7383,13.005,12.6899
2026-07-23T16:02:56.736,237.7383,12.8875,12.7682
2026-07-23T16:02:56.768,237.7715,13.0833,12.7682
2026-07-23T16:02:56.768,237.7715,12.9462,12.8465
2026-07-23T16:02:56.783,237.7798,13.0441,12.7878
2026-07-23T16:02:56.789,237.7798,12.907,12.9249
2026-07-23T16:02:56.804,237.8123,13.005,12.8661
2026-07-23T16:02:56.816,237.8123,12.8483,12.827
2026-07-23T16:02:56.822,237.8219,13.0637,12.8465
2026-07-23T16:02:56.831,237.8247,13.0441,12.9249
2026-07-23T16:02:56.837,237.8428,13.0245,12.9053
2026-07-23T16:02:56.846,237.8428,13.0441,12.9053
2026-07-23T16:02:56.856,237.8428,13.0245,12.8857
2026-07-23T16:02:56.873,237.8608,13.0833,12.9249
2026-07-23T16:02:56.878,237.8903,13.1029,12.8857
2026-07-23T16:02:56.894,237.8903,13.005,12.8857
2026-07-23T16:02:56.894,237.8903,13.0637,12.8857
2026-07-23T16:02:56.915,237.9051,13.0637,12.964
2026-07-23T16:02:56.925,237.9331,13.1616,12.9444
2026-07-23T16:02:56.929,237.9355,13.1224,13.0032
2026-07-23T16:02:56.941,237.9376,13.142,13.0228
2026-07-23T16:02:56.941,237.9386,13.0637,12.9444
2026-07-23T16:02:56.962,237.9672,13.1029,12.964
2026-07-23T16:02:56.974,237.9718,12.9266,12.9053
2026-07-23T16:02:56.984,237.9718,13.1029,12.9836
2026-07-23T16:02:56.993,237.9856,12.9462,12.8661
2026-07-23T16:02:57.004,238.0054,13.1616,12.8661
2026-07-23T16:02:57.012,238.0165,13.0245,12.827
2026-07-23T16:02:57.018,238.0165,13.2399,12.8465
2026-07-23T16:02:57.036,238.0165,13.0441,12.827
2026-07-23T16:02:57.036,238.0284,13.2008,12.8074
2026-07-23T16:02:57.056,238.0481,13.0441,12.8661
2026-07-23T16:02:57.056,238.058,13.2791,12.9053
2026-07-23T16:02:57.067,238.058,13.0833,12.8465
2026-07-23T16:02:57.079,238.0675,13.2203,12.827
2026-07-23T16:02:57.083,238.0953,13.1224,12.8661
2026-07-23T16:02:57.099,238.0953,13.2399,12.7878
2026-07-23T16:02:57.109,238.105,13.1029,12.9053
2026-07-23T16:02:57.121,238.1122,13.142,12.6507
2026-07-23T16:02:57.137,238.1385,13.1224,12.7095
2026-07-23T16:02:57.137,238.1385,13.0833,12.6899
2026-07-23T16:02:57.146,238.1428,13.142,12.7095
2026-07-23T16:02:57.163,238.1428,13.0833,12.6703
2026-07-23T16:02:57.163,238.1743,13.0833,12.6899
2026-07-23T16:02:57.182,238.1743,13.0833,12.6703
2026-07-23T16:02:57.194,238.1743,13.0245,12.6703
2026-07-23T16:02:57.194,238.1743,13.0441,12.6703
2026-07-23T16:02:57.209,238.2118,13.1029,12.6507
2026-07-23T16:02:57.223,238.2138,13.0833,12.7095
2026-07-23T16:02:57.225,238.2138,13.0637,12.6116
2026-07-23T16:02:57.225,238.2209,12.9854,12.6703
2026-07-23T16:02:57.257,238.2386,12.8679,12.6312
2026-07-23T16:02:57.265,238.2533,12.8875,12.5528
2026-07-23T16:02:57.272,238.2533,12.7896,12.5724
2026-07-23T16:02:57.272,238.2835,12.9266,12.6116
2026-07-23T16:02:57.289,238.2835,12.8091,12.5528
2026-07-23T16:02:57.304,238.2835,12.9658,12.592
2026-07-23T16:02:57.311,238.2973,12.8287,12.4745
2026-07-23T16:02:57.318,238.3236,12.6721,12.5724
2026-07-23T16:02:57.322,238.3272,12.7308,12.5528
2026-07-23T16:02:57.348,238.3315,12.8287,12.4745
2026-07-23T16:02:57.356,238.3482,12.8091,12.4745
2026-07-23T16:02:57.368,238.3482,12.8875,12.4941
2026-07-23T16:02:57.374,238.3482,12.6525,12.4941
2026-07-23T16:02:57.382,238.3679,12.77,12.5528
2026-07-23T16:02:57.391,238.3917,12.7308,12.5333
2026-07-23T16:02:57.399,238.3953,12.7504,12.5528
2026-07-23T16:02:57.399,238.3984,12.6721,12.6312
2026-07-23T16:02:57.419,238.3984,12.7112,12.5137
2026-07-23T16:02:57.431,238.4319,12.6917,12.6703
2026-07-23T16:02:57.431,238.4319,12.5938,12.5528
2026-07-23T16:02:57.449,238.4345,12.6329,12.6312
2026-07-23T16:02:57.461,238.464,12.6133,12.6312
2026-07-23T16:02:57.471,238.468,12.6525,12.6312
2026-07-23T16:02:57.483,238.4704,12.6721,12.6703
2026-07-23T16:02:57.489,238.4754,12.8091,12.6507
2026-07-23T16:02:57.508,238.506,12.7112,12.6507
2026-07-23T16:02:57.508,238.506,12.7896,12.6507
2026-07-23T16:02:57.524,238.5155,12.7504,12.6116
2026-07-23T16:02:57.526,238.5454,12.7896,12.6116
2026-07-23T16:02:57.540,238.5523,12.8091,12.6507
2026-07-23T16:02:57.540,238.5523,12.7896,12.6312
2026-07-23T16:02:57.557,238.5575,12.9462,12.6312
2026-07-23T16:02:57.572,238.5575,12.8679,12.5724
2026-07-23T16:02:57.572,238.5871,13.0637,12.6507
2026-07-23T16:02:57.589,238.5871,12.9462,12.6507
2026-07-23T16:02:57.603,238.5871,13.1029,12.6899
2026-07-23T16:02:57.608,238.6028,13.005,12.7486
2026-07-23T16:02:57.623,238.6288,13.1616,12.6899
2026-07-23T16:02:57.635,238.6326,13.0833,12.8465
2026-07-23T16:02:57.638,238.6336,13.1616,12.7486
2026-07-23T16:02:57.650,238.6336,13.1616,12.8074
2026-07-23T16:02:57.667,238.6683,13.2399,12.8074
2026-07-23T16:02:57.667,238.6683,13.2203,12.9444
2026-07-23T16:02:57.683,238.6703,13.2399,12.8661
2026-07-23T16:02:57.689,238.6759,13.3574,12.9444
2026-07-23T16:02:57.698,238.695,13.377,12.9053
2026-07-23T16:02:57.719,238.695,13.4161,13.0424
2026-07-23T16:02:57.719,238.7052,13.3966,13.0032
2026-07-23T16:02:57.730,238.7328,13.4749,13.1011
2026-07-23T16:02:57.746,238.7407,13.3574,13.1598
2026-07-23T16:02:57.746,238.7425,13.4945,13.2186
2026-07-23T16:02:57.762,238.7425,13.5336,13.2773
2026-07-23T16:02:57.763,238.7757,13.6315,13.3556
2026-07-23T16:02:57.784,238.7757,13.6903,13.3752
2026-07-23T16:02:57.793,238.7757,13.7294,13.3556
2026-07-23T16:02:57.793,238.7757,13.612,13.434
2026-07-23T16:02:57.823,238.8061,13.7099,13.3556
2026-07-23T16:02:57.823,238.8061,13.6707,13.4731
2026-07-23T16:02:57.826,238.8218,13.749,13.434
2026-07-23T16:02:57.841,238.8218,13.749,13.5319
2026-07-23T16:02:57.846,238.8541,13.7686,13.5319
2026-07-23T16:02:57.857,238.8541,13.749,13.5515
2026-07-23T16:02:57.873,238.8541,13.749,13.5906
2026-07-23T16:02:57.873,238.8684,13.8665,13.7081
2026-07-23T16:02:57.892,238.8851,13.8469,13.6298
2026-07-23T16:02:57.894,238.9005,13.8861,13.7081
2026-07-23T16:02:57.905,238.9052,13.7686,13.6689
2026-07-23T16:02:57.919,238.9076,13.9057,13.6494
2026-07-23T16:02:57.930,238.9384,13.8273,13.7081
2026-07-23T16:02:57.936,238.9384,13.8665,13.7473
2026-07-23T16:02:57.951,238.9485,13.8273,13.806
2026-07-23T16:02:57.958,238.9529,13.8861,13.8256
2026-07-23T16:02:57.972,238.9819,13.9057,13.9039
2026-07-23T16:02:57.984,238.9819,13.8861,13.9235
2026-07-23T16:02:58.003,238.9883,13.9448,13.9626
2026-07-23T16:02:58.004,238.9883,13.8665,13.9235
2026-07-23T16:02:58.015,239.0202,13.9644,13.9626
2026-07-23T16:02:58.023,239.0202,13.8665,13.9039
2026-07-23T16:02:58.033,239.0288,13.9252,13.8843
2026-07-23T16:02:58.039,239.0361,13.7882,13.9039
2026-07-23T16:02:58.062,239.0584,13.9057,13.8647
2026-07-23T16:02:58.062,239.0584,13.8273,13.9039
2026-07-23T16:02:58.071,239.0688,13.9448,13.9235
2026-07-23T16:02:58.087,239.0742,13.7686,13.8647
2026-07-23T16:02:58.089,239.0898,13.9057,13.8256
2026-07-23T16:02:58.097,239.1027,13.7686,13.8452
2026-07-23T16:02:58.109,239.1052,13.8273,13.8256
2026-07-23T16:02:58.120,239.1052,13.749,13.7473
2026-07-23T16:02:58.130,239.1386,13.749,13.7081
2026-07-23T16:02:58.141,239.1386,13.6903,13.7081
2026-07-23T16:02:58.141,239.1386,13.6707,13.6298
2026-07-23T16:02:58.156,239.1543,13.6707,13.6885
2026-07-23T16:02:58.156,239.1718,13.6511,13.6102
2026-07-23T16:02:58.189,239.1867,13.7099,13.7864
2026-07-23T16:02:58.189,239.1867,13.6707,13.7473
2026-07-23T16:02:58.205,239.1898,13.7294,13.7473
2026-07-23T16:02:58.205,239.2158,13.5532,13.7668
2026-07-23T16:02:58.223,239.2158,13.5924,13.8256
2026-07-23T16:02:58.238,239.2227,13.612,13.8452
2026-07-23T16:02:58.241,239.2227,13.5924,13.8452
2026-07-23T16:02:58.251,239.2602,13.612,13.8256
2026-07-23T16:02:58.267,239.2645,13.7099,13.8256
2026-07-23T16:02:58.273,239.269,13.6903,14.0018
2026-07-23T16:02:58.283,239.2719,13.6903,13.8256
2026-07-23T16:02:58.289,239.2959,13.6903,13.9235
2026-07-23T16:02:58.305,239.2959,13.6707,13.8647
2026-07-23T16:02:58.318,239.307,13.7882,13.9235
2026-07-23T16:02:58.323,239.3121,13.6511,13.9039
2026-07-23T16:02:58.333,239.3435,13.749,13.9039
2026-07-23T16:02:58.333,239.3435,13.612,13.9431
2026-07-23T16:02:58.347,239.353,13.749,13.9626
2026-07-23T16:02:58.363,239.3585,13.612,13.8843
2026-07-23T16:02:58.377,239.3863,13.7686,13.9235
2026-07-23T16:02:58.389,239.3893,13.6315,13.9039
2026-07-23T16:02:58.394,239.3933,13.749,13.8647
2026-07-23T16:02:58.404,239.3997,13.7099,13.9626
2026-07-23T16:02:58.409,239.3997,13.7294,13.8843
2026-07-23T16:02:58.424,239.4219,13.6903,13.9822
2026-07-23T16:02:58.430,239.4219,13.7294,13.9235
2026-07-23T16:02:58.440,239.4343,13.7294,13.9431
2026-07-23T16:02:58.450,239.4407,13.6903,14.0018
2026-07-23T16:02:58.462,239.465,13.6511,13.9431
2026-07-23T16:02:58.473,239.4696,13.6315,13.9235
2026-07-23T16:02:58.473,239.4717,13.5924,13.9235
2026-07-23T16:02:58.491,239.4717,13.5532,14.0214
2026-07-23T16:02:58.504,239.5002,13.6707,13.9626
2026-07-23T16:02:58.504,239.5049,13.6707,13.9235
2026-07-23T16:02:58.520,239.5105,13.749,14.0018
2026-07-23T16:02:58.522,239.5132,13.7686,14.0606
2026-07-23T16:02:58.539,239.5383,13.7686,14.0018
2026-07-23T16:02:58.556,239.5383,13.7882,14.0801
2026-07-23T16:02:58.564,239.5475,13.749,14.0018
2026-07-23T16:02:58.582,239.5718,13.8861,14.1193
2026-07-23T16:02:58.583,239.577,13.7099,13.9626
2026-07-23T16:02:58.589,239.579,13.9448,14.1193
2026-07-23T16:02:58.598,239.579,13.8078,14.0997
2026-07-23T16:02:58.614,239.6052,13.9252,14.0606
2026-07-23T16:02:58.621,239.6052,13.8469,14.0801
2026-07-23T16:02:58.630,239.6127,14.0232,14.1585
2026-07-23T16:02:58.646,239.6423,13.9057,14.1389
2026-07-23T16:02:58.646,239.6423,14.0623,14.1193
2026-07-23T16:02:58.661,239.6474,13.8861,14.178
2026-07-23T16:02:58.677,239.6741,14.1015,14.1389
2026-07-23T16:02:58.687,239.6761,13.9448,14.178
2026-07-23T16:02:58.689,239.6761,14.1015,14.178
2026-07-23T16:02:58.703,239.6761,13.9644,14.1976
2026-07-23T16:02:58.722,239.7092,14.1211,14.1976
2026-07-23T16:02:58.722,239.7092,14.0036,14.1976
2026-07-23T16:02:58.727,239.715,14.1211,14.2172
2026-07-23T16:02:58.743,239.7384,14.0427,14.2759
2026-07-23T16:02:58.743,239.7384,14.0623,14.2759
2026-07-23T16:02:58.760,239.7461,14.1015,14.3543
2026-07-23T16:02:58.775,239.7753,14.0623,14.2759
2026-07-23T16:02:58.775,239.7839,14.1211,14.3151
2026-07-23T16:02:58.789,239.7849,14.1211,14.3543
2026-07-23T16:02:58.799,239.7901,14.0623,14.2759
2026-07-23T16:02:58.819,239.8153,14.1015,14.3151
2026-07-23T16:02:58.823,239.8254,14.1406,14.2368
2026-07-23T16:02:58.826,239.8278,14.219,14.3151
2026-07-23T16:02:58.841,239.8313,14.219,14.2368
2026-07-23T16:02:58.866,239.8698,14.1602,14.3347
2026-07-23T16:02:58.866,239.8698,14.0623,14.2955
2026-07-23T16:02:58.866,239.8718,14.3169,14.3347
2026-07-23T16:02:58.882,239.8786,14.0232,14.3543
2026-07-23T16:02:58.889,239.9104,14.2385,14.3738
2026-07-23T16:02:58.898,239.9104,14.0232,14.3543
2026-07-23T16:02:58.919,239.9145,14.1798,14.3934
2026-07-23T16:02:58.923,239.922,13.984,14.3934
2026-07-23T16:02:58.931,239.9282,14.1602,14.4522
2026-07-23T16:02:58.953,239.9423,14.0232,14.4913
2026-07-23T16:02:58.955,239.9423,14.219,14.4522
2026-07-23T16:02:58.961,239.9601,14.0232,14.5305
2026-07-23T16:02:58.973,239.9656,14.2581,14.6676
2026-07-23T16:02:58.979,239.9697,14.1015,14.7655
2026-07-23T16:02:58.993,239.9894,14.2777,14.8634
2026-07-23T16:02:58.993,239.9894,14.1211,15.02
2026-07-23T16:02:59.016,240.0093,14.1602,15.02
2026-07-23T16:02:59.023,240.0139,14.0819,15.0396
2026-07-23T16:02:59.026,240.0387,14.1994,14.9417
2026-07-23T16:02:59.040,240.0471,14.1602,14.9221
2026-07-23T16:02:59.040,240.0471,14.1798,14.8829
2026-07-23T16:02:59.065,240.0526,14.1602,14.7263
2026-07-23T16:02:59.074,240.0719,14.1602,14.6676
2026-07-23T16:02:59.074,240.0842,14.1798,14.6284
2026-07-23T16:02:59.090,240.0888,14.2777,14.648
2026-07-23T16:02:59.103,240.0954,14.1406,14.5305
2026-07-23T16:02:59.103,240.1219,14.1994,14.5501
2026-07-23T16:02:59.123,240.1264,14.1798,14.5501
2026-07-23T16:02:59.123,240.1285,14.2581,14.5501
2026-07-23T16:02:59.146,240.1336,14.1602,14.5305
2026-07-23T16:02:59.156,240.1624,14.2777,14.5501
2026-07-23T16:02:59.166,240.1639,14.1015,14.5109
2026-07-23T16:02:59.173,240.1699,14.3364,14.5109
2026-07-23T16:02:59.184,240.172,14.0819,14.5305
2026-07-23T16:02:59.189,240.1969,14.3756,14.5305
2026-07-23T16:02:59.198,240.1969,14.1994,14.5109
2026-07-23T16:02:59.198,240.1969,14.3952,14.5501
2026-07-23T16:02:59.225,240.205,14.2777,14.5697
2026-07-23T16:02:59.230,240.2263,14.5518,14.5501
2026-07-23T16:02:59.246,240.2386,14.3169,14.5501
2026-07-23T16:02:59.248,240.2421,14.5323,14.5305
2026-07-23T16:02:59.267,240.2578,14.2973,14.5109
2026-07-23T16:02:59.277,240.2721,14.4735,14.4717
2026-07-23T16:02:59.277,240.2739,14.3952,14.5501
2026-07-23T16:02:59.293,240.2739,14.5127,14.5109
2026-07-23T16:02:59.295,240.2973,14.4539,14.5892
2026-07-23T16:02:59.309,240.305,14.5518,14.5109
2026-07-23T16:02:59.325,240.305,14.4735,14.6088
2026-07-23T16:02:59.325,240.3207,14.5323,14.5501
2026-07-23T16:02:59.348,240.3389,14.3756,14.5109
2026-07-23T16:02:59.355,240.3409,14.7672,14.5109
2026-07-23T16:02:59.362,240.3409,14.4343,14.5305
2026-07-23T16:02:59.372,240.372,14.4735,14.5697
2026-07-23T16:02:59.389,240.372,14.4735,14.648
2026-07-23T16:02:59.392,240.3775,14.4735,14.648
2026-07-23T16:02:59.407,240.4052,14.4539,14.5697
2026-07-23T16:02:59.418,240.4126,14.4539,14.5305
2026-07-23T16:02:59.423,240.4151,14.3364,14.4522
2026-07-23T16:02:59.431,240.4151,14.5323,14.5305
2026-07-23T16:02:59.443,240.4476,14.3952,14.413
2026-07-23T16:02:59.456,240.453,14.6889,14.4913
2026-07-23T16:02:59.466,240.4554,14.5714,14.413
2026-07-23T16:02:59.466,240.4786,14.826,14.3934
2026-07-23T16:02:59.473,240.4786,14.7085,14.3543
2026-07-23T16:02:59.489,240.4786,14.826,14.3347
2026-07-23T16:02:59.504,240.4942,14.6693,14.2955
2026-07-23T16:02:59.512,240.5007,14.8847,14.2955
2026-07-23T16:02:59.522,240.5258,14.591,14.413
2026-07-23T16:02:59.529,240.5258,14.6889,14.3543
2026-07-23T16:02:59.529,240.5258,14.5323,14.4522
2026-07-23T16:02:59.551,240.5388,14.6889,14.3543
2026-07-23T16:02:59.561,240.5647,14.5127,14.3738
2026-07-23T16:02:59.561,240.5707,14.5323,14.3738
2026-07-23T16:02:59.590,240.5733,14.5714,14.3738
2026-07-23T16:02:59.590,240.5733,14.4539,14.3738
2026-07-23T16:02:59.598,240.589,14.4735,14.4522
2026-07-23T16:02:59.615,240.6053,14.4539,14.4522
2026-07-23T16:02:59.624,240.6053,14.4148,14.5109
2026-07-23T16:02:59.640,240.6387,14.4343,14.4326
2026-07-23T16:02:59.640,240.6392,14.356,14.4326
2026-07-23T16:02:59.640,240.6392,14.4148,14.413
2026-07-23T16:02:59.656,240.6447,14.4148,14.4522
2026-07-23T16:02:59.671,240.6725,14.3952,14.4717
2026-07-23T16:02:59.682,240.6725,14.3756,14.4326
2026-07-23T16:02:59.695,240.6725,14.4343,14.4913
2026-07-23T16:02:59.703,240.6988,14.3756,14.5109
2026-07-23T16:02:59.718,240.7055,14.4343,14.4913
2026-07-23T16:02:59.723,240.7095,14.2777,14.4913
2026-07-23T16:02:59.723,240.7095,14.5127,14.5109
2026-07-23T16:02:59.750,240.7396,14.3364,14.5109
2026-07-23T16:02:59.750,240.7396,14.4931,14.5501
2026-07-23T16:02:59.765,240.7423,14.3364,14.5305
2026-07-23T16:02:59.767,240.7614,14.4735,14.4913
2026-07-23T16:02:59.781,240.7711,14.356,14.4717
2026-07-23T16:02:59.793,240.7721,14.4148,14.4717
2026-07-23T16:02:59.797,240.7977,14.2385,14.4522
2026-07-23T16:02:59.812,240.805,14.3952,14.3151
2026-07-23T16:02:59.822,240.8088,14.1994,14.4326
2026-07-23T16:02:59.835,240.8245,14.356,14.3543
2026-07-23T16:02:59.849,240.843,14.2385,14.3543
2026-07-23T16:02:59.856,240.843,14.2777,14.3151
2026-07-23T16:02:59.860,240.843,14.219,14.3738
2026-07-23T16:02:59.875,240.8721,14.2581,14.3738
2026-07-23T16:02:59.875,240.8813,14.2385,14.3151
2026-07-23T16:02:59.894,240.8868,14.2581,14.2955
2026-07-23T16:02:59.894,240.8893,14.1798,14.2955
2026-07-23T16:02:59.906,240.9165,14.219,14.2368
2026-07-23T16:02:59.923,240.9185,14.1798,14.3151
2026-07-23T16:02:59.932,240.9229,14.1015,14.2564
2026-07-23T16:02:59.940,240.9229,14.0819,14.3151
2026-07-23T16:02:59.956,240.9503,14.1015,14.2564
2026-07-23T16:02:59.956,240.9626,14.1015,14.2759
2026-07-23T16:02:59.974,240.9713,14.1015,14.2955
2026-07-23T16:02:59.974,240.9728,14.1994,14.2759
2026-07-23T16:02:59.991,240.9989,14.1798,14.2759
2026-07-23T16:03:00.001,240.9989,14.1994,14.3738
2026-07-23T16:03:00.022,241.0061,14.2385,14.3151
2026-07-23T16:03:00.025,241.0122,14.1602,14.3738
2026-07-23T16:03:00.033,241.0457,14.2973,14.4326
2026-07-23T16:03:00.033,241.0457,14.1406,14.4326
2026-07-23T16:03:00.050,241.0482,14.2777,14.3934
2026-07-23T16:03:00.063,241.0482,14.1015,14.3543
2026-07-23T16:03:00.075,241.077,14.2581,14.4326
2026-07-23T16:03:00.089,241.0882,14.1406,14.3543
2026-07-23T16:03:00.089,241.0882,14.2581,14.3543
2026-07-23T16:03:00.099,241.0929,14.1602,14.413
2026-07-23T16:03:00.112,241.1216,14.356,14.3934
2026-07-23T16:03:00.128,241.1244,14.219,14.3934
2026-07-23T16:03:00.128,241.1244,14.2385,14.413
2026-07-23T16:03:00.144,241.1316,14.1015,14.4522
2026-07-23T16:03:00.159,241.16,14.2385,14.2955
2026-07-23T16:03:00.159,241.16,14.1798,14.3738
2026-07-23T16:03:00.172,241.1658,14.1406,14.413
2026-07-23T16:03:00.175,241.1658,14.1798,14.4326
2026-07-23T16:03:00.194,241.2022,14.1406,14.3934
2026-07-23T16:03:00.207,241.2077,14.1211,14.4326
2026-07-23T16:03:00.211,241.2107,14.1602,14.4522
2026-07-23T16:03:00.224,241.217,14.1406,14.3543
2026-07-23T16:03:00.249,241.2519,14.1602,14.4326
2026-07-23T16:03:00.249,241.2519,14.1406,14.4522
2026-07-23T16:03:00.258,241.2611,14.219,14.4913
2026-07-23T16:03:00.270,241.2634,14.1602,14.4326
2026-07-23T16:03:00.271,241.2905,14.1406,14.4717
2026-07-23T16:03:00.295,241.2982,14.0427,14.4717
2026-07-23T16:03:00.295,241.2982,14.219,14.5697
2026-07-23T16:03:00.303,241.2982,14.1406,14.5109
2026-07-23T16:03:00.312,241.2982,14.2581,14.5305
2026-07-23T16:03:00.323,241.3276,14.1994,14.4522
2026-07-23T16:03:00.327,241.3399,14.2777,14.4717
2026-07-23T16:03:00.349,241.3415,14.2385,14.4717
2026-07-23T16:03:00.349,241.3467,14.3169,14.5305
2026-07-23T16:03:00.359,241.3763,14.2385,14.5501
2026-07-23T16:03:00.378,241.3816,14.3952,14.4522
