wall_time,elapsed_s,F1_N,F2_N
2026-07-22T15:38:54.415,53.6492,19.4486,24.4973
2026-07-22T15:38:54.430,53.6804,19.4878,24.4973
2026-07-22T15:38:54.446,53.6804,19.4486,24.5365
2026-07-22T15:38:54.446,53.6804,19.4682,24.556
2026-07-22T15:38:54.462,53.6804,19.4486,24.5952
2026-07-22T15:38:54.478,53.7121,19.4486,24.5365
2026-07-22T15:38:54.478,53.7121,19.4094,24.556
2026-07-22T15:38:54.493,53.7121,19.3898,24.5169
2026-07-22T15:38:54.509,53.7285,19.4094,24.5169
2026-07-22T15:38:54.509,53.7439,19.4094,24.556
2026-07-22T15:38:54.525,53.7439,19.429,24.556
2026-07-22T15:38:54.525,53.7598,19.4486,24.5169
2026-07-22T15:38:54.542,53.7809,19.3311,24.4973
2026-07-22T15:38:54.557,53.7809,19.4486,24.5756
2026-07-22T15:38:54.557,53.7917,19.4878,24.5756
2026-07-22T15:38:54.573,53.7917,19.664,24.6539
2026-07-22T15:38:54.573,53.8076,19.6052,24.6931
2026-07-22T15:38:54.594,53.825,19.6248,24.6735
2026-07-22T15:38:54.605,53.8292,19.7227,24.6931
2026-07-22T15:38:54.605,53.8558,19.5073,24.6735
2026-07-22T15:38:54.621,53.8558,19.5073,24.6148
2026-07-22T15:38:54.638,53.8558,19.5661,24.5756
2026-07-22T15:38:54.642,53.8558,19.6052,24.5756
2026-07-22T15:38:54.653,53.8893,19.6248,24.556
2026-07-22T15:38:54.653,53.8893,19.6052,24.6931
2026-07-22T15:38:54.669,53.8893,19.7031,24.6931
2026-07-22T15:38:54.685,53.9194,19.7423,24.8106
2026-07-22T15:38:54.694,53.9296,19.7815,24.7518
2026-07-22T15:38:54.702,53.9352,19.801,24.7323
2026-07-22T15:38:54.716,53.9511,19.7031,24.8106
2026-07-22T15:38:54.729,53.9511,19.801,24.7323
2026-07-22T15:38:54.732,53.9511,19.8598,24.8693
2026-07-22T15:38:54.748,53.9669,19.8794,24.8106
2026-07-22T15:38:54.748,53.9873,19.9381,24.8302
2026-07-22T15:38:54.764,53.9873,19.9969,24.8693
2026-07-22T15:38:54.780,53.9989,19.9969,24.8889
2026-07-22T15:38:54.780,54.0148,19.9773,25.026
2026-07-22T15:38:54.800,54.0275,20.0556,25.0456
2026-07-22T15:38:54.800,54.0301,20.0948,25.1043
2026-07-22T15:38:54.812,54.0318,20.036,25.163
2026-07-22T15:38:54.828,54.0621,20.0556,25.2218
2026-07-22T15:38:54.828,54.0621,20.036,25.2022
2026-07-22T15:38:54.845,54.0621,20.0556,25.2218
2026-07-22T15:38:54.859,54.0952,20.036,25.2609
2026-07-22T15:38:54.860,54.0952,20.0164,25.3001
2026-07-22T15:38:54.875,54.0952,19.9577,25.3393
2026-07-22T15:38:54.875,54.1306,19.9969,25.2805
2026-07-22T15:38:54.894,54.1422,20.0556,25.2609
2026-07-22T15:38:54.894,54.1422,20.036,25.3001
2026-07-22T15:38:54.908,54.1447,20.1143,25.1826
2026-07-22T15:38:54.924,54.1748,20.0948,25.2022
2026-07-22T15:38:54.940,54.1748,20.0752,25.2022
2026-07-22T15:38:54.944,54.1816,20.0556,25.2218
2026-07-22T15:38:54.958,54.1816,20.0752,25.2414
2026-07-22T15:38:54.971,54.206,20.0556,25.1826
2026-07-22T15:38:54.971,54.206,19.9381,25.2805
2026-07-22T15:38:54.971,54.206,19.9577,25.2022
2026-07-22T15:38:54.995,54.2225,19.801,25.2805
2026-07-22T15:38:55.004,54.2377,19.8206,25.2022
2026-07-22T15:38:55.019,54.2543,19.7227,25.163
2026-07-22T15:38:55.019,54.2543,19.7619,25.1826
2026-07-22T15:38:55.035,54.2543,19.7423,25.0847
2026-07-22T15:38:55.044,54.2859,19.7031,24.9868
2026-07-22T15:38:55.051,54.2859,19.6444,25.0064
2026-07-22T15:38:55.067,54.2859,19.6444,24.9281
2026-07-22T15:38:55.067,54.2859,19.6444,24.8497
2026-07-22T15:38:55.083,54.3174,19.6248,24.8302
2026-07-22T15:38:55.099,54.3316,19.664,24.7714
2026-07-22T15:38:55.099,54.3335,19.6052,24.791
2026-07-22T15:38:55.115,54.3335,19.5073,24.7714
2026-07-22T15:38:55.130,54.3714,19.5465,24.7323
2026-07-22T15:38:55.130,54.3734,19.3898,24.6344
2026-07-22T15:38:55.146,54.375,19.3311,24.6148
2026-07-22T15:38:55.146,54.3913,19.2919,24.556
2026-07-22T15:38:55.165,54.406,19.2919,24.6148
2026-07-22T15:38:55.176,54.406,19.3703,24.5756
2026-07-22T15:38:55.188,54.406,19.3898,24.5952
2026-07-22T15:38:55.204,54.438,19.4094,24.6539
2026-07-22T15:38:55.204,54.438,19.4682,24.6148
2026-07-22T15:38:55.204,54.438,19.3703,24.6539
2026-07-22T15:38:55.219,54.438,19.4094,24.5952
2026-07-22T15:38:55.235,54.478,19.4486,24.5952
2026-07-22T15:38:55.251,54.479,19.5073,24.5365
2026-07-22T15:38:55.251,54.481,19.5465,24.5365
2026-07-22T15:38:55.267,54.4856,19.4682,24.5756
2026-07-22T15:38:55.277,54.5066,19.4682,24.4973
2026-07-22T15:38:55.288,54.5066,19.4878,24.5365
2026-07-22T15:38:55.299,54.5066,19.3507,24.556
2026-07-22T15:38:55.304,54.5382,19.3115,24.4973
2026-07-22T15:38:55.304,54.5382,19.3115,24.5952
2026-07-22T15:38:55.320,54.5382,19.3898,24.5756
2026-07-22T15:38:55.335,54.5747,19.3311,24.5952
2026-07-22T15:38:55.351,54.5825,19.2919,24.6344
2026-07-22T15:38:55.351,54.5825,19.2919,24.556
2026-07-22T15:38:55.351,54.5825,19.2919,24.5365
2026-07-22T15:38:55.367,54.6065,19.3507,24.5365
2026-07-22T15:38:55.387,54.6065,19.3311,24.5365
2026-07-22T15:38:55.395,54.6224,19.429,24.6344
2026-07-22T15:38:55.409,54.6382,19.429,24.6539
2026-07-22T15:38:55.419,54.654,19.5073,24.7714
2026-07-22T15:38:55.419,54.654,19.5857,24.7714
2026-07-22T15:38:55.435,54.654,19.6444,24.7714
2026-07-22T15:38:55.446,54.686,19.664,24.8302
2026-07-22T15:38:55.451,54.686,19.7227,24.9477
2026-07-22T15:38:55.467,54.686,19.7619,25.0456
2026-07-22T15:38:55.467,54.7019,19.7423,24.9868
2026-07-22T15:38:55.483,54.7176,19.7031,25.0847
2026-07-22T15:38:55.495,54.7176,19.6836,25.0651
2026-07-22T15:38:55.499,54.7328,19.7619,25.1239
2026-07-22T15:38:55.515,54.7328,19.8402,25.2022
2026-07-22T15:38:55.515,54.7487,19.8598,25.0456
2026-07-22T15:38:55.531,54.7646,19.7031,25.0651
2026-07-22T15:38:55.546,54.7646,19.7031,25.0064
2026-07-22T15:38:55.562,54.7969,19.6052,25.1239
2026-07-22T15:38:55.562,54.7969,19.6444,25.0847
2026-07-22T15:38:55.578,54.7969,19.7227,25.1435
2026-07-22T15:38:55.578,54.8278,19.7619,25.163
2026-07-22T15:38:55.595,54.8335,19.9577,25.1043
2026-07-22T15:38:55.595,54.8335,19.8206,25.2805
2026-07-22T15:38:55.610,54.8335,19.8402,25.2218
2026-07-22T15:38:55.626,54.8598,19.801,25.2414
2026-07-22T15:38:55.641,54.8598,19.8402,25.2414
2026-07-22T15:38:55.646,54.8756,19.8206,25.2218
2026-07-22T15:38:55.657,54.8756,19.8794,25.2805
2026-07-22T15:38:55.673,54.9093,19.8402,25.3393
2026-07-22T15:38:55.673,54.9122,19.8598,25.398
2026-07-22T15:38:55.673,54.915,19.8206,25.3393
2026-07-22T15:38:55.696,54.9399,19.7619,25.3197
2026-07-22T15:38:55.704,54.9399,19.6444,25.2414
2026-07-22T15:38:55.722,54.9399,19.5857,25.1043
2026-07-22T15:38:55.729,54.9545,19.5073,25.0847
2026-07-22T15:38:55.735,54.9713,19.5269,25.0064
2026-07-22T15:38:55.753,54.983,19.5073,24.9868
2026-07-22T15:38:55.753,54.9861,19.5465,25.026
2026-07-22T15:38:55.767,54.9861,19.6052,25.0064
2026-07-22T15:38:55.767,55.0179,19.6836,25.0847
2026-07-22T15:38:55.784,55.0179,19.7031,25.163
2026-07-22T15:38:55.796,55.0195,19.7031,25.163
2026-07-22T15:38:55.799,55.0195,19.664,25.163
2026-07-22T15:38:55.815,55.0509,19.6052,25.0456
2026-07-22T15:38:55.815,55.0509,19.4486,25.1043
2026-07-22T15:38:55.833,55.0509,19.4486,25.026
2026-07-22T15:38:55.848,55.083,19.4878,25.1043
2026-07-22T15:38:55.848,55.083,19.5857,25.0064
2026-07-22T15:38:55.864,55.083,19.6248,25.026
2026-07-22T15:38:55.879,55.1144,19.5661,24.9672
2026-07-22T15:38:55.896,55.1144,19.5269,24.9868
2026-07-22T15:38:55.896,55.1144,19.5269,25.026
2026-07-22T15:38:55.896,55.1301,19.7815,24.9477
2026-07-22T15:38:55.911,55.1622,19.4486,24.9672
2026-07-22T15:38:55.927,55.1622,19.4486,24.8693
2026-07-22T15:38:55.943,55.1622,19.5269,24.8106
2026-07-22T15:38:55.948,55.1775,19.4486,24.7714
2026-07-22T15:38:55.948,55.1944,19.3703,24.7518
2026-07-22T15:38:55.959,55.2101,19.3115,24.7518
2026-07-22T15:38:55.975,55.2101,19.3115,24.7714
2026-07-22T15:38:55.975,55.2101,19.3115,24.7518
2026-07-22T15:38:55.996,55.242,19.3311,24.7127
2026-07-22T15:38:56.007,55.242,19.3507,24.7127
2026-07-22T15:38:56.007,55.2576,19.5073,24.7323
2026-07-22T15:38:56.023,55.2576,19.4486,24.7518
2026-07-22T15:38:56.023,55.2576,19.4682,24.8106
2026-07-22T15:38:56.055,55.2894,19.3898,24.8497
2026-07-22T15:38:56.055,55.2894,19.4094,24.9281
2026-07-22T15:38:56.071,55.2894,19.3898,24.7323
2026-07-22T15:38:56.071,55.3052,19.4682,24.8106
2026-07-22T15:38:56.088,55.3363,19.4878,24.791
2026-07-22T15:38:56.102,55.3363,19.5465,24.8693
2026-07-22T15:38:56.102,55.3363,19.5465,24.9085
2026-07-22T15:38:56.102,55.3363,19.6052,24.9672
2026-07-22T15:38:56.118,55.3842,19.5269,24.9868
2026-07-22T15:38:56.145,55.3842,19.4682,24.9085
2026-07-22T15:38:56.149,55.3842,19.2919,24.9477
2026-07-22T15:38:56.149,55.3842,19.3115,24.9085
2026-07-22T15:38:56.165,55.3842,19.429,24.9085
2026-07-22T15:38:56.181,55.4168,19.4094,24.9281
2026-07-22T15:38:56.181,55.4279,19.5465,24.9868
2026-07-22T15:38:56.197,55.432,19.5465,24.9868
2026-07-22T15:38:56.197,55.432,19.4878,25.0456
2026-07-22T15:38:56.230,55.4662,19.5269,25.0456
2026-07-22T15:38:56.230,55.4695,19.429,24.9868
2026-07-22T15:38:56.245,55.4735,19.4682,24.9868
2026-07-22T15:38:56.245,55.475,19.3898,24.9085
2026-07-22T15:38:56.261,55.5069,19.429,24.9477
2026-07-22T15:38:56.261,55.5069,19.4486,24.9085
2026-07-22T15:38:56.279,55.5069,19.4682,25.0064
2026-07-22T15:38:56.288,55.5069,19.5073,25.0651
2026-07-22T15:38:56.295,55.5389,19.6052,25.026
2026-07-22T15:38:56.305,55.5389,19.5661,25.0064
2026-07-22T15:38:56.305,55.5389,19.4682,25.0651
2026-07-22T15:38:56.320,55.5389,19.5465,24.9477
2026-07-22T15:38:56.336,55.5547,19.4486,25.0456
2026-07-22T15:38:56.352,55.5895,19.3507,25.0064
2026-07-22T15:38:56.352,55.5941,19.3703,25.0064
2026-07-22T15:38:56.368,55.6031,19.2724,24.9672
2026-07-22T15:38:56.384,55.6239,19.2528,24.8889
2026-07-22T15:38:56.394,55.6239,19.2332,24.8889
2026-07-22T15:38:56.406,55.6376,19.1549,24.9477
2026-07-22T15:38:56.407,55.6376,19.194,24.791
2026-07-22T15:38:56.418,55.667,19.2724,24.7714
2026-07-22T15:38:56.421,55.6715,19.3311,24.7518
2026-07-22T15:38:56.437,55.6746,19.3507,24.7323
2026-07-22T15:38:56.437,55.6884,19.2136,24.7323
2026-07-22T15:38:56.453,55.6963,19.2528,24.7714
2026-07-22T15:38:56.469,55.7203,19.2136,24.8889
2026-07-22T15:38:56.479,55.7223,19.2528,24.791
2026-07-22T15:38:56.497,55.7273,19.1549,24.8302
2026-07-22T15:38:56.500,55.7273,19.1745,24.7323
2026-07-22T15:38:56.509,55.7293,19.0766,24.7323
2026-07-22T15:38:56.529,55.754,19.1157,24.7127
2026-07-22T15:38:56.530,55.754,19.194,24.6931
2026-07-22T15:38:56.539,55.77,19.0766,24.6931
2026-07-22T15:38:56.549,55.8023,19.057,24.6539
2026-07-22T15:38:56.567,55.8023,19.1157,24.6344
2026-07-22T15:38:56.567,55.8023,19.1353,24.5952
2026-07-22T15:38:56.567,55.8023,19.1549,24.6539
2026-07-22T15:38:56.583,55.8023,19.194,24.556
2026-07-22T15:38:56.599,55.8388,19.1353,24.5756
2026-07-22T15:38:56.607,55.8499,19.1353,24.5365
2026-07-22T15:38:56.615,55.8499,19.0961,24.4973
2026-07-22T15:38:56.615,55.8499,19.0961,24.5169
2026-07-22T15:38:56.631,55.8839,19.1353,24.556
2026-07-22T15:38:56.652,55.8839,19.1353,24.556
2026-07-22T15:38:56.652,55.8839,19.0766,24.5365
2026-07-22T15:38:56.663,55.8981,19.1353,24.5756
2026-07-22T15:38:56.663,55.8981,19.0766,24.6148
2026-07-22T15:38:56.697,55.931,19.1157,24.6735
2026-07-22T15:38:56.697,55.931,19.1549,24.7518
2026-07-22T15:38:56.711,55.9391,19.194,24.7518
2026-07-22T15:38:56.711,55.9391,19.194,24.7323
2026-07-22T15:38:56.727,55.9632,19.2332,24.7714
2026-07-22T15:38:56.727,55.9632,19.2528,24.791
2026-07-22T15:38:56.744,55.981,19.3115,24.8106
2026-07-22T15:38:56.759,55.9867,19.3703,24.8693
2026-07-22T15:38:56.759,56.0103,19.429,24.9281
2026-07-22T15:38:56.776,56.0103,19.4682,24.9672
2026-07-22T15:38:56.776,56.0103,19.3507,25.0064
2026-07-22T15:38:56.800,56.0265,19.3115,24.9672
2026-07-22T15:38:56.811,56.0584,19.3507,25.0064
2026-07-22T15:38:56.823,56.0584,19.4486,24.9868
2026-07-22T15:38:56.823,56.0584,19.4486,25.026
2026-07-22T15:38:56.823,56.0584,19.5661,25.0456
2026-07-22T15:38:56.855,56.0902,19.5661,25.2218
2026-07-22T15:38:56.855,56.0902,19.664,25.2022
2026-07-22T15:38:56.855,56.1062,19.664,25.2218
2026-07-22T15:38:56.871,56.1129,19.7031,25.2414
2026-07-22T15:38:56.888,56.1397,19.664,25.2414
2026-07-22T15:38:56.897,56.1397,19.6444,25.3197
2026-07-22T15:38:56.903,56.1397,19.6444,25.3784
2026-07-22T15:38:56.919,56.1397,19.6836,25.3784
2026-07-22T15:38:56.926,56.1551,19.6052,25.4372
2026-07-22T15:38:56.936,56.1867,19.6052,25.398
2026-07-22T15:38:56.953,56.1867,19.5857,25.3588
2026-07-22T15:38:56.953,56.1867,19.6444,25.398
2026-07-22T15:38:56.968,56.1867,19.6248,25.398
2026-07-22T15:38:56.968,56.2206,19.664,25.4568
2026-07-22T15:38:56.983,56.2206,19.7031,25.4372
2026-07-22T15:38:56.983,56.2206,19.664,25.4959
2026-07-22T15:38:57.000,56.2348,19.6248,25.3784
2026-07-22T15:38:57.015,56.2658,19.5857,25.3393
2026-07-22T15:38:57.034,56.2658,19.6052,25.2414
2026-07-22T15:38:57.034,56.2658,19.6052,25.2805
2026-07-22T15:38:57.048,56.2658,19.664,25.2609
2026-07-22T15:38:57.063,56.2974,19.6248,25.2218
2026-07-22T15:38:57.079,56.3132,19.6248,25.2805
2026-07-22T15:38:57.079,56.3132,19.6248,25.2805
2026-07-22T15:38:57.079,56.3132,19.664,25.3588
2026-07-22T15:38:57.097,56.3132,19.7423,25.4176
2026-07-22T15:38:57.097,56.3448,19.7619,25.4176
2026-07-22T15:38:57.110,56.3448,19.7031,25.3784
2026-07-22T15:38:57.126,56.3605,19.6248,25.5155
2026-07-22T15:38:57.126,56.3605,19.6248,25.3784
2026-07-22T15:38:57.142,56.3921,19.5269,25.3393
2026-07-22T15:38:57.158,56.3921,19.5073,25.2414
2026-07-22T15:38:57.158,56.3921,19.4682,25.1239
2026-07-22T15:38:57.173,56.3921,19.5073,25.1043
2026-07-22T15:38:57.189,56.4333,19.4486,25.0456
2026-07-22T15:38:57.205,56.4415,19.5269,25.163
2026-07-22T15:38:57.205,56.4415,19.5857,25.1826
2026-07-22T15:38:57.205,56.4415,19.5661,25.2022
2026-07-22T15:38:57.229,56.4796,19.5269,25.1826
2026-07-22T15:38:57.246,56.4847,19.4486,25.2414
2026-07-22T15:38:57.246,56.488,19.4094,25.2022
2026-07-22T15:38:57.254,56.488,19.429,25.163
2026-07-22T15:38:57.254,56.488,19.3898,25.2414
2026-07-22T15:38:57.269,56.5196,19.429,25.1435
2026-07-22T15:38:57.289,56.5196,19.4094,25.2022
2026-07-22T15:38:57.301,56.5196,19.429,25.2805
2026-07-22T15:38:57.301,56.5364,19.4878,25.2805
2026-07-22T15:38:57.326,56.5671,19.5269,25.2414
2026-07-22T15:38:57.326,56.5671,19.4682,25.2218
2026-07-22T15:38:57.333,56.5671,19.4682,25.3001
2026-07-22T15:38:57.349,56.5671,19.4682,25.2414
2026-07-22T15:38:57.354,56.6083,19.5857,25.3784
2026-07-22T15:38:57.366,56.6083,19.5857,25.3197
2026-07-22T15:38:57.366,56.6083,19.6836,25.3393
2026-07-22T15:38:57.380,56.6083,19.5465,25.2414
2026-07-22T15:38:57.398,56.6234,19.4878,25.2218
2026-07-22T15:38:57.420,56.6412,19.4094,25.2805
2026-07-22T15:38:57.420,56.6412,19.429,25.2609
2026-07-22T15:38:57.421,56.655,19.4878,25.2022
2026-07-22T15:38:57.436,56.655,19.429,25.2218
2026-07-22T15:38:57.438,56.6895,19.5269,25.1826
2026-07-22T15:38:57.454,56.6945,19.4486,25.163
2026-07-22T15:38:57.468,56.6995,19.4094,25.2414
2026-07-22T15:38:57.484,56.7248,19.4878,25.2609
2026-07-22T15:38:57.498,56.7248,19.5073,25.2414
2026-07-22T15:38:57.498,56.7248,19.4486,25.2218
2026-07-22T15:38:57.513,56.7416,19.4094,25.1826
2026-07-22T15:38:57.519,56.7562,19.4094,25.1826
2026-07-22T15:38:57.528,56.7721,19.3703,25.1239
2026-07-22T15:38:57.538,56.7721,19.2919,25.1239
2026-07-22T15:38:57.553,56.7721,19.3311,25.0847
2026-07-22T15:38:57.555,56.7721,19.2919,25.1435
2026-07-22T15:38:57.569,56.8086,19.3115,25.1043
2026-07-22T15:38:57.569,56.8086,19.3311,25.0847
2026-07-22T15:38:57.585,56.8086,19.3115,25.1043
2026-07-22T15:38:57.598,56.8245,19.2919,25.026
2026-07-22T15:38:57.618,56.8422,19.1745,25.0456
2026-07-22T15:38:57.619,56.8422,19.3115,25.0064
2026-07-22T15:38:57.622,56.8563,19.1157,25.0456
2026-07-22T15:38:57.637,56.8563,19.1549,25.0064
2026-07-22T15:38:57.637,56.8881,19.194,24.9672
2026-07-22T15:38:57.655,56.8881,19.1745,24.9477
2026-07-22T15:38:57.669,56.8881,19.2528,24.8889
2026-07-22T15:38:57.669,56.9028,19.1157,24.9477
2026-07-22T15:38:57.685,56.9196,19.1745,24.9085
2026-07-22T15:38:57.698,56.9196,19.2332,25.026
2026-07-22T15:38:57.701,56.9354,19.2528,24.9868
2026-07-22T15:38:57.716,56.9354,19.3507,24.9281
2026-07-22T15:38:57.733,56.9671,19.2136,24.9672
2026-07-22T15:38:57.733,56.9671,19.2724,24.9477
2026-07-22T15:38:57.748,56.9671,19.2724,24.9868
2026-07-22T15:38:57.756,57.0025,19.1353,24.9477
2026-07-22T15:38:57.765,57.0025,19.194,24.9085
2026-07-22T15:38:57.780,57.0025,19.0961,24.8693
2026-07-22T15:38:57.780,57.0144,19.1353,24.8889
2026-07-22T15:38:57.798,57.0433,19.057,24.8693
2026-07-22T15:38:57.813,57.0464,19.194,24.9085
2026-07-22T15:38:57.815,57.0464,19.2332,24.9281
2026-07-22T15:38:57.827,57.0464,19.194,24.9085
2026-07-22T15:38:57.827,57.0856,19.2332,24.8693
2026-07-22T15:38:57.845,57.0856,19.2528,24.9085
2026-07-22T15:38:57.859,57.0856,19.2724,24.9672
2026-07-22T15:38:57.859,57.0974,19.3311,24.9868
2026-07-22T15:38:57.876,57.1097,19.3507,25.0064
2026-07-22T15:38:57.891,57.1255,19.3311,25.026
2026-07-22T15:38:57.891,57.1255,19.2136,25.0651
2026-07-22T15:38:57.910,57.1255,19.194,25.0456
2026-07-22T15:38:57.923,57.1584,19.194,24.9672
2026-07-22T15:38:57.923,57.1584,19.2528,25.0064
2026-07-22T15:38:57.938,57.1584,19.3115,25.0651
2026-07-22T15:38:57.938,57.1738,19.2528,25.1043
2026-07-22T15:38:57.957,57.1891,19.2724,25.0847
2026-07-22T15:38:57.957,57.1891,19.2136,25.1043
2026-07-22T15:38:57.971,57.1891,19.2528,25.0456
2026-07-22T15:38:57.987,57.2048,19.3115,25.026
2026-07-22T15:38:58.002,57.2368,19.2724,25.0651
2026-07-22T15:38:58.002,57.2374,19.2919,25.0847
2026-07-22T15:38:58.018,57.244,19.2724,25.1239
2026-07-22T15:38:58.018,57.2685,19.2136,25.0651
2026-07-22T15:38:58.034,57.2685,19.194,25.0847
2026-07-22T15:38:58.050,57.2685,19.194,25.0456
2026-07-22T15:38:58.057,57.2685,19.1745,25.0064
2026-07-22T15:38:58.067,57.3004,19.1549,25.026
2026-07-22T15:38:58.067,57.3004,19.1353,25.026
2026-07-22T15:38:58.081,57.3176,19.1745,25.0651
2026-07-22T15:38:58.113,57.3446,19.2724,25.0651
2026-07-22T15:38:58.113,57.3482,19.2724,25.2609
2026-07-22T15:38:58.113,57.3482,19.2724,25.2218
2026-07-22T15:38:58.129,57.3482,19.2724,25.2805
2026-07-22T15:38:58.133,57.38,19.2528,25.3393
2026-07-22T15:38:58.145,57.3862,19.2332,25.3588
2026-07-22T15:38:58.161,57.3862,19.2528,25.3784
2026-07-22T15:38:58.161,57.3958,19.2332,25.4176
2026-07-22T15:38:58.177,57.4116,19.2136,25.3588
2026-07-22T15:38:58.177,57.4116,19.3115,25.3784
2026-07-22T15:38:58.199,57.4279,19.2919,25.3784
2026-07-22T15:38:58.209,57.4279,19.3311,25.3784
2026-07-22T15:38:58.225,57.4609,19.3115,25.2414
2026-07-22T15:38:58.225,57.4609,19.3311,25.3001
2026-07-22T15:38:58.225,57.4609,19.3311,25.3393
2026-07-22T15:38:58.241,57.4755,19.2919,25.398
2026-07-22T15:38:58.258,57.4913,19.3898,25.4372
2026-07-22T15:38:58.258,57.4913,19.4094,25.3588
2026-07-22T15:38:58.274,57.4913,19.3507,25.398
2026-07-22T15:38:58.288,57.5228,19.3507,25.3588
2026-07-22T15:38:58.288,57.5228,19.3898,25.4372
2026-07-22T15:38:58.304,57.5228,19.429,25.5547
2026-07-22T15:38:58.320,57.5387,19.4878,25.5155
2026-07-22T15:38:58.336,57.5707,19.429,25.5155
2026-07-22T15:38:58.336,57.5707,19.3703,25.4959
2026-07-22T15:38:58.336,57.5707,19.6052,25.5155
2026-07-22T15:38:58.359,57.5707,19.3311,25.6526
2026-07-22T15:38:58.368,57.6024,19.3703,25.7113
2026-07-22T15:38:58.369,57.6024,19.429,25.6721
2026-07-22T15:38:58.384,57.6182,19.4878,25.7896
2026-07-22T15:38:58.399,57.6182,19.5269,25.7505
2026-07-22T15:38:58.399,57.6462,19.4486,25.77
2026-07-22T15:38:58.415,57.6462,19.4486,25.77
2026-07-22T15:38:58.431,57.6509,19.5269,25.8092
2026-07-22T15:38:58.431,57.6661,19.5073,25.8484
2026-07-22T15:38:58.447,57.6661,19.4682,25.8484
2026-07-22T15:38:58.447,57.6819,19.4878,25.8484
2026-07-22T15:38:58.464,57.7224,19.429,25.7309
2026-07-22T15:38:58.479,57.7234,19.4094,25.6721
2026-07-22T15:38:58.479,57.7248,19.3507,25.5742
2026-07-22T15:38:58.500,57.7248,19.2528,25.5351
2026-07-22T15:38:58.508,57.7562,19.2332,25.4763
2026-07-22T15:38:58.529,57.7585,19.2528,25.5351
2026-07-22T15:38:58.529,57.7591,19.3115,25.5742
2026-07-22T15:38:58.538,57.7591,19.3311,25.5938
2026-07-22T15:38:58.555,57.7867,19.3115,25.5351
2026-07-22T15:38:58.562,57.7867,19.2724,25.5351
2026-07-22T15:38:58.568,57.7867,19.2136,25.5351
2026-07-22T15:38:58.572,57.8061,19.2528,25.633
2026-07-22T15:38:58.600,57.8341,19.2724,25.5938
2026-07-22T15:38:58.600,57.8361,19.3115,25.633
2026-07-22T15:38:58.600,57.8411,19.3898,25.5742
2026-07-22T15:38:58.619,57.8472,19.3311,25.5742
2026-07-22T15:38:58.640,57.8745,19.2332,25.5155
2026-07-22T15:38:58.640,57.8745,19.1157,25.398
2026-07-22T15:38:58.650,57.8745,19.1549,25.4176
2026-07-22T15:38:58.656,57.8869,19.1353,25.3588
2026-07-22T15:38:58.660,57.9164,19.1745,25.3197
2026-07-22T15:38:58.672,57.9193,19.0961,25.3197
2026-07-22T15:38:58.687,57.9193,19.1353,25.3393
2026-07-22T15:38:58.704,57.9279,19.2724,25.3001
2026-07-22T15:38:58.704,57.9475,19.057,25.2414
2026-07-22T15:38:58.725,57.9475,19.0961,25.2609
2026-07-22T15:38:58.729,57.9596,18.9787,25.163
2026-07-22T15:38:58.741,57.9596,18.9395,25.1043
2026-07-22T15:38:58.741,57.9915,18.8807,25.163
2026-07-22T15:38:58.760,57.9915,18.9591,25.0064
2026-07-22T15:38:58.773,57.9915,18.9787,25.0064
2026-07-22T15:38:58.773,57.9915,18.9199,25.0456
2026-07-22T15:38:58.790,58.0231,18.9003,24.9868
2026-07-22T15:38:58.804,58.0231,18.8612,24.9281
2026-07-22T15:38:58.804,58.0391,18.8416,24.9868
2026-07-22T15:38:58.804,58.04,18.8807,24.9672
2026-07-22T15:38:58.836,58.0712,18.9591,25.0064
2026-07-22T15:38:58.836,58.0712,18.8416,25.0064
2026-07-22T15:38:58.836,58.0712,18.9003,25.1043
2026-07-22T15:38:58.853,58.0868,18.9591,25.0847
2026-07-22T15:38:58.868,58.1195,18.9395,25.163
2026-07-22T15:38:58.868,58.1195,19.0178,25.163
2026-07-22T15:38:58.884,58.1195,19.057,25.1043
2026-07-22T15:38:58.900,58.1195,19.0374,25.1826
2026-07-22T15:38:58.900,58.155,19.0178,25.1043
2026-07-22T15:38:58.926,58.1585,18.9591,25.1826
2026-07-22T15:38:58.932,58.1585,18.9787,25.0847
2026-07-22T15:38:58.932,58.1661,18.9787,25.2022
2026-07-22T15:38:58.947,58.1979,18.9787,25.163
2026-07-22T15:38:58.963,58.1995,18.9591,25.1043
2026-07-22T15:38:58.971,58.1995,18.8807,25.1435
2026-07-22T15:38:58.979,58.1995,18.9003,25.163
2026-07-22T15:38:58.979,58.2299,18.9591,25.2022
2026-07-22T15:38:59.000,58.2299,18.9982,25.1826
2026-07-22T15:38:59.011,58.2458,18.9982,25.1826
2026-07-22T15:38:59.012,58.2489,19.0766,25.2022
2026-07-22T15:38:59.027,58.2489,19.0374,25.2414
2026-07-22T15:38:59.043,58.2793,19.1745,25.3001
2026-07-22T15:38:59.043,58.2793,19.0961,25.3197
2026-07-22T15:38:59.059,58.2874,19.1157,25.3588
2026-07-22T15:38:59.062,58.294,19.0178,25.3197
2026-07-22T15:38:59.076,58.3097,18.9395,25.2609
2026-07-22T15:38:59.076,58.3097,18.8416,25.3001
2026-07-22T15:38:59.100,58.3255,18.9787,25.2805
2026-07-22T15:38:59.107,58.349,18.9787,25.2609
2026-07-22T15:38:59.123,58.3572,18.9199,25.3197
2026-07-22T15:38:59.123,58.3572,18.8807,25.3393
2026-07-22T15:38:59.138,58.3572,18.8807,25.3393
2026-07-22T15:38:59.154,58.3892,18.7241,25.2414
2026-07-22T15:38:59.162,58.3892,18.822,25.2414
2026-07-22T15:38:59.170,58.3892,18.8807,25.163
2026-07-22T15:38:59.170,58.405,18.8416,25.1826
2026-07-22T15:38:59.186,58.4368,18.9003,25.2609
2026-07-22T15:38:59.200,58.4368,18.8612,25.3001
2026-07-22T15:38:59.202,58.4368,18.9982,25.3588
2026-07-22T15:38:59.218,58.4527,18.9395,25.3588
2026-07-22T15:38:59.234,58.4688,18.9395,25.3197
2026-07-22T15:38:59.234,58.4688,18.8024,25.3588
2026-07-22T15:38:59.250,58.4847,18.8024,25.3001
2026-07-22T15:38:59.250,58.4885,18.7437,25.3588
2026-07-22T15:38:59.266,58.4885,18.822,25.398
2026-07-22T15:38:59.282,58.5165,18.9591,25.4176
2026-07-22T15:38:59.282,58.5165,18.9982,25.5155
2026-07-22T15:38:59.301,58.5165,18.9982,25.3784
2026-07-22T15:38:59.301,58.5326,18.9199,25.4176
2026-07-22T15:38:59.314,58.5501,18.9591,25.398
2026-07-22T15:38:59.330,58.5642,18.8612,25.3588
2026-07-22T15:38:59.330,58.5642,18.8416,25.3784
2026-07-22T15:38:59.346,58.5642,18.7241,25.3197
2026-07-22T15:38:59.346,58.596,18.7828,25.2022
2026-07-22T15:38:59.363,58.596,18.6849,25.2022
2026-07-22T15:38:59.377,58.596,18.7633,25.2022
2026-07-22T15:38:59.377,58.6118,18.7633,25.2022
2026-07-22T15:38:59.401,58.6277,18.7437,25.2218
2026-07-22T15:38:59.409,58.6434,18.7241,25.2805
2026-07-22T15:38:59.409,58.6471,18.7045,25.2609
2026-07-22T15:38:59.425,58.6593,18.6849,25.3197
2026-07-22T15:38:59.441,58.6795,18.6654,25.3393
2026-07-22T15:38:59.441,58.6831,18.8416,25.3784
2026-07-22T15:38:59.460,58.6882,18.7437,25.3588
2026-07-22T15:39:18.194,77.4347,21.7004,23.577
2026-07-22T15:39:18.210,77.4347,21.7004,23.5966
2026-07-22T15:39:18.225,77.4438,21.7395,23.5183
2026-07-22T15:39:18.225,77.4598,21.6025,23.4987
2026-07-22T15:39:18.248,77.4598,21.6612,23.4791
2026-07-22T15:39:18.248,77.4764,21.6221,23.4987
2026-07-22T15:39:18.257,77.4764,21.6025,23.5378
2026-07-22T15:39:18.273,77.509,21.6808,23.5378
2026-07-22T15:39:18.273,77.509,21.7591,23.6162
2026-07-22T15:39:18.289,77.509,21.7004,23.6357
2026-07-22T15:39:18.305,77.54,21.7787,23.5574
2026-07-22T15:39:18.305,77.54,21.5829,23.5378
2026-07-22T15:39:18.322,77.54,21.485,23.3616
2026-07-22T15:39:18.322,77.54,21.4458,23.3616
2026-07-22T15:39:18.348,77.5715,21.4458,23.3029
2026-07-22T15:39:18.348,77.5715,21.5242,23.3224
2026-07-22T15:39:18.353,77.5873,21.6025,23.2833
2026-07-22T15:39:18.369,77.6031,21.6025,23.342
2026-07-22T15:39:18.384,77.6193,21.6808,23.4204
2026-07-22T15:39:18.384,77.623,21.72,23.4204
2026-07-22T15:39:18.400,77.623,21.6808,23.4595
2026-07-22T15:39:18.416,77.6513,21.6808,23.4008
2026-07-22T15:39:18.416,77.6513,21.5829,23.4008
2026-07-22T15:39:18.432,77.6513,21.5242,23.4204
2026-07-22T15:39:18.436,77.6671,21.4458,23.4595
2026-07-22T15:39:18.449,77.6844,21.4458,23.4399
2026-07-22T15:39:18.464,77.6844,21.4262,23.4204
2026-07-22T15:39:18.464,77.699,21.4067,23.4008
2026-07-22T15:39:18.480,77.699,21.4262,23.3616
2026-07-22T15:39:18.480,77.7231,21.3675,23.3029
2026-07-22T15:39:18.497,77.7311,21.3675,23.2833
2026-07-22T15:39:18.497,77.7317,21.2696,23.205
2026-07-22T15:39:18.528,77.7656,21.2892,23.2833
2026-07-22T15:39:18.536,77.7679,21.2696,23.2833
2026-07-22T15:39:18.544,77.7702,21.2109,23.1462
2026-07-22T15:39:18.549,77.7783,21.1913,23.1462
2026-07-22T15:39:18.560,77.794,21.1717,23.1658
2026-07-22T15:39:18.560,77.794,21.0934,23.1462
2026-07-22T15:39:18.580,77.8098,21.113,23.0875
2026-07-22T15:39:18.593,77.8098,21.0542,23.1462
2026-07-22T15:39:18.607,77.8421,21.0738,23.205
2026-07-22T15:39:18.607,77.8421,21.113,23.205
2026-07-22T15:39:18.623,77.8421,21.1521,23.2441
2026-07-22T15:39:18.639,77.8738,21.0738,23.2637
2026-07-22T15:39:18.649,77.8738,21.0934,23.2245
2026-07-22T15:39:18.649,77.8738,21.0934,23.2833
2026-07-22T15:39:18.655,77.8899,21.113,23.2245
2026-07-22T15:39:18.655,77.915,21.0738,23.2441
2026-07-22T15:39:18.687,77.9222,21.113,23.2245
2026-07-22T15:39:18.687,77.924,21.1717,23.2245
2026-07-22T15:39:18.703,77.924,21.1521,23.2245
2026-07-22T15:39:18.703,77.9525,21.0542,23.1462
2026-07-22T15:39:18.719,77.9525,20.9759,23.1266
2026-07-22T15:39:18.735,77.9525,20.9171,23.1658
2026-07-22T15:39:18.737,77.9525,21.0151,23.1462
2026-07-22T15:39:18.750,77.9847,21.0151,23.1854
2026-07-22T15:39:18.750,77.9847,21.1325,23.1854
2026-07-22T15:39:18.765,78.0006,21.1521,23.3224
2026-07-22T15:39:18.782,78.0006,21.1325,23.2637
2026-07-22T15:39:18.782,78.0321,21.113,23.2833
2026-07-22T15:39:18.798,78.0374,21.1717,23.3224
2026-07-22T15:39:18.814,78.0374,21.1325,23.342
2026-07-22T15:39:18.814,78.05,21.1717,23.3224
2026-07-22T15:39:18.836,78.0752,21.1521,23.2637
2026-07-22T15:39:18.845,78.0752,21.1325,23.2441
2026-07-22T15:39:18.850,78.0752,21.1717,23.3029
2026-07-22T15:39:18.863,78.0752,21.2109,23.3616
2026-07-22T15:39:18.872,78.1076,21.25,23.3224
2026-07-22T15:39:18.883,78.1076,21.25,23.4399
2026-07-22T15:39:18.888,78.1076,21.2696,23.3812
2026-07-22T15:39:18.904,78.139,21.1913,23.4204
2026-07-22T15:39:18.904,78.139,21.1717,23.4399
2026-07-22T15:39:18.921,78.139,21.1521,23.3812
2026-07-22T15:39:18.921,78.1572,21.0934,23.4008
2026-07-22T15:39:18.937,78.1833,21.113,23.3812
2026-07-22T15:39:18.952,78.1873,20.9955,23.4399
2026-07-22T15:39:18.952,78.1919,21.0151,23.3812
2026-07-22T15:39:18.973,78.1919,20.9367,23.3812
2026-07-22T15:39:18.989,78.2269,20.9367,23.3029
2026-07-22T15:39:18.995,78.2317,20.8584,23.3029
2026-07-22T15:39:19.005,78.2317,20.8584,23.3224
2026-07-22T15:39:19.005,78.2384,20.7997,23.2637
2026-07-22T15:39:19.020,78.2552,20.8584,23.2833
2026-07-22T15:39:19.020,78.2552,20.9563,23.2637
2026-07-22T15:39:19.045,78.2749,20.8584,23.3616
2026-07-22T15:39:19.054,78.2749,20.9563,23.342
2026-07-22T15:39:19.054,78.2909,20.878,23.3616
2026-07-22T15:39:19.068,78.3067,20.8976,23.342
2026-07-22T15:39:19.086,78.3083,20.878,23.2245
2026-07-22T15:39:19.088,78.3388,20.7997,23.3224
2026-07-22T15:39:19.104,78.3388,20.7997,23.2441
2026-07-22T15:39:19.104,78.3388,20.6626,23.2245
2026-07-22T15:39:19.121,78.3388,20.6234,23.2833
2026-07-22T15:39:19.137,78.3704,20.6626,23.2245
2026-07-22T15:39:19.144,78.3704,20.6626,23.2441
2026-07-22T15:39:19.152,78.3861,20.7409,23.2245
2026-07-22T15:39:19.152,78.3861,20.6626,23.2245
2026-07-22T15:39:19.168,78.4176,20.6626,23.2833
2026-07-22T15:39:19.183,78.4238,20.7018,23.2833
2026-07-22T15:39:19.183,78.4238,20.5843,23.3029
2026-07-22T15:39:19.199,78.4334,20.5843,23.2441
2026-07-22T15:39:19.199,78.4494,20.4472,23.2245
2026-07-22T15:39:19.231,78.4657,20.4668,23.205
2026-07-22T15:39:19.231,78.4657,20.4668,23.2833
2026-07-22T15:39:19.246,78.4657,20.4668,23.2245
2026-07-22T15:39:19.252,78.4657,20.4276,23.3224
2026-07-22T15:39:19.262,78.4977,20.5255,23.3224
2026-07-22T15:39:19.262,78.4977,20.4864,23.342
2026-07-22T15:39:19.279,78.5136,20.4276,23.3224
2026-07-22T15:39:19.279,78.524,20.4668,23.2833
2026-07-22T15:39:19.295,78.5455,20.5451,23.342
2026-07-22T15:39:19.311,78.5625,20.4864,23.3224
2026-07-22T15:39:19.311,78.5625,20.4472,23.342
2026-07-22T15:39:19.327,78.5776,20.408,23.342
2026-07-22T15:39:19.337,78.5776,20.3689,23.2245
2026-07-22T15:39:19.358,78.6092,20.408,23.342
2026-07-22T15:39:19.358,78.6092,20.408,23.2833
2026-07-22T15:39:19.358,78.6092,20.5255,23.3224
2026-07-22T15:39:19.376,78.6092,20.4668,23.3616
2026-07-22T15:39:19.391,78.6244,20.4668,23.3812
2026-07-22T15:39:19.406,78.6401,20.4668,23.4399
2026-07-22T15:39:19.406,78.6559,20.506,23.4399
2026-07-22T15:39:19.422,78.6559,20.506,23.3812
2026-07-22T15:39:19.422,78.6559,20.4668,23.3812
2026-07-22T15:39:19.437,78.6721,20.5451,23.3812
2026-07-22T15:39:19.453,78.6879,20.4864,23.3812
2026-07-22T15:39:19.453,78.7036,20.408,23.4008
2026-07-22T15:39:19.469,78.7036,20.4276,23.342
2026-07-22T15:39:19.485,78.7128,20.3689,23.4008
2026-07-22T15:39:19.485,78.7408,20.4864,23.4008
2026-07-22T15:39:19.501,78.7408,20.4668,23.4791
2026-07-22T15:39:19.501,78.7408,20.4668,23.5183
2026-07-22T15:39:19.526,78.7509,20.5843,23.5574
2026-07-22T15:39:19.526,78.7509,20.4472,23.4204
2026-07-22T15:39:19.538,78.7692,20.4276,23.4399
2026-07-22T15:39:19.549,78.7829,20.3493,23.3812
2026-07-22T15:39:19.564,78.7829,20.3297,23.4008
2026-07-22T15:39:19.564,78.8003,20.3689,23.4008
2026-07-22T15:39:19.582,78.8148,20.3297,23.3616
2026-07-22T15:39:19.582,78.8148,20.271,23.3812
2026-07-22T15:39:19.596,78.825,20.3101,23.4204
2026-07-22T15:39:19.613,78.8475,20.2514,23.4008
2026-07-22T15:39:19.613,78.8475,20.3689,23.3812
2026-07-22T15:39:19.628,78.8475,20.3885,23.4595
2026-07-22T15:39:19.638,78.8626,20.4668,23.4399
2026-07-22T15:39:19.654,78.8784,20.3297,23.4399
2026-07-22T15:39:19.660,78.8941,20.3689,23.4008
2026-07-22T15:39:19.676,78.8941,20.2906,23.4204
2026-07-22T15:39:19.691,78.925,20.3689,23.5183
2026-07-22T15:39:19.691,78.9258,20.3689,23.5574
2026-07-22T15:39:19.691,78.9308,20.3885,23.577
2026-07-22T15:39:19.707,78.9333,20.4864,23.6357
2026-07-22T15:39:19.723,78.9577,20.4276,23.5378
2026-07-22T15:39:19.733,78.9577,20.408,23.5966
2026-07-22T15:39:19.746,78.9577,20.4472,23.6162
2026-07-22T15:39:19.746,78.9756,20.506,23.6357
2026-07-22T15:39:19.771,78.9892,20.6234,23.5966
2026-07-22T15:39:19.771,78.9892,20.5843,23.6162
2026-07-22T15:39:19.771,79.005,20.6234,23.5966
2026-07-22T15:39:19.789,79.005,20.6234,23.6749
2026-07-22T15:39:19.802,79.0366,20.6626,23.7141
2026-07-22T15:39:19.802,79.0423,20.7018,23.6945
2026-07-22T15:39:19.818,79.0423,20.7997,23.8707
2026-07-22T15:39:19.834,79.0693,20.7801,23.7532
2026-07-22T15:39:19.838,79.0693,20.7605,23.949
2026-07-22T15:39:19.855,79.0843,20.7409,23.8511
2026-07-22T15:39:19.855,79.0843,20.878,23.8315
2026-07-22T15:39:19.865,79.1011,20.7605,23.8707
2026-07-22T15:39:19.882,79.1011,20.8584,23.8707
2026-07-22T15:39:19.882,79.1196,20.8584,23.8707
2026-07-22T15:39:19.897,79.1241,20.8192,23.8903
2026-07-22T15:39:19.914,79.1482,20.8584,23.8903
2026-07-22T15:39:19.914,79.1482,20.8192,23.8707
2026-07-22T15:39:19.934,79.1482,20.8192,23.8315
2026-07-22T15:39:19.946,79.1931,20.6822,23.7728
2026-07-22T15:39:19.956,79.1981,20.7213,23.7924
2026-07-22T15:39:19.961,79.2021,20.7801,23.7728
2026-07-22T15:39:19.961,79.2081,20.8192,23.7924
2026-07-22T15:39:19.981,79.2085,20.878,23.7924
2026-07-22T15:39:19.998,79.2252,20.8388,23.7532
2026-07-22T15:39:20.002,79.2252,20.8192,23.7141
2026-07-22T15:39:20.015,79.2431,20.7018,23.6749
2026-07-22T15:39:20.022,79.2431,20.6234,23.6553
2026-07-22T15:39:20.038,79.2801,20.6039,23.6357
2026-07-22T15:39:20.038,79.2811,20.6822,23.5966
2026-07-22T15:39:20.056,79.2861,20.5843,23.6553
2026-07-22T15:39:20.056,79.2902,20.5843,23.5574
2026-07-22T15:39:20.070,79.3084,20.4864,23.5574
2026-07-22T15:39:20.086,79.3084,20.4864,23.5378
2026-07-22T15:39:20.102,79.3252,20.4864,23.5378
2026-07-22T15:39:20.105,79.3252,20.4864,23.4987
2026-07-22T15:39:20.114,79.3435,20.4864,23.4595
2026-07-22T15:39:20.121,79.3435,20.506,23.4987
2026-07-22T15:39:20.121,79.3557,20.4472,23.4791
2026-07-22T15:39:20.138,79.3718,20.4864,23.4987
2026-07-22T15:39:20.156,79.3718,20.506,23.4399
2026-07-22T15:39:20.156,79.3886,20.5843,23.5378
2026-07-22T15:39:20.169,79.3917,20.5843,23.5574
2026-07-22T15:39:20.185,79.4086,20.5647,23.6162
2026-07-22T15:39:20.185,79.4086,20.4864,23.5378
2026-07-22T15:39:20.203,79.429,20.4864,23.5183
2026-07-22T15:39:20.206,79.4437,20.408,23.4595
2026-07-22T15:39:20.222,79.4563,20.3297,23.4204
2026-07-22T15:39:20.238,79.4563,20.3297,23.3812
2026-07-22T15:39:20.242,79.4563,20.3297,23.3812
2026-07-22T15:39:20.257,79.4883,20.3689,23.3812
2026-07-22T15:39:20.257,79.4883,20.4276,23.4399
2026-07-22T15:39:20.269,79.4883,20.4276,23.4008
2026-07-22T15:39:20.285,79.5255,20.4864,23.4008
2026-07-22T15:39:20.285,79.5255,20.408,23.4987
2026-07-22T15:39:20.301,79.5255,20.3885,23.4008
2026-07-22T15:39:20.317,79.5357,20.4276,23.4399
2026-07-22T15:39:20.317,79.5525,20.5451,23.4595
2026-07-22T15:39:20.333,79.5525,20.5451,23.5183
2026-07-22T15:39:20.339,79.5676,20.6626,23.5378
2026-07-22T15:39:20.349,79.585,20.643,23.6749
2026-07-22T15:39:20.365,79.599,20.7018,23.6162
2026-07-22T15:39:20.365,79.599,20.6234,23.6553
2026-07-22T15:39:20.381,79.599,20.6822,23.6553
2026-07-22T15:39:20.396,79.6309,20.6234,23.6553
2026-07-22T15:39:20.398,79.6309,20.6039,23.7336
2026-07-22T15:39:20.412,79.6309,20.6234,23.6749
2026-07-22T15:39:20.412,79.6624,20.6626,23.6749
2026-07-22T15:39:20.428,79.6624,20.506,23.6553
2026-07-22T15:39:20.444,79.6624,20.5451,23.6553
2026-07-22T15:39:20.444,79.6784,20.5843,23.6162
2026-07-22T15:39:20.460,79.6945,20.643,23.6357
2026-07-22T15:39:20.460,79.6945,20.5255,23.6162
2026-07-22T15:39:20.475,79.7103,20.6626,23.7728
2026-07-22T15:39:20.491,79.7103,20.7409,23.6553
2026-07-22T15:39:20.507,79.7448,20.643,23.6749
2026-07-22T15:39:20.507,79.7448,20.5843,23.577
2026-07-22T15:39:20.507,79.7448,20.4864,23.6553
2026-07-22T15:39:20.523,79.7448,20.4864,23.6162
2026-07-22T15:39:20.540,79.7762,20.5647,23.6553
2026-07-22T15:39:20.555,79.7762,20.5647,23.7532
2026-07-22T15:39:20.558,79.7762,20.6626,23.7532
2026-07-22T15:39:20.572,79.8051,20.8192,23.8707
2026-07-22T15:39:20.587,79.8051,20.7997,23.8903
2026-07-22T15:39:20.589,79.8051,20.8388,23.9295
2026-07-22T15:39:20.602,79.821,20.878,23.9099
2026-07-22T15:39:20.618,79.8454,20.7801,23.9295
2026-07-22T15:39:20.618,79.8454,20.7018,23.7924
2026-07-22T15:39:20.618,79.8536,20.5843,23.812
2026-07-22T15:39:20.651,79.8686,20.5451,23.812
2026-07-22T15:39:20.651,79.8845,20.643,23.6357
2026-07-22T15:39:20.658,79.8845,20.643,23.6945
2026-07-22T15:39:20.667,79.9003,20.5843,23.6749
2026-07-22T15:39:20.682,79.9162,20.5451,23.6945
2026-07-22T15:39:20.697,79.9162,20.6234,23.7728
2026-07-22T15:39:20.697,79.9162,20.6626,23.812
2026-07-22T15:39:20.713,79.9478,20.6039,23.8315
2026-07-22T15:39:20.713,79.9478,20.5647,23.7141
2026-07-22T15:39:20.729,79.9478,20.4276,23.7141
2026-07-22T15:39:20.739,79.9793,20.4472,23.6749
2026-07-22T15:39:20.759,79.9793,20.3493,23.6749
2026-07-22T15:39:20.761,79.9793,20.4276,23.7141
2026-07-22T15:39:20.761,79.9951,20.4472,23.7924
2026-07-22T15:39:20.777,80.0131,20.4668,23.7336
2026-07-22T15:39:20.792,80.0267,20.4668,23.7924
2026-07-22T15:39:20.792,80.0267,20.4472,23.7532
2026-07-22T15:39:20.808,80.0267,20.408,23.7728
2026-07-22T15:39:20.826,80.064,20.3885,23.7924
2026-07-22T15:39:20.826,80.066,20.4276,23.7728
2026-07-22T15:39:20.840,80.07,20.4276,23.8511
2026-07-22T15:39:20.840,80.0741,20.4668,23.812
2026-07-22T15:39:20.873,80.1065,20.4276,23.8315
2026-07-22T15:39:20.873,80.1085,20.4668,23.9295
2026-07-22T15:39:20.883,80.1126,20.5647,23.812
2026-07-22T15:39:20.899,80.1463,20.4668,23.8511
2026-07-22T15:39:20.904,80.1463,20.4472,23.7532
2026-07-22T15:39:20.904,80.1463,20.3297,23.8315
2026-07-22T15:39:20.930,80.1541,20.3689,23.6553
2026-07-22T15:39:20.940,80.1876,20.2122,23.6162
2026-07-22T15:39:20.951,80.1896,20.271,23.6945
2026-07-22T15:39:20.951,80.1896,20.4472,23.7336
2026-07-22T15:39:20.959,80.1956,20.4276,23.7532
2026-07-22T15:39:20.967,80.2014,20.408,23.7728
2026-07-22T15:39:20.989,80.2326,20.506,23.8707
2026-07-22T15:39:20.989,80.2326,20.4472,23.8511
2026-07-22T15:39:21.005,80.2386,20.4472,23.7728
2026-07-22T15:39:21.013,80.2467,20.3689,23.812
2026-07-22T15:39:21.021,80.2759,20.4276,23.7924
2026-07-22T15:39:21.040,80.2805,20.3297,23.812
2026-07-22T15:39:21.050,80.2848,20.4276,23.8511
2026-07-22T15:39:21.056,80.2898,20.4472,23.8511
2026-07-22T15:39:21.061,80.3083,20.4864,23.9295
2026-07-22T15:39:21.081,80.324,20.506,23.9099
2026-07-22T15:39:21.081,80.324,20.5451,23.9882
2026-07-22T15:39:21.098,80.3267,20.5843,23.9686
2026-07-22T15:39:21.106,80.3267,20.5647,24.0078
2026-07-22T15:39:21.117,80.3568,20.6039,23.9882
2026-07-22T15:39:21.121,80.3716,20.506,23.9099
2026-07-22T15:39:21.140,80.3716,20.4864,23.812
2026-07-22T15:39:21.140,80.3716,20.4276,23.7924
2026-07-22T15:39:21.140,80.3874,20.4668,23.8903
2026-07-22T15:39:21.160,80.4176,20.5255,23.8707
2026-07-22T15:39:21.170,80.4206,20.4668,23.8903
2026-07-22T15:39:21.185,80.4266,20.4864,23.9686
2026-07-22T15:39:21.185,80.4266,20.4668,23.9099
2026-07-22T15:39:21.203,80.4266,20.4276,23.9295
2026-07-22T15:39:21.223,80.4585,20.4668,23.9099
2026-07-22T15:39:21.227,80.4585,20.6039,23.8511
2026-07-22T15:39:21.240,80.4721,20.4864,23.8903
2026-07-22T15:39:21.240,80.4721,20.5255,23.9099
2026-07-22T15:39:21.253,80.5095,20.5451,23.9295
2026-07-22T15:39:21.271,80.5095,20.5647,23.8707
2026-07-22T15:39:21.271,80.5095,20.506,23.9686
2026-07-22T15:39:21.285,80.5095,20.5255,23.9099
2026-07-22T15:39:21.285,80.5269,20.5451,23.8903
2026-07-22T15:39:21.317,80.5564,20.4668,23.8315
2026-07-22T15:39:21.317,80.5564,20.3885,23.8903
2026-07-22T15:39:21.322,80.5564,20.4668,23.8903
2026-07-22T15:39:21.322,80.5723,20.506,23.949
2026-07-22T15:39:21.343,80.6039,20.6039,23.9686
2026-07-22T15:39:21.361,80.6039,20.5843,24.0274
2026-07-22T15:39:21.361,80.6039,20.5843,24.0469
2026-07-22T15:39:21.369,80.6039,20.5255,23.9882
2026-07-22T15:39:21.369,80.6196,20.4668,23.9686
2026-07-22T15:39:21.401,80.6515,20.4472,23.8903
2026-07-22T15:39:21.401,80.6515,20.3885,23.949
2026-07-22T15:39:21.401,80.6515,20.3689,23.7924
2026-07-22T15:39:21.417,80.6515,20.2122,23.7728
2026-07-22T15:39:21.435,80.6671,20.2318,23.7141
2026-07-22T15:39:21.461,80.6987,20.3493,23.7336
2026-07-22T15:39:21.461,80.6987,20.3297,23.8511
2026-07-22T15:39:21.464,80.6987,20.3885,23.9882
2026-07-22T15:39:21.464,80.7146,20.408,24.1057
2026-07-22T15:39:21.480,80.7146,20.5255,24.0861
2026-07-22T15:39:21.480,80.7525,20.4276,24.1253
2026-07-22T15:39:21.512,80.7565,20.4472,24.1644
2026-07-22T15:39:21.512,80.7585,20.5451,24.1448
2026-07-22T15:39:21.528,80.7633,20.5255,24.2036
2026-07-22T15:39:21.528,80.7633,20.4668,24.2623
2026-07-22T15:39:21.560,80.8051,20.4668,24.2232
2026-07-22T15:39:21.560,80.8071,20.4472,24.2036
2026-07-22T15:39:21.562,80.8091,20.4472,24.2036
2026-07-22T15:39:21.576,80.8137,20.3689,24.184
2026-07-22T15:39:21.576,80.8177,20.3689,24.1448
2026-07-22T15:39:21.608,80.8494,20.2514,24.1448
2026-07-22T15:39:21.614,80.8494,20.3297,24.1644
2026-07-22T15:39:21.614,80.8494,20.271,24.1057
2026-07-22T15:39:21.627,80.8591,20.3101,24.2427
2026-07-22T15:39:21.643,80.8936,20.3493,24.2623
2026-07-22T15:39:21.645,80.8976,20.3885,24.2232
2026-07-22T15:39:21.655,80.8996,20.3493,24.1644
2026-07-22T15:39:21.662,80.9036,20.3885,24.2036
2026-07-22T15:39:21.672,80.9054,20.3101,24.1448
2026-07-22T15:39:21.690,80.9368,20.3493,24.1448
2026-07-22T15:39:21.703,80.9368,20.408,24.1448
2026-07-22T15:39:21.707,80.9498,20.4276,24.184
2026-07-22T15:39:21.718,80.9545,20.4276,24.1644
2026-07-22T15:39:21.718,80.9545,20.408,24.184
2026-07-22T15:39:21.735,80.9959,20.4276,24.2427
2026-07-22T15:39:21.750,80.9997,20.408,24.2036
2026-07-22T15:39:21.750,81.0057,20.4472,24.2623
2026-07-22T15:39:21.763,81.0097,20.4276,24.2427
2026-07-22T15:39:21.767,81.0195,20.4276,24.2427
2026-07-22T15:39:21.790,81.0504,20.5255,24.3015
2026-07-22T15:39:21.803,81.0504,20.3885,24.2427
2026-07-22T15:39:21.803,81.0504,20.4668,24.2819
2026-07-22T15:39:21.819,81.0504,20.4472,24.3211
2026-07-22T15:39:21.828,81.0633,20.506,24.3602
2026-07-22T15:39:21.833,81.0667,20.5255,24.3994
2026-07-22T15:39:21.856,81.0972,20.5647,24.419
2026-07-22T15:39:21.856,81.0972,20.5843,24.4581
2026-07-22T15:39:21.863,81.0972,20.5843,24.3798
2026-07-22T15:39:21.875,81.1114,20.506,24.3994
2026-07-22T15:39:21.880,81.1484,20.5451,24.3406
2026-07-22T15:39:21.908,81.1529,20.5843,24.3602
2026-07-22T15:39:21.908,81.1529,20.5451,24.2623
2026-07-22T15:39:21.910,81.1587,20.506,24.1644
2026-07-22T15:39:21.924,81.1587,20.4864,24.1644
2026-07-22T15:39:21.924,81.1952,20.4472,24.1448
2026-07-22T15:39:21.957,81.1952,20.3885,24.1057
2026-07-22T15:39:21.957,81.2075,20.4668,24.1253
2026-07-22T15:39:21.964,81.2075,20.4276,24.1253
2026-07-22T15:39:21.972,81.2075,20.5255,24.1253
2026-07-22T15:39:21.972,81.2396,20.4472,24.0861
2026-07-22T15:39:21.989,81.2513,20.506,24.1253
2026-07-22T15:39:22.003,81.2536,20.5647,24.0469
2026-07-22T15:39:22.008,81.2536,20.4864,24.0665
2026-07-22T15:39:22.020,81.2536,20.4276,24.1253
2026-07-22T15:39:22.020,81.2536,20.4472,24.1253
2026-07-22T15:39:22.041,81.2864,20.3689,24.184
2026-07-22T15:39:22.053,81.2864,20.3101,24.1448
2026-07-22T15:39:22.064,81.3024,20.2906,24.1448
2026-07-22T15:39:22.067,81.3024,20.2906,24.1253
2026-07-22T15:39:22.083,81.3332,20.271,24.1057
2026-07-22T15:39:22.099,81.3332,20.271,24.0469
2026-07-22T15:39:22.099,81.3332,20.2906,24.0861
2026-07-22T15:39:22.115,81.3332,20.2514,24.0078
2026-07-22T15:39:22.115,81.3516,20.2514,23.9686
2026-07-22T15:39:22.141,81.3826,20.1731,23.9882
2026-07-22T15:39:22.141,81.3826,20.1535,23.9686
2026-07-22T15:39:22.146,81.3826,20.1339,24.0469
2026-07-22T15:39:22.165,81.3826,20.2122,24.0469
2026-07-22T15:39:22.182,81.4285,20.2514,24.0078
2026-07-22T15:39:22.182,81.4285,20.1927,24.0469
2026-07-22T15:39:22.196,81.4285,20.271,24.0078
2026-07-22T15:39:22.196,81.4285,20.1339,24.0469
2026-07-22T15:39:22.223,81.4738,20.1731,24.1448
2026-07-22T15:39:22.237,81.4738,20.1731,24.0469
2026-07-22T15:39:22.238,81.4738,20.1339,23.9882
2026-07-22T15:39:22.241,81.4738,20.0948,23.8707
2026-07-22T15:39:22.254,81.4885,20.0948,23.8315
2026-07-22T15:39:22.265,81.5235,20.036,23.9099
2026-07-22T15:39:22.281,81.5299,20.036,23.8707
2026-07-22T15:39:22.287,81.5349,20.0948,23.8707
2026-07-22T15:39:22.287,81.5389,20.0752,23.8511
2026-07-22T15:39:22.301,81.5419,20.0752,23.812
2026-07-22T15:39:22.301,81.5715,20.0164,23.8315
2026-07-22T15:39:22.331,81.5732,20.0164,23.8511
2026-07-22T15:39:22.335,81.5732,20.0556,23.8511
2026-07-22T15:39:22.348,81.5732,20.0752,23.9295
2026-07-22T15:39:22.352,81.5732,20.0164,23.8707
2026-07-22T15:39:22.371,81.6243,19.9773,23.9099
2026-07-22T15:39:22.371,81.6253,19.9185,23.8511
2026-07-22T15:39:22.386,81.629,19.8989,23.8511
2026-07-22T15:39:22.386,81.629,19.9773,23.8315
2026-07-22T15:39:22.403,81.629,19.8598,23.812
2026-07-22T15:39:22.418,81.6589,19.9577,23.7924
2026-07-22T15:39:22.418,81.6589,19.9577,23.8903
2026-07-22T15:39:22.437,81.6742,19.9773,23.8511
2026-07-22T15:39:22.442,81.6742,19.9969,23.8903
2026-07-22T15:39:22.442,81.7098,20.036,23.949
2026-07-22T15:39:22.455,81.7098,20.1339,23.9686
2026-07-22T15:39:22.472,81.7217,20.036,23.9686
2026-07-22T15:39:22.472,81.7292,20.0948,24.0469
2026-07-22T15:39:22.487,81.7353,19.9969,23.9882
2026-07-22T15:39:22.503,81.7536,19.9773,24.0078
2026-07-22T15:39:22.523,81.7705,20.036,23.9882
2026-07-22T15:39:22.523,81.7705,20.0556,24.0665
2026-07-22T15:39:22.523,81.7705,20.1143,24.2232
2026-07-22T15:39:22.548,81.7847,20.0164,24.0861
2026-07-22T15:39:22.551,81.816,20.0752,24.184
2026-07-22T15:39:22.567,81.816,20.0948,24.1448
2026-07-22T15:39:22.567,81.816,20.036,24.2427
2026-07-22T15:39:22.584,81.8293,20.0164,24.0861
2026-07-22T15:39:22.584,81.8324,20.0164,24.1644
2026-07-22T15:39:22.598,81.8656,19.9969,24.184
2026-07-22T15:39:22.625,81.8656,20.036,24.184
2026-07-22T15:39:22.625,81.8656,20.0556,24.2819
2026-07-22T15:39:22.629,81.8805,20.0752,24.2232
2026-07-22T15:39:22.645,81.8805,20.0948,24.3994
2026-07-22T15:39:22.645,81.9109,20.0948,24.3994
2026-07-22T15:39:22.668,81.9109,20.1927,24.3798
2026-07-22T15:39:22.676,81.9109,20.1143,24.3602
2026-07-22T15:39:22.693,81.9227,20.1143,24.3994
2026-07-22T15:39:22.694,81.9309,20.0556,24.4777
2026-07-22T15:39:22.694,81.9573,20.0752,24.3798
2026-07-22T15:39:22.715,81.9573,20.0752,24.4581
2026-07-22T15:39:22.724,81.9573,20.0948,24.4386
2026-07-22T15:39:22.733,81.9748,20.1731,24.5365
2026-07-22T15:39:22.746,81.9817,20.1143,24.556
2026-07-22T15:39:22.770,82.0049,20.0556,24.4386
2026-07-22T15:39:22.770,82.0049,19.9969,24.4581
2026-07-22T15:39:22.770,82.0049,20.0164,24.4386
2026-07-22T15:39:22.788,82.0207,19.9577,24.4581
2026-07-22T15:39:22.795,82.0293,19.9773,24.3798
2026-07-22T15:39:22.802,82.0621,20.036,24.3406
2026-07-22T15:39:22.818,82.0621,19.9577,24.3798
2026-07-22T15:39:22.818,82.068,19.9381,24.3015
2026-07-22T15:39:22.834,82.068,20.0164,24.3798
2026-07-22T15:39:22.842,82.068,20.036,24.3602
2026-07-22T15:39:22.849,82.0999,20.1143,24.419
2026-07-22T15:39:22.868,82.0999,20.0556,24.4777
2026-07-22T15:39:22.873,82.1155,20.1535,24.5756
2026-07-22T15:39:22.881,82.1155,20.1339,24.5952
2026-07-22T15:39:22.881,82.1549,20.0556,24.556
2026-07-22T15:39:22.913,82.1549,20.0556,24.5365
2026-07-22T15:39:22.913,82.1549,19.9773,24.5365
2026-07-22T15:39:22.913,82.1636,19.9773,24.419
2026-07-22T15:39:22.929,82.1636,20.0164,24.4777
2026-07-22T15:39:22.945,82.2,20.036,24.5169
2026-07-22T15:39:22.960,82.2,19.9773,24.419
2026-07-22T15:39:22.960,82.2,19.8989,24.3602
2026-07-22T15:39:22.977,82.2142,19.9185,24.3406
2026-07-22T15:39:22.977,82.2162,19.8989,24.4777
2026-07-22T15:39:22.992,82.2427,19.8989,24.3994
2026-07-22T15:39:23.012,82.2427,19.8794,24.4581
2026-07-22T15:39:23.013,82.2427,19.9381,24.4386
2026-07-22T15:39:23.025,82.2551,19.9773,24.419
2026-07-22T15:39:23.033,82.2825,19.9773,24.3994
2026-07-22T15:39:23.052,82.2923,19.8794,24.3994
2026-07-22T15:39:23.052,82.2933,19.8989,24.419
2026-07-22T15:39:23.068,82.2994,19.9381,24.3994
2026-07-22T15:39:23.071,82.3014,19.9381,24.4386
2026-07-22T15:39:23.096,82.3299,19.8989,24.4386
2026-07-22T15:39:23.096,82.3299,19.9969,24.4386
2026-07-22T15:39:23.106,82.3384,19.9969,24.4973
2026-07-22T15:39:23.114,82.3384,20.0164,24.3994
2026-07-22T15:39:23.126,82.3779,20.0164,24.3798
2026-07-22T15:39:23.135,82.382,19.9577,24.3798
2026-07-22T15:39:23.143,82.3877,19.8989,24.3798
2026-07-22T15:39:23.151,82.3898,19.8598,24.3994
2026-07-22T15:39:23.151,82.4222,19.9381,24.3798
2026-07-22T15:39:23.185,82.4298,19.8989,24.419
2026-07-22T15:39:23.187,82.4298,19.8989,24.5365
2026-07-22T15:39:23.199,82.433,19.9185,24.4777
2026-07-22T15:39:23.205,82.4388,19.8206,24.5756
2026-07-22T15:39:38.439,97.6888,19.1157,24.9868
2026-07-22T15:39:38.455,97.6888,19.1549,24.9868
2026-07-22T15:39:38.455,97.6888,19.1353,24.9672
2026-07-22T15:39:38.470,97.6888,19.1353,25.0064
2026-07-22T15:39:38.488,97.7203,19.2528,25.0847
2026-07-22T15:39:38.488,97.7203,19.2136,25.163
2026-07-22T15:39:38.502,97.7203,19.2919,25.163
2026-07-22T15:39:38.502,97.7361,19.2332,25.163
2026-07-22T15:39:38.519,97.7544,19.194,25.0456
2026-07-22T15:39:38.533,97.7544,19.1745,25.0064
2026-07-22T15:39:38.533,97.7687,19.1353,25.0651
2026-07-22T15:39:38.559,97.784,19.194,25.0064
2026-07-22T15:39:38.567,97.8003,19.1157,25.1435
2026-07-22T15:39:38.567,97.8003,19.1745,25.1435
2026-07-22T15:39:38.582,97.8003,19.1549,25.1435
2026-07-22T15:39:38.597,97.8324,19.2136,25.2414
2026-07-22T15:39:38.597,97.8324,19.3115,25.2805
2026-07-22T15:39:38.613,97.848,19.2724,25.3588
2026-07-22T15:39:38.613,97.848,19.2919,25.3784
2026-07-22T15:39:38.632,97.8644,19.3311,25.3588
2026-07-22T15:39:38.645,97.8799,19.194,25.4372
2026-07-22T15:39:38.645,97.881,19.194,25.398
2026-07-22T15:39:38.661,97.9119,19.2528,25.4372
2026-07-22T15:39:38.668,97.9119,19.3507,25.3784
2026-07-22T15:39:38.677,97.9191,19.3115,25.4176
2026-07-22T15:39:38.694,97.9191,19.3115,25.5155
2026-07-22T15:39:38.709,97.9434,19.2528,25.4568
2026-07-22T15:39:38.709,97.9434,19.2724,25.5742
2026-07-22T15:39:38.709,97.9434,19.2724,25.398
2026-07-22T15:39:38.732,97.9552,19.194,25.3393
2026-07-22T15:39:38.756,97.9774,19.194,25.3001
2026-07-22T15:39:38.756,97.9774,19.1549,25.3588
2026-07-22T15:39:38.756,97.991,19.1549,25.3784
2026-07-22T15:39:38.772,98.0195,19.2332,25.3588
2026-07-22T15:39:38.790,98.0227,19.1745,25.4568
2026-07-22T15:39:38.790,98.0227,19.2332,25.3588
2026-07-22T15:39:38.804,98.0227,19.2332,25.4568
2026-07-22T15:39:38.804,98.0553,19.2332,25.398
2026-07-22T15:39:38.820,98.0553,19.3311,25.5547
2026-07-22T15:39:38.836,98.0553,19.3507,25.6721
2026-07-22T15:39:38.836,98.0553,19.3507,25.5938
2026-07-22T15:39:38.851,98.0873,19.3311,25.6526
2026-07-22T15:39:38.868,98.0873,19.3311,25.5742
2026-07-22T15:39:38.868,98.1035,19.3507,25.4959
2026-07-22T15:39:38.883,98.1345,19.3115,25.4763
2026-07-22T15:39:38.900,98.1345,19.3703,25.3588
2026-07-22T15:39:38.900,98.1345,19.3115,25.3784
2026-07-22T15:39:38.916,98.1345,19.1745,25.3393
2026-07-22T15:39:38.916,98.1658,19.2724,25.4372
2026-07-22T15:39:38.933,98.1678,19.2332,25.4176
2026-07-22T15:39:38.933,98.1698,19.2528,25.3784
2026-07-22T15:39:38.948,98.1906,19.194,25.3588
2026-07-22T15:39:38.976,98.2065,19.0961,25.4372
2026-07-22T15:39:38.978,98.2088,19.1157,25.398
2026-07-22T15:39:38.988,98.2146,19.1745,25.4372
2026-07-22T15:39:38.988,98.2387,19.3311,25.5351
2026-07-22T15:39:39.004,98.2387,19.3115,25.5351
2026-07-22T15:39:39.019,98.2387,19.3115,25.5351
2026-07-22T15:39:39.028,98.2545,19.3507,25.5547
2026-07-22T15:39:39.035,98.2815,19.2919,25.5351
2026-07-22T15:39:39.035,98.2834,19.2528,25.5742
2026-07-22T15:39:39.052,98.2865,19.2136,25.5938
2026-07-22T15:39:39.067,98.2895,19.2136,25.5547
2026-07-22T15:39:39.080,98.3073,19.2136,25.5351
2026-07-22T15:39:39.091,98.3073,19.2136,25.6721
2026-07-22T15:39:39.095,98.3231,19.2919,25.6917
2026-07-22T15:39:39.104,98.3231,19.2724,25.7505
2026-07-22T15:39:39.120,98.3558,19.2724,25.7505
2026-07-22T15:39:39.120,98.3558,19.2332,25.7505
2026-07-22T15:39:39.136,98.3558,19.1549,25.6526
2026-07-22T15:39:39.136,98.3713,19.0766,25.6134
2026-07-22T15:39:39.168,98.3911,19.0766,25.5742
2026-07-22T15:39:39.168,98.3911,19.1353,25.4959
2026-07-22T15:39:39.169,98.3911,19.1549,25.4959
2026-07-22T15:39:39.186,98.4069,19.1549,25.4763
2026-07-22T15:39:39.204,98.4231,19.1549,25.4959
2026-07-22T15:39:39.204,98.4231,19.1157,25.5547
2026-07-22T15:39:39.204,98.4391,19.0961,25.4176
2026-07-22T15:39:39.220,98.4559,18.9982,25.398
2026-07-22T15:39:39.236,98.4706,19.0374,25.3197
2026-07-22T15:39:39.236,98.4706,18.9982,25.2414
2026-07-22T15:39:39.252,98.4706,18.8807,25.2805
2026-07-22T15:39:39.269,98.5026,18.9199,25.163
2026-07-22T15:39:39.269,98.5026,18.9003,25.2022
2026-07-22T15:39:39.284,98.5026,18.9787,25.2414
2026-07-22T15:39:39.284,98.5221,18.9982,25.2022
2026-07-22T15:39:39.301,98.5342,18.9787,25.3197
2026-07-22T15:39:39.316,98.5342,18.9787,25.3588
2026-07-22T15:39:39.331,98.5562,19.0374,25.3197
2026-07-22T15:39:39.335,98.5562,19.057,25.3001
2026-07-22T15:39:39.335,98.5818,18.9982,25.3588
2026-07-22T15:39:39.347,98.5818,18.9591,25.3001
2026-07-22T15:39:39.363,98.5818,18.9982,25.3588
2026-07-22T15:39:39.369,98.6133,19.0766,25.3197
2026-07-22T15:39:39.380,98.6133,19.057,25.4176
2026-07-22T15:39:39.395,98.6224,18.9982,25.3588
2026-07-22T15:39:39.395,98.6291,19.0178,25.4372
2026-07-22T15:39:39.411,98.6449,19.0374,25.4372
2026-07-22T15:39:39.426,98.6566,19.0374,25.3588
2026-07-22T15:39:39.435,98.6649,19.0374,25.4176
2026-07-22T15:39:39.442,98.6649,19.0178,25.398
2026-07-22T15:39:39.458,98.6934,19.0374,25.4568
2026-07-22T15:39:39.458,98.6934,19.0961,25.4568
2026-07-22T15:39:39.478,98.6934,19.0178,25.5155
2026-07-22T15:39:39.478,98.709,19.0766,25.4763
2026-07-22T15:39:39.490,98.7249,19.057,25.3784
2026-07-22T15:39:39.506,98.7407,18.9787,25.4568
2026-07-22T15:39:39.506,98.7483,18.8807,25.4176
2026-07-22T15:39:39.522,98.7483,18.8807,25.4372
2026-07-22T15:39:39.522,98.7726,18.8612,25.3588
2026-07-22T15:39:39.538,98.7726,18.9003,25.3001
2026-07-22T15:39:39.554,98.7726,18.9199,25.3001
2026-07-22T15:39:39.561,98.7884,18.8807,25.3393
2026-07-22T15:39:39.570,98.8046,18.9199,25.3001
2026-07-22T15:39:39.586,98.8046,18.8416,25.2609
2026-07-22T15:39:39.601,98.8266,18.8416,25.3197
2026-07-22T15:39:39.601,98.8266,18.9003,25.3393
2026-07-22T15:39:39.618,98.8532,18.8807,25.3784
2026-07-22T15:39:39.618,98.8573,18.9591,25.398
2026-07-22T15:39:39.640,98.8573,18.9003,25.4176
2026-07-22T15:39:39.640,98.8847,18.8807,25.5155
2026-07-22T15:39:39.649,98.8847,18.7828,25.4176
2026-07-22T15:39:39.670,98.8847,18.8024,25.398
2026-07-22T15:39:39.670,98.9009,18.7241,25.4176
2026-07-22T15:39:39.681,98.9241,18.7828,25.3588
2026-07-22T15:39:39.698,98.9241,18.8024,25.3588
2026-07-22T15:39:39.698,98.9318,18.8612,25.3784
2026-07-22T15:39:39.714,98.9318,18.8612,25.3784
2026-07-22T15:39:39.729,98.9658,18.8807,25.398
2026-07-22T15:39:39.736,98.9658,18.8807,25.4372
2026-07-22T15:39:39.745,98.9658,18.9199,25.398
2026-07-22T15:39:39.745,98.9658,18.8416,25.4568
2026-07-22T15:39:39.770,98.9955,18.9199,25.4568
2026-07-22T15:39:39.770,98.9955,18.9199,25.4763
2026-07-22T15:39:39.779,99.0112,18.9395,25.4763
2026-07-22T15:39:39.795,99.027,18.8416,25.4568
2026-07-22T15:39:39.808,99.0428,18.822,25.5155
2026-07-22T15:39:39.808,99.0428,18.8612,25.4763
2026-07-22T15:39:39.824,99.0428,18.8807,25.5351
2026-07-22T15:39:39.838,99.0744,18.8807,25.6134
2026-07-22T15:39:39.840,99.0744,18.9003,25.6721
2026-07-22T15:39:39.856,99.0744,18.8612,25.7309
2026-07-22T15:39:39.856,99.0902,18.8416,25.7113
2026-07-22T15:39:39.872,99.1075,18.8612,25.7309
2026-07-22T15:39:39.887,99.1248,18.8612,25.5938
2026-07-22T15:39:39.887,99.1248,18.8807,25.5547
2026-07-22T15:39:39.903,99.1248,18.822,25.4959
2026-07-22T15:39:39.903,99.1574,18.822,25.4763
2026-07-22T15:39:39.921,99.1574,18.7241,25.4959
2026-07-22T15:39:39.936,99.1691,18.8024,25.5742
2026-07-22T15:39:39.938,99.1849,18.8416,25.633
2026-07-22T15:39:39.966,99.2011,18.7828,25.6526
2026-07-22T15:39:39.966,99.2011,18.8612,25.6721
2026-07-22T15:39:39.970,99.2011,18.7437,25.7505
2026-07-22T15:39:39.982,99.2011,18.8024,25.7896
2026-07-22T15:39:39.998,99.2337,18.7045,25.8288
2026-07-22T15:39:39.998,99.2337,18.7633,25.7896
2026-07-22T15:39:40.014,99.2337,18.7241,25.7309
2026-07-22T15:39:40.014,99.2726,18.6849,25.7896
2026-07-22T15:39:40.038,99.2767,18.6849,25.7113
2026-07-22T15:39:40.046,99.2777,18.6654,25.6526
2026-07-22T15:39:40.047,99.2807,18.7437,25.6721
2026-07-22T15:39:40.071,99.3075,18.7045,25.6917
2026-07-22T15:39:40.083,99.3075,18.6849,25.6134
2026-07-22T15:39:40.088,99.3075,18.7241,25.633
2026-07-22T15:39:40.097,99.3075,18.7241,25.5938
2026-07-22T15:39:40.105,99.3391,18.7241,25.6526
2026-07-22T15:39:40.105,99.3391,18.7045,25.6134
2026-07-22T15:39:40.121,99.3391,18.7437,25.6721
2026-07-22T15:39:40.121,99.3793,18.6654,25.6721
2026-07-22T15:39:40.152,99.3843,18.6066,25.7896
2026-07-22T15:39:40.152,99.3873,18.7045,25.7309
2026-07-22T15:39:40.152,99.3899,18.7045,25.77
2026-07-22T15:39:40.189,99.4087,18.6654,25.6917
2026-07-22T15:39:40.189,99.4087,18.6849,25.6721
2026-07-22T15:39:40.202,99.4244,18.5675,25.7113
2026-07-22T15:39:40.207,99.426,18.6654,25.7505
2026-07-22T15:39:40.214,99.4401,18.6066,25.7309
2026-07-22T15:39:40.222,99.4401,18.6458,25.7896
2026-07-22T15:39:40.237,99.4581,18.587,25.7896
2026-07-22T15:39:40.253,99.4876,18.6262,25.7309
2026-07-22T15:39:40.253,99.488,18.587,25.7505
2026-07-22T15:39:40.253,99.4921,18.6066,25.7896
2026-07-22T15:39:40.271,99.4921,18.6262,25.7505
2026-07-22T15:39:40.286,99.5265,18.6654,25.7896
2026-07-22T15:39:40.286,99.5265,18.6262,25.8288
2026-07-22T15:39:40.304,99.5265,18.6458,25.8092
2026-07-22T15:39:40.321,99.5581,18.6458,25.7113
2026-07-22T15:39:40.321,99.5581,18.7045,25.6917
2026-07-22T15:39:40.337,99.5581,18.6262,25.6721
2026-07-22T15:39:40.340,99.5764,18.6262,25.6526
2026-07-22T15:39:40.353,99.5887,18.5283,25.633
2026-07-22T15:39:40.353,99.5887,18.5479,25.7113
2026-07-22T15:39:40.371,99.6038,18.5479,25.5547
2026-07-22T15:39:40.387,99.6038,18.5479,25.5742
2026-07-22T15:39:40.401,99.6353,18.5675,25.4959
2026-07-22T15:39:40.402,99.6353,18.587,25.5155
2026-07-22T15:39:40.417,99.6353,18.5283,25.4763
2026-07-22T15:39:40.417,99.6353,18.4696,25.3784
2026-07-22T15:39:40.433,99.6668,18.4891,25.4763
2026-07-22T15:39:40.448,99.6668,18.6066,25.4568
2026-07-22T15:39:40.448,99.6668,18.6066,25.4372
2026-07-22T15:39:40.464,99.6987,18.6849,25.4372
2026-07-22T15:39:40.471,99.6987,18.7241,25.5547
2026-07-22T15:39:40.480,99.6987,18.7437,25.5547
2026-07-22T15:39:40.497,99.7302,18.7045,25.633
2026-07-22T15:39:40.497,99.7302,18.7241,25.633
2026-07-22T15:39:40.512,99.7302,18.7045,25.633
2026-07-22T15:39:40.512,99.7462,18.8024,25.7309
2026-07-22T15:39:40.543,99.7624,18.7828,25.8092
2026-07-22T15:39:40.543,99.7624,18.8807,25.9071
2026-07-22T15:39:40.559,99.7624,18.8807,25.8288
2026-07-22T15:39:40.575,99.7942,18.7828,25.7896
2026-07-22T15:39:40.575,99.7942,18.8024,25.7896
2026-07-22T15:39:40.591,99.8116,18.6849,25.7113
2026-07-22T15:39:40.591,99.8277,18.6654,25.6917
2026-07-22T15:39:40.607,99.8277,18.6654,25.5351
2026-07-22T15:39:40.607,99.8418,18.6066,25.7113
2026-07-22T15:39:40.625,99.8584,18.5675,25.5938
2026-07-22T15:39:40.641,99.8584,18.5479,25.5351
2026-07-22T15:39:40.641,99.8745,18.5283,25.5155
2026-07-22T15:39:40.655,99.8745,18.5087,25.5351
2026-07-22T15:39:40.671,99.9079,18.6262,25.5742
2026-07-22T15:39:40.671,99.9079,18.587,25.4176
2026-07-22T15:39:40.671,99.9079,18.587,25.4568
2026-07-22T15:39:40.703,99.9383,18.5479,25.4959
2026-07-22T15:39:40.703,99.9383,18.7241,25.5742
2026-07-22T15:39:40.719,99.9383,18.7241,25.6721
2026-07-22T15:39:40.721,99.9545,18.8612,25.7309
2026-07-22T15:39:40.740,99.9702,18.6654,25.7505
2026-07-22T15:39:40.751,99.9702,18.7633,25.7505
2026-07-22T15:39:40.751,99.986,18.587,25.7505
2026-07-22T15:39:40.767,99.986,18.7045,25.7113
2026-07-22T15:39:40.772,100.0178,18.6849,25.7505
2026-07-22T15:39:40.783,100.0178,18.6654,25.7309
2026-07-22T15:39:40.799,100.0178,18.6849,25.6721
2026-07-22T15:39:40.815,100.0495,18.6066,25.633
2026-07-22T15:39:40.815,100.0495,18.7241,25.633
2026-07-22T15:39:40.815,100.0495,18.6458,25.6721
2026-07-22T15:39:40.831,100.0587,18.7045,25.7113
2026-07-22T15:39:40.847,100.0812,18.6262,25.7113
2026-07-22T15:39:40.847,100.0812,18.6654,25.6526
2026-07-22T15:39:40.862,100.0812,18.6458,25.6526
2026-07-22T15:39:40.878,100.1132,18.6654,25.77
2026-07-22T15:39:40.894,100.1132,18.7633,25.8092
2026-07-22T15:39:40.894,100.1132,18.7828,25.8484
2026-07-22T15:39:40.894,100.1317,18.8416,25.8288
2026-07-22T15:39:40.910,100.1464,18.7828,25.9267
2026-07-22T15:39:40.926,100.1609,18.9003,25.9267
2026-07-22T15:39:40.926,100.1609,18.8807,25.9267
2026-07-22T15:39:40.945,100.1609,18.8807,25.9854
2026-07-22T15:39:40.958,100.1767,18.9003,26.0246
2026-07-22T15:39:40.959,100.1925,18.8807,26.1029
2026-07-22T15:39:40.974,100.1925,18.9003,26.0833
2026-07-22T15:39:40.974,100.2085,18.8416,26.2204
2026-07-22T15:39:40.990,100.2246,18.8612,26.2204
2026-07-22T15:39:41.005,100.2298,18.8807,26.2204
2026-07-22T15:39:41.022,100.2569,18.9003,26.2987
2026-07-22T15:39:41.022,100.259,18.9199,26.2987
2026-07-22T15:39:41.038,100.259,18.9199,26.3575
2026-07-22T15:39:41.043,100.259,18.9395,26.3966
2026-07-22T15:39:41.053,100.288,18.9003,26.1812
2026-07-22T15:39:41.053,100.288,18.9199,26.1812
2026-07-22T15:39:41.072,100.288,18.9199,26.1812
2026-07-22T15:39:41.101,100.3202,18.8612,26.2987
2026-07-22T15:39:41.101,100.3202,18.9199,26.3379
2026-07-22T15:39:41.101,100.3304,18.9591,26.3575
2026-07-22T15:39:41.117,100.336,18.9199,26.4162
2026-07-22T15:39:41.133,100.3588,19.0178,26.3966
2026-07-22T15:39:41.133,100.3588,18.9199,26.5141
2026-07-22T15:39:41.149,100.3674,18.9199,26.5337
2026-07-22T15:39:41.149,100.3992,18.9591,26.5337
2026-07-22T15:39:41.165,100.4022,18.9199,26.5729
2026-07-22T15:39:41.172,100.4063,18.8807,26.5729
2026-07-22T15:39:41.180,100.4089,18.9199,26.5729
2026-07-22T15:39:41.197,100.4308,18.8612,26.612
2026-07-22T15:39:41.207,100.4308,18.9395,26.612
2026-07-22T15:39:41.220,100.4404,18.9591,26.5141
2026-07-22T15:39:41.222,100.4404,18.9591,26.5337
2026-07-22T15:39:41.244,100.4721,18.8612,26.4358
2026-07-22T15:39:41.244,100.4721,18.8416,26.4162
2026-07-22T15:39:41.253,100.4721,18.7633,26.4162
2026-07-22T15:39:41.272,100.5101,18.822,26.3575
2026-07-22T15:39:41.272,100.5147,18.7828,26.2987
2026-07-22T15:39:41.285,100.5188,18.822,26.2791
2026-07-22T15:39:41.285,100.5229,18.7241,26.2791
2026-07-22T15:39:41.309,100.5409,18.8024,26.1421
2026-07-22T15:39:41.318,100.5409,18.6458,26.24
2026-07-22T15:39:41.331,100.5409,18.6849,26.0833
2026-07-22T15:39:41.337,100.5569,18.6458,26.0442
2026-07-22T15:39:41.354,100.573,18.7241,26.0638
2026-07-22T15:39:41.354,100.573,18.7045,26.1812
2026-07-22T15:39:41.354,100.5889,18.7437,26.0638
2026-07-22T15:39:41.372,100.6099,18.7045,26.0442
2026-07-22T15:39:41.386,100.6099,18.6654,26.0833
2026-07-22T15:39:41.386,100.6099,18.7045,25.9659
2026-07-22T15:39:41.402,100.6416,18.6458,26.0638
2026-07-22T15:39:41.423,100.6416,18.587,26.0442
2026-07-22T15:39:41.423,100.6416,18.7633,26.0833
2026-07-22T15:39:41.436,100.6416,18.7045,26.0638
2026-07-22T15:39:41.444,100.6731,18.7045,26.005
2026-07-22T15:39:41.455,100.6731,18.7241,26.1029
2026-07-22T15:39:41.455,100.6889,18.7241,26.0638
2026-07-22T15:39:41.472,100.7057,18.7633,26.0833
2026-07-22T15:39:41.486,100.7057,18.7241,26.0833
2026-07-22T15:39:41.486,100.7208,18.8024,25.9854
2026-07-22T15:39:41.502,100.7365,18.6458,25.9854
2026-07-22T15:39:41.519,100.7527,18.6654,25.9854
2026-07-22T15:39:41.519,100.7527,18.6849,26.0442
2026-07-22T15:39:41.534,100.7589,18.6066,26.0638
2026-07-22T15:39:41.550,100.7843,18.7241,26.1812
2026-07-22T15:39:41.550,100.7843,18.6066,26.0638
2026-07-22T15:39:41.566,100.7843,18.5479,26.0638
2026-07-22T15:39:41.572,100.7843,18.4696,26.0246
2026-07-22T15:39:41.582,100.8172,18.5087,26.1225
2026-07-22T15:39:41.597,100.8172,18.4891,25.9267
2026-07-22T15:39:41.597,100.8172,18.5479,25.8875
2026-07-22T15:39:41.615,100.848,18.5283,26.005
2026-07-22T15:39:41.615,100.848,18.6262,26.005
2026-07-22T15:39:41.630,100.8591,18.7045,26.0638
2026-07-22T15:39:41.645,100.8806,18.6654,26.0442
2026-07-22T15:39:41.661,100.8806,18.587,26.0442
2026-07-22T15:39:41.661,100.8806,18.587,25.9463
2026-07-22T15:39:41.677,100.8957,18.6654,26.0246
2026-07-22T15:39:41.694,100.9134,18.6654,26.1421
2026-07-22T15:39:41.694,100.9134,18.7437,26.1421
2026-07-22T15:39:41.709,100.9134,18.6262,26.1617
2026-07-22T15:39:41.709,100.945,18.6458,26.2596
2026-07-22T15:39:41.726,100.945,18.6066,26.1225
2026-07-22T15:39:41.726,100.945,18.4696,26.1617
2026-07-22T15:39:41.748,100.9757,18.5675,26.1029
2026-07-22T15:39:41.758,100.9757,18.4891,26.0442
2026-07-22T15:39:41.758,100.9915,18.6262,26.0246
2026-07-22T15:39:41.775,101.0073,18.6066,26.1029
2026-07-22T15:39:41.789,101.0073,18.6849,26.1421
2026-07-22T15:39:41.789,101.023,18.6066,26.1225
2026-07-22T15:39:41.808,101.023,18.6066,26.1812
2026-07-22T15:39:41.808,101.0389,18.6066,26.1421
2026-07-22T15:39:41.820,101.0546,18.5479,26.1225
2026-07-22T15:39:41.836,101.0546,18.5283,25.9659
2026-07-22T15:39:41.846,101.0863,18.5283,25.9854
2026-07-22T15:39:41.852,101.0863,18.5087,25.9854
2026-07-22T15:39:41.868,101.0863,18.5479,26.005
2026-07-22T15:39:41.872,101.1021,18.587,26.0638
2026-07-22T15:39:41.883,101.1179,18.5675,26.0246
2026-07-22T15:39:41.883,101.1179,18.4891,26.0442
2026-07-22T15:39:41.899,101.1338,18.5087,25.9463
2026-07-22T15:39:41.915,101.1338,18.4108,25.9463
2026-07-22T15:39:41.931,101.1667,18.4108,25.9267
2026-07-22T15:39:41.931,101.1667,18.45,25.9854
2026-07-22T15:39:41.947,101.1667,18.5087,26.0246
2026-07-22T15:39:41.963,101.1976,18.5479,26.0638
2026-07-22T15:39:41.979,101.1976,18.4891,26.0638
2026-07-22T15:39:41.979,101.1976,18.4696,26.1421
2026-07-22T15:39:41.980,101.2134,18.5479,26.0833
2026-07-22T15:39:41.995,101.2134,18.5087,26.0833
2026-07-22T15:39:42.011,101.2345,18.5675,26.1029
2026-07-22T15:39:42.011,101.2451,18.4891,26.1225
2026-07-22T15:39:42.026,101.2451,18.5087,26.0638
2026-07-22T15:39:42.026,101.2611,18.4891,25.9854
2026-07-22T15:39:42.047,101.2778,18.4696,25.9659
2026-07-22T15:39:42.058,101.2778,18.45,25.9463
2026-07-22T15:39:42.058,101.2778,18.4304,26.005
2026-07-22T15:39:42.074,101.3097,18.3129,25.9463
2026-07-22T15:39:42.074,101.3097,18.3521,26.0442
2026-07-22T15:39:42.091,101.3097,18.3521,25.9659
2026-07-22T15:39:42.106,101.3412,18.3716,25.9267
2026-07-22T15:39:42.106,101.3412,18.4304,26.005
2026-07-22T15:39:42.123,101.3412,18.4304,26.0442
2026-07-22T15:39:42.139,101.3732,18.45,26.005
2026-07-22T15:39:42.154,101.3732,18.4696,26.0833
2026-07-22T15:39:42.154,101.3732,18.3912,26.0833
2026-07-22T15:39:42.154,101.389,18.3716,26.1812
2026-07-22T15:39:42.173,101.4048,18.3716,26.0833
2026-07-22T15:39:42.186,101.4048,18.3716,26.005
2026-07-22T15:39:42.186,101.4048,18.3912,26.0442
2026-07-22T15:39:42.202,101.4206,18.3325,25.9659
2026-07-22T15:39:42.218,101.4378,18.3129,26.0638
2026-07-22T15:39:42.218,101.4378,18.2933,25.9659
2026-07-22T15:39:42.234,101.4529,18.2542,26.005
2026-07-22T15:39:42.248,101.4688,18.3912,26.0246
2026-07-22T15:39:42.251,101.4688,18.3912,26.0638
2026-07-22T15:39:42.266,101.4845,18.4304,26.0833
2026-07-22T15:39:42.282,101.5089,18.3521,26.0246
2026-07-22T15:39:42.282,101.5089,18.3325,25.9659
2026-07-22T15:39:42.297,101.5171,18.3129,25.8875
2026-07-22T15:39:42.317,101.5407,18.2542,25.8875
2026-07-22T15:39:42.321,101.5407,18.2346,25.8875
2026-07-22T15:39:42.328,101.5407,18.1954,25.8679
2026-07-22T15:39:42.338,101.5723,18.1954,25.9071
2026-07-22T15:39:42.349,101.5723,18.1563,25.9071
2026-07-22T15:39:42.354,101.5723,18.1171,25.8679
2026-07-22T15:39:42.373,101.6082,18.0779,25.8875
2026-07-22T15:39:42.373,101.6082,18.0388,25.9463
2026-07-22T15:39:42.385,101.6082,18.1367,26.0246
2026-07-22T15:39:42.385,101.6082,18.1367,25.9267
2026-07-22T15:39:42.417,101.6452,18.0779,26.0246
2026-07-22T15:39:42.417,101.6473,18.1367,26.005
2026-07-22T15:39:42.421,101.6503,18.0584,26.005
2026-07-22T15:39:42.453,101.674,18.1758,26.0442
2026-07-22T15:39:42.454,101.674,18.2737,25.9854
2026-07-22T15:39:42.460,101.674,18.1758,25.9854
2026-07-22T15:39:42.467,101.674,18.1954,25.9854
2026-07-22T15:39:42.474,101.7061,18.1367,26.0246
2026-07-22T15:39:42.487,101.7061,18.0975,26.005
2026-07-22T15:39:42.487,101.7061,18.1171,25.9267
2026-07-22T15:39:42.503,101.743,18.1758,26.0638
2026-07-22T15:39:42.519,101.743,18.0779,26.0638
2026-07-22T15:39:42.519,101.743,18.1563,26.1421
2026-07-22T15:39:42.540,101.7749,18.1758,26.0833
2026-07-22T15:39:42.549,101.7749,18.1367,26.0246
2026-07-22T15:39:42.556,101.7749,18.1758,26.0246
2026-07-22T15:39:42.556,101.7909,18.0584,26.0246
2026-07-22T15:39:42.574,101.8068,18.0975,26.0833
2026-07-22T15:39:42.588,101.8068,18.1367,26.0246
2026-07-22T15:39:42.588,101.8227,18.1367,25.9854
2026-07-22T15:39:42.604,101.8385,18.1563,26.1225
2026-07-22T15:39:42.620,101.8385,18.1563,26.0442
2026-07-22T15:39:42.620,101.8552,18.1758,26.005
2026-07-22T15:39:42.636,101.8583,18.1563,26.005
2026-07-22T15:39:42.636,101.8713,18.2346,26.0638
2026-07-22T15:39:42.651,101.8869,18.2346,26.1029
2026-07-22T15:39:42.671,101.8869,18.2737,26.1421
2026-07-22T15:39:42.674,101.8869,18.2542,26.2596
2026-07-22T15:39:42.684,101.9253,18.2542,26.2987
2026-07-22T15:39:42.684,101.9253,18.3325,26.3575
2026-07-22T15:39:42.700,101.9346,18.3716,26.4162
2026-07-22T15:39:42.717,101.9518,18.3521,26.4554
2026-07-22T15:39:42.717,101.9614,18.4108,26.5337
2026-07-22T15:39:42.738,101.968,18.45,26.5924
2026-07-22T15:39:42.748,101.968,18.45,26.612
2026-07-22T15:39:42.765,101.9995,18.4891,26.5533
2026-07-22T15:39:42.765,101.9995,18.4108,26.5337
2026-07-22T15:39:42.779,101.9995,18.4304,26.4749
2026-07-22T15:39:42.781,101.9995,18.3912,26.5141
2026-07-22T15:39:42.797,102.0301,18.4108,26.5337
2026-07-22T15:39:42.797,102.0378,18.3912,26.4945
2026-07-22T15:39:42.812,102.0378,18.3521,26.4945
2026-07-22T15:39:42.843,102.0702,18.4304,26.4554
2026-07-22T15:39:42.843,102.0702,18.3521,26.4749
2026-07-22T15:39:42.851,102.0702,18.3716,26.5141
2026-07-22T15:39:42.851,102.0772,18.3716,26.3575
2026-07-22T15:39:42.859,102.1087,18.3325,26.3379
2026-07-22T15:39:42.879,102.1119,18.3325,26.3379
2026-07-22T15:39:42.890,102.1149,18.3325,26.3575
2026-07-22T15:39:42.890,102.1405,18.3129,26.5337
2026-07-22T15:39:42.909,102.1405,18.4304,26.5337
2026-07-22T15:39:42.909,102.1405,18.45,26.5924
2026-07-22T15:39:42.928,102.1564,18.3716,26.5533
2026-07-22T15:39:42.937,102.1726,18.3716,26.5337
2026-07-22T15:39:42.953,102.1726,18.2737,26.5533
2026-07-22T15:39:42.953,102.1885,18.3129,26.5337
2026-07-22T15:39:42.953,102.1885,18.2933,26.5337
2026-07-22T15:39:42.975,102.2195,18.2933,26.4554
2026-07-22T15:39:42.986,102.2195,18.2933,26.4554
2026-07-22T15:39:42.986,102.2195,18.215,26.5337
2026-07-22T15:39:43.002,102.2195,18.2933,26.4749
2026-07-22T15:39:43.017,102.262,18.4304,26.4945
2026-07-22T15:39:43.017,102.262,18.3521,26.5729
2026-07-22T15:39:43.032,102.2671,18.3912,26.6316
2026-07-22T15:39:43.049,102.2671,18.2737,26.6316
2026-07-22T15:39:43.052,102.3013,18.3129,26.6708
2026-07-22T15:39:43.064,102.3025,18.2933,26.5533
2026-07-22T15:39:43.075,102.3025,18.3129,26.5533
2026-07-22T15:39:43.080,102.3394,18.3129,26.4945
2026-07-22T15:39:43.096,102.3466,18.1954,26.4945
2026-07-22T15:39:43.096,102.3466,18.2542,26.3966
2026-07-22T15:39:43.115,102.3466,18.1758,26.377
2026-07-22T15:39:43.115,102.3466,18.1954,26.4358
2026-07-22T15:39:43.128,102.3782,18.3129,26.4749
2026-07-22T15:39:43.152,102.3782,18.4108,26.5337
2026-07-22T15:39:43.160,102.3782,18.3716,26.5729
2026-07-22T15:39:43.160,102.3782,18.3521,26.5533
2026-07-22T15:39:43.177,102.4103,18.2346,26.5924
2026-07-22T15:39:43.177,102.4103,18.2933,26.5729
2026-07-22T15:39:43.191,102.4103,18.3521,26.6512
2026-07-22T15:39:43.207,102.4418,18.3129,26.6512
2026-07-22T15:39:43.223,102.4568,18.3325,26.6512
2026-07-22T15:39:43.223,102.4583,18.2737,26.6903
2026-07-22T15:39:43.239,102.4624,18.2737,26.7295
2026-07-22T15:39:43.239,102.49,18.2737,26.7099
2026-07-22T15:39:43.255,102.49,18.2933,26.6512
2026-07-22T15:39:43.271,102.49,18.1954,26.6316
2026-07-22T15:39:43.275,102.49,18.1758,26.5337
2026-07-22T15:39:43.287,102.5317,18.0584,26.5141
2026-07-22T15:39:43.303,102.5337,18.1563,26.4554
2026-07-22T15:39:43.303,102.5358,18.1563,26.5337
2026-07-22T15:39:43.319,102.54,18.1563,26.4749
2026-07-22T15:39:43.319,102.5706,18.1563,26.377
2026-07-22T15:39:43.341,102.5706,18.0779,26.377
2026-07-22T15:39:43.353,102.5706,18.1367,26.377
2026-07-22T15:39:43.353,102.6018,18.1171,26.3183
2026-07-22T15:39:43.376,102.6018,18.1171,26.3575
2026-07-22T15:39:43.376,102.6018,18.1563,26.4162
2026-07-22T15:39:43.384,102.6018,18.1758,26.5141
2026-07-22T15:39:43.384,102.6422,18.1367,26.4749
2026-07-22T15:39:43.415,102.6422,18.1758,26.4749
2026-07-22T15:39:43.415,102.6422,18.215,26.4945
2026-07-22T15:39:43.431,102.6422,18.1758,26.4554
2026-07-22T15:39:43.442,102.6732,18.1954,26.5337
2026-07-22T15:39:43.453,102.6732,18.2346,26.5729
2026-07-22T15:39:43.455,102.6732,18.2933,26.6316
2026-07-22T15:39:43.455,102.7055,18.2542,26.612
2026-07-22T15:39:43.486,102.7055,18.3129,26.612
2026-07-22T15:39:43.486,102.7055,18.2933,26.6316
2026-07-22T15:39:43.486,102.7249,18.2933,26.5533
