wall_time,elapsed_s,F1_N,F2_N
2026-07-22T15:33:32.596,0.0928,6.9561,8.2061
2026-07-22T15:33:32.614,0.0997,6.9756,8.1474
2026-07-22T15:33:32.628,0.1242,6.9756,8.1474
2026-07-22T15:33:32.629,0.1354,6.9952,8.1278
2026-07-22T15:33:32.646,0.1419,6.9561,8.1865
2026-07-22T15:33:32.662,0.1498,7.0735,8.1669
2026-07-22T15:33:32.662,0.1604,7.0344,8.2257
2026-07-22T15:33:32.662,0.1798,7.0735,8.1865
2026-07-22T15:33:32.686,0.2032,7.1127,8.1865
2026-07-22T15:33:32.692,0.2246,7.0344,8.1278
2026-07-22T15:33:32.692,0.2516,7.0735,8.1082
2026-07-22T15:33:32.707,0.2748,6.9952,8.1474
2026-07-22T15:33:32.723,0.3014,7.0148,8.1082
2026-07-22T15:33:32.729,0.3143,7.054,8.1474
2026-07-22T15:33:32.739,0.325,6.9756,8.1474
2026-07-22T15:33:32.762,0.3387,7.0344,8.1669
2026-07-22T15:33:32.762,0.3534,6.9756,8.0886
2026-07-22T15:33:32.770,0.3694,7.0148,8.2061
2026-07-22T15:33:32.786,0.3694,6.9561,8.1278
2026-07-22T15:33:32.797,0.3884,7.0735,8.1082
2026-07-22T15:33:32.804,0.3903,6.9952,8.1278
2026-07-22T15:33:32.830,0.3976,7.0735,8.1474
2026-07-22T15:33:32.850,0.4017,7.1323,8.1865
2026-07-22T15:33:32.850,0.4017,7.1323,8.1669
2026-07-22T15:33:32.850,0.4017,7.054,8.2453
2026-07-22T15:33:32.850,0.4017,7.1127,8.1669
2026-07-22T15:33:32.865,0.405,7.0931,8.1865
2026-07-22T15:33:32.865,0.4077,7.0735,8.1865
2026-07-22T15:33:32.886,0.4077,7.0735,8.2453
2026-07-22T15:33:32.965,0.4162,7.1323,8.2648
2026-07-22T15:33:32.965,0.4182,7.1127,8.2061
2026-07-22T15:33:32.965,0.4182,7.1519,8.1669
2026-07-22T15:33:32.976,0.4182,7.1715,8.1278
2026-07-22T15:33:32.976,0.4207,7.1323,8.1669
2026-07-22T15:33:32.976,0.4207,7.0735,8.1865
2026-07-22T15:33:32.976,0.4207,7.2302,8.1865
2026-07-22T15:33:32.976,0.4207,7.1127,8.2453
2026-07-22T15:33:32.987,0.4255,7.1323,8.2844
2026-07-22T15:33:32.987,0.4275,7.1519,8.2453
2026-07-22T15:33:33.000,0.4339,7.1323,8.2061
2026-07-22T15:33:33.000,0.4339,7.0931,8.1474
2026-07-22T15:33:33.000,0.437,7.0735,8.1865
2026-07-22T15:33:33.031,0.4677,7.1127,8.1474
2026-07-22T15:33:33.031,0.4677,7.1323,8.2257
2026-07-22T15:33:33.052,0.4763,7.191,8.304
2026-07-22T15:33:33.052,0.4763,7.1323,8.1865
2026-07-22T15:33:33.067,0.4833,7.0931,8.2453
2026-07-22T15:33:33.080,0.4887,7.2498,8.2257
2026-07-22T15:33:33.087,0.4963,7.0931,8.1669
2026-07-22T15:33:33.096,0.499,7.1519,8.1474
2026-07-22T15:33:33.103,0.499,7.1323,8.1669
2026-07-22T15:33:33.114,0.5306,7.1127,8.1669
2026-07-22T15:33:33.114,0.5306,7.1323,8.1278
2026-07-22T15:33:33.138,0.5452,7.1519,8.1474
2026-07-22T15:33:33.145,0.5522,7.1519,8.1865
2026-07-22T15:33:33.161,0.5522,7.191,8.2061
2026-07-22T15:33:33.161,0.5522,7.0735,8.2257
2026-07-22T15:33:33.180,0.5779,7.1519,8.1865
2026-07-22T15:33:33.180,0.5779,7.1519,8.2257
2026-07-22T15:33:33.192,0.594,7.1519,8.2648
2026-07-22T15:33:33.208,0.594,7.1127,8.1669
2026-07-22T15:33:33.214,0.594,7.1715,8.1669
2026-07-22T15:33:33.230,0.6264,7.2302,8.1865
2026-07-22T15:33:33.240,0.6356,7.2302,8.2061
2026-07-22T15:33:33.240,0.6356,7.2302,8.2844
2026-07-22T15:33:33.256,0.6414,7.1519,8.1669
2026-07-22T15:33:33.267,0.6414,7.1519,8.2257
2026-07-22T15:33:33.288,0.6732,7.191,8.2453
2026-07-22T15:33:33.288,0.6732,7.2106,8.2257
2026-07-22T15:33:33.297,0.6809,7.191,8.2453
2026-07-22T15:33:33.303,0.6841,7.2694,8.2844
2026-07-22T15:33:33.330,0.7052,7.2498,8.2648
2026-07-22T15:33:33.330,0.7052,7.1715,8.1865
2026-07-22T15:33:33.335,0.7211,7.2498,8.1669
2026-07-22T15:33:33.346,0.7267,7.2498,8.1474
2026-07-22T15:33:33.351,0.7525,7.1323,8.2061
2026-07-22T15:33:33.367,0.7625,7.2106,8.2453
2026-07-22T15:33:33.367,0.7625,7.2694,8.2061
2026-07-22T15:33:33.388,0.7721,7.1715,8.2257
2026-07-22T15:33:33.388,0.7721,7.2498,8.1669
2026-07-22T15:33:33.400,0.8032,7.1519,8.1278
2026-07-22T15:33:33.414,0.8058,7.2498,8.1669
2026-07-22T15:33:33.424,0.8114,7.2106,8.2061
2026-07-22T15:33:33.434,0.8148,7.2498,8.1865
2026-07-22T15:33:33.446,0.8397,7.191,8.1865
2026-07-22T15:33:33.452,0.8432,7.2694,8.2257
2026-07-22T15:33:33.473,0.8465,7.191,8.1865
2026-07-22T15:33:33.473,0.8465,7.3085,8.1669
2026-07-22T15:33:33.492,0.8783,7.1715,8.1474
2026-07-22T15:33:33.492,0.8783,7.2694,8.1278
2026-07-22T15:33:33.508,0.8783,7.2694,8.1669
2026-07-22T15:33:33.517,0.8928,7.2106,8.2257
2026-07-22T15:33:33.530,0.9106,7.191,8.1865
2026-07-22T15:33:33.530,0.9273,7.1715,8.1082
2026-07-22T15:33:33.540,0.9346,7.1127,8.0299
2026-07-22T15:33:33.555,0.9346,7.0931,7.9907
2026-07-22T15:33:33.572,0.9572,7.0931,7.9711
2026-07-22T15:33:33.572,0.9572,7.0344,7.9516
2026-07-22T15:33:33.596,0.9683,7.0148,7.8928
2026-07-22T15:33:33.596,0.9729,7.0148,7.8732
2026-07-22T15:33:33.606,0.9998,6.9952,7.8536
2026-07-22T15:33:33.619,1.0044,6.9756,7.7949
2026-07-22T15:33:33.619,1.0044,7.0931,7.697
2026-07-22T15:33:33.638,1.0127,6.9756,7.7753
2026-07-22T15:33:33.638,1.0429,6.9169,7.6578
2026-07-22T15:33:33.657,1.0429,6.9169,7.7362
2026-07-22T15:33:33.666,1.0472,6.9169,7.6383
2026-07-22T15:33:33.674,1.0515,6.8777,7.6774
2026-07-22T15:33:33.682,1.0686,6.8386,7.5795
2026-07-22T15:33:33.701,1.0835,6.8582,7.5991
2026-07-22T15:33:33.709,1.088,6.8973,7.5991
2026-07-22T15:33:33.713,1.0948,6.8973,7.6383
2026-07-22T15:33:33.730,1.1219,6.819,7.5991
2026-07-22T15:33:33.730,1.1219,6.819,7.6187
2026-07-22T15:33:33.745,1.1281,6.7994,7.5991
2026-07-22T15:33:33.757,1.1308,6.819,7.5599
2026-07-22T15:33:33.766,1.1582,6.7603,7.462
2026-07-22T15:33:33.777,1.1634,6.7407,7.462
2026-07-22T15:33:33.790,1.1689,6.7994,7.5404
2026-07-22T15:33:33.793,1.1689,6.8386,7.5208
2026-07-22T15:33:33.793,1.1933,6.819,7.5991
2026-07-22T15:33:33.808,1.1933,6.7994,7.5991
2026-07-22T15:33:33.825,1.2052,6.7407,7.5599
2026-07-22T15:33:33.831,1.2114,6.7798,7.6187
2026-07-22T15:33:33.855,1.2284,6.7798,7.5795
2026-07-22T15:33:33.855,1.2404,6.7994,7.5208
2026-07-22T15:33:33.867,1.2479,6.7015,7.5599
2026-07-22T15:33:33.873,1.2479,6.7407,7.5404
2026-07-22T15:33:33.886,1.2795,6.7211,7.5599
2026-07-22T15:33:33.890,1.2825,6.7015,7.4816
2026-07-22T15:33:33.910,1.2911,6.7015,7.6383
2026-07-22T15:33:33.915,1.2931,6.7211,7.5795
2026-07-22T15:33:33.934,1.3056,6.7015,7.6187
2026-07-22T15:33:33.934,1.3201,6.7211,7.6187
2026-07-22T15:33:33.947,1.3214,6.7603,7.6187
2026-07-22T15:33:33.955,1.329,6.7994,7.6774
2026-07-22T15:33:33.967,1.3516,6.7603,7.6187
2026-07-22T15:33:33.967,1.3586,6.7798,7.6383
2026-07-22T15:33:33.983,1.3618,6.8777,7.6383
2026-07-22T15:33:34.005,1.3963,6.7603,7.697
2026-07-22T15:33:34.005,1.3993,6.7798,7.6774
2026-07-22T15:33:34.020,1.4018,6.7994,7.7362
2026-07-22T15:33:34.024,1.4058,6.7798,7.7362
2026-07-22T15:33:34.031,1.4293,6.7994,7.7166
2026-07-22T15:33:34.051,1.4366,6.8386,7.7557
2026-07-22T15:33:34.060,1.4386,6.9561,7.7949
2026-07-22T15:33:34.067,1.4386,6.8973,7.8341
2026-07-22T15:33:34.079,1.4703,6.8386,7.8536
2026-07-22T15:33:34.091,1.4703,6.9169,7.8732
2026-07-22T15:33:34.098,1.4703,6.9365,7.8145
2026-07-22T15:33:34.111,1.486,6.9169,7.7949
2026-07-22T15:33:34.111,1.5064,6.8973,7.8145
2026-07-22T15:33:34.132,1.5064,6.8973,7.8341
2026-07-22T15:33:34.132,1.519,6.9756,7.8145
2026-07-22T15:33:34.148,1.5242,6.8777,7.7949
2026-07-22T15:33:34.153,1.5382,6.8777,7.8732
2026-07-22T15:33:34.168,1.5562,6.9169,7.8145
2026-07-22T15:33:34.184,1.5562,6.9365,7.8928
2026-07-22T15:33:34.186,1.5628,6.9952,7.932
2026-07-22T15:33:34.200,1.588,7.0735,7.9711
2026-07-22T15:33:34.200,1.588,7.1323,7.9907
2026-07-22T15:33:34.218,1.6,7.0735,7.9907
2026-07-22T15:33:34.225,1.603,7.0735,7.932
2026-07-22T15:33:34.233,1.6302,7.054,7.9516
2026-07-22T15:33:34.250,1.6348,7.0931,7.932
2026-07-22T15:33:34.250,1.6348,7.0148,7.8536
2026-07-22T15:33:34.265,1.6348,6.9756,7.8536
2026-07-22T15:33:34.265,1.6664,6.9952,7.9124
2026-07-22T15:33:34.297,1.6715,6.9952,7.8928
2026-07-22T15:33:34.297,1.6715,6.9561,7.8928
2026-07-22T15:33:34.309,1.6801,7.0148,7.932
2026-07-22T15:33:34.314,1.6961,6.9561,7.8341
2026-07-22T15:33:34.328,1.7095,6.9169,7.8145
2026-07-22T15:33:34.342,1.7122,6.9952,7.8145
2026-07-22T15:33:34.342,1.7122,6.8777,7.8145
2026-07-22T15:33:34.358,1.7306,6.9365,7.8732
2026-07-22T15:33:34.371,1.7442,6.8386,7.7557
2026-07-22T15:33:34.374,1.7442,6.8582,7.7362
2026-07-22T15:33:34.390,1.7765,6.8777,7.7753
2026-07-22T15:33:34.392,1.7765,6.8777,7.7362
2026-07-22T15:33:34.406,1.7765,6.8777,7.7949
2026-07-22T15:33:34.422,1.8079,6.8386,7.7557
2026-07-22T15:33:34.423,1.8079,6.8582,7.697
2026-07-22T15:33:34.438,1.8079,6.8386,7.6578
2026-07-22T15:33:34.438,1.8251,6.7994,7.7166
2026-07-22T15:33:34.454,1.8308,6.7798,7.6578
2026-07-22T15:33:34.470,1.8554,6.7994,7.6774
2026-07-22T15:33:34.470,1.8554,6.7994,7.7557
2026-07-22T15:33:34.487,1.8694,6.7407,7.697
2026-07-22T15:33:34.493,1.8868,6.8777,7.5991
2026-07-22T15:33:34.501,1.8868,6.819,7.6774
2026-07-22T15:33:34.517,1.9012,6.8386,7.6774
2026-07-22T15:33:34.527,1.9012,6.8386,7.697
2026-07-22T15:33:34.534,1.9314,6.8386,7.7362
2026-07-22T15:33:34.549,1.9345,6.8386,7.7362
2026-07-22T15:33:34.549,1.9404,6.7994,7.697
2026-07-22T15:33:34.570,1.9404,6.8386,7.5991
2026-07-22T15:33:34.570,1.9714,6.819,7.6578
2026-07-22T15:33:34.581,1.9714,6.9561,7.6774
2026-07-22T15:33:34.602,1.9818,6.8386,7.7166
2026-07-22T15:33:34.602,1.9865,6.8582,7.7362
2026-07-22T15:33:34.612,2.0128,6.8582,7.7362
2026-07-22T15:33:34.619,2.0185,6.8973,7.7949
2026-07-22T15:33:34.644,2.0185,6.7994,7.7362
2026-07-22T15:33:34.648,2.0287,6.8386,7.6578
2026-07-22T15:33:34.669,2.055,6.8777,7.7362
2026-07-22T15:33:34.669,2.0604,6.8777,7.7166
2026-07-22T15:33:34.675,2.0604,6.9169,7.7557
2026-07-22T15:33:34.680,2.0661,6.8777,7.7362
2026-07-22T15:33:34.694,2.0963,6.8973,7.7753
2026-07-22T15:33:34.706,2.0963,6.9169,7.7362
2026-07-22T15:33:34.717,2.106,6.9169,7.7362
2026-07-22T15:33:34.722,2.1077,6.9365,7.8145
2026-07-22T15:33:34.742,2.1393,6.9169,7.8145
2026-07-22T15:33:34.754,2.1393,6.8973,7.8145
2026-07-22T15:33:34.758,2.1479,6.9169,7.8341
2026-07-22T15:33:34.770,2.1479,6.8973,7.8341
2026-07-22T15:33:34.770,2.1569,6.9561,7.7753
2026-07-22T15:33:34.787,2.1712,6.9756,7.8732
2026-07-22T15:33:34.801,2.1875,6.9756,7.8145
2026-07-22T15:33:34.801,2.1875,6.9952,7.8536
2026-07-22T15:33:34.810,2.1875,6.9365,7.8145
2026-07-22T15:33:34.829,2.2256,6.9561,7.8732
2026-07-22T15:33:34.833,2.2256,6.9756,7.8928
2026-07-22T15:33:34.848,2.2335,6.9952,7.8928
2026-07-22T15:33:34.849,2.2335,6.9561,7.9907
2026-07-22T15:33:34.864,2.2402,7.054,7.8928
2026-07-22T15:33:34.880,2.2503,6.9952,7.9516
2026-07-22T15:33:34.887,2.2651,7.0148,7.9124
2026-07-22T15:33:34.895,2.2695,7.0148,7.9516
2026-07-22T15:33:34.905,2.2764,7.054,7.8928
2026-07-22T15:33:34.912,2.2976,7.0344,8.0103
2026-07-22T15:33:34.926,2.3089,7.0148,7.9516
2026-07-22T15:33:34.938,2.3143,7.0931,7.8536
2026-07-22T15:33:34.945,2.3443,6.9952,7.8928
2026-07-22T15:33:34.958,2.3443,6.9561,7.8928
2026-07-22T15:33:34.971,2.3541,7.0148,7.9124
2026-07-22T15:33:34.976,2.3541,6.9952,7.932
2026-07-22T15:33:34.976,2.3759,7.0344,7.8928
2026-07-22T15:33:34.995,2.3829,7.0931,7.932
2026-07-22T15:33:35.006,2.3871,7.1127,7.8732
2026-07-22T15:33:35.016,2.3871,6.9365,7.932
2026-07-22T15:33:35.031,2.4172,6.9952,7.9516
2026-07-22T15:33:35.031,2.4182,6.9952,7.9124
2026-07-22T15:33:35.045,2.4219,6.9756,7.9124
2026-07-22T15:33:35.057,2.4234,7.0148,7.9124
2026-07-22T15:33:35.073,2.453,7.0735,7.9516
2026-07-22T15:33:35.079,2.455,7.1127,7.932
2026-07-22T15:33:35.091,2.4606,6.9561,7.9711
2026-07-22T15:33:35.099,2.4811,7.0931,7.9907
2026-07-22T15:33:35.099,2.4848,7.191,8.0886
2026-07-22T15:33:35.117,2.4848,7.1323,8.0299
2026-07-22T15:33:35.122,2.5178,7.1715,7.9907
2026-07-22T15:33:35.131,2.5198,7.1519,7.9516
2026-07-22T15:33:35.147,2.528,7.1715,7.9711
2026-07-22T15:33:35.156,2.53,7.1323,7.9711
2026-07-22T15:33:35.169,2.5555,7.0735,7.9711
2026-07-22T15:33:35.177,2.5575,7.0735,8.0103
2026-07-22T15:33:35.192,2.5626,7.1323,8.0103
2026-07-22T15:33:35.201,2.5872,7.1519,7.9516
2026-07-22T15:33:35.201,2.5872,7.1323,7.9711
2026-07-22T15:33:35.219,2.5957,7.1519,7.932
2026-07-22T15:33:35.230,2.5957,7.0931,7.9711
2026-07-22T15:33:35.246,2.6224,7.1127,7.9711
2026-07-22T15:33:35.246,2.6224,7.1323,8.0103
2026-07-22T15:33:35.257,2.6317,7.1127,8.0299
2026-07-22T15:33:35.266,2.6539,7.1715,7.9516
2026-07-22T15:33:35.282,2.6539,7.1127,7.9711
2026-07-22T15:33:35.284,2.6539,7.0735,7.8732
2026-07-22T15:33:35.295,2.6698,7.054,7.932
2026-07-22T15:33:35.300,2.6856,7.1323,7.9711
2026-07-22T15:33:35.316,2.6995,7.0931,8.0103
2026-07-22T15:33:35.316,2.7099,7.1519,8.0495
2026-07-22T15:33:35.332,2.7147,7.0735,7.9907
2026-07-22T15:33:35.347,2.7429,7.1323,7.9907
2026-07-22T15:33:35.347,2.7429,7.0735,7.8341
2026-07-22T15:33:35.372,2.7525,7.0148,7.932
2026-07-22T15:33:35.376,2.7525,6.9756,7.932
2026-07-22T15:33:35.379,2.7702,7.0344,7.9516
2026-07-22T15:33:35.396,2.7821,7.0148,7.9711
2026-07-22T15:33:35.405,2.7821,7.0148,7.8928
2026-07-22T15:33:35.414,2.7898,7.0735,7.932
2026-07-22T15:33:35.426,2.8154,7.0735,7.932
2026-07-22T15:33:35.432,2.8228,6.9561,7.9124
2026-07-22T15:33:35.452,2.8283,6.9561,7.932
2026-07-22T15:33:35.458,2.8283,6.9561,7.9124
2026-07-22T15:33:35.474,2.8528,6.9561,7.8536
2026-07-22T15:33:35.474,2.8528,6.9756,7.8536
2026-07-22T15:33:35.490,2.8598,6.9169,7.7949
2026-07-22T15:33:35.496,2.8767,6.9169,7.7949
2026-07-22T15:33:35.506,2.8917,6.9365,7.8341
2026-07-22T15:33:35.515,2.8974,6.8386,7.8145
2026-07-22T15:33:35.522,2.9015,6.9365,7.7949
2026-07-22T15:33:35.538,2.9302,6.9169,7.8145
2026-07-22T15:33:35.538,2.9302,6.9169,7.8145
2026-07-22T15:33:35.553,2.9353,6.9365,7.8145
2026-07-22T15:33:35.563,2.939,6.8973,7.7949
2026-07-22T15:33:35.569,2.9547,6.8582,7.7557
2026-07-22T15:33:35.585,2.9547,6.8582,7.697
2026-07-22T15:33:35.601,2.97,6.8386,7.7753
2026-07-22T15:33:35.607,2.97,6.819,7.7166
2026-07-22T15:33:35.617,2.9859,6.819,7.7949
2026-07-22T15:33:35.617,3.0016,6.8777,7.7753
2026-07-22T15:33:35.632,3.0087,6.8582,7.7753
2026-07-22T15:33:35.632,3.0347,6.8582,7.7557
2026-07-22T15:33:35.648,3.0435,6.7994,7.8341
2026-07-22T15:33:35.670,3.0491,6.819,7.8145
2026-07-22T15:33:35.674,3.0548,6.8386,7.8341
2026-07-22T15:33:35.696,3.0865,6.8386,7.8145
2026-07-22T15:33:35.696,3.0865,6.9169,7.7949
2026-07-22T15:33:35.711,3.0865,6.8582,7.8145
2026-07-22T15:33:35.717,3.0968,6.7798,7.8341
2026-07-22T15:33:35.727,3.1288,6.819,7.8536
2026-07-22T15:33:35.732,3.1288,6.8582,7.8145
2026-07-22T15:33:35.748,3.135,6.8582,7.8536
2026-07-22T15:33:35.759,3.1474,6.8582,7.9124
2026-07-22T15:33:35.764,3.1702,6.8777,7.8341
2026-07-22T15:33:35.775,3.1788,6.819,7.8536
2026-07-22T15:33:35.791,3.1832,6.7798,7.9516
2026-07-22T15:33:35.797,3.1832,6.7603,7.7949
2026-07-22T15:33:35.806,3.1832,6.8777,7.8145
2026-07-22T15:33:35.812,3.209,6.8386,7.8732
2026-07-22T15:33:35.822,3.2236,6.8973,7.932
2026-07-22T15:33:35.838,3.2293,6.8973,7.8928
2026-07-22T15:33:35.845,3.2293,6.9561,7.9516
2026-07-22T15:33:35.854,3.2356,6.8777,7.9907
2026-07-22T15:33:35.869,3.2592,6.9756,7.9907
2026-07-22T15:33:35.871,3.2592,6.9952,7.9711
2026-07-22T15:33:35.885,3.2592,6.9756,7.9711
2026-07-22T15:33:35.897,3.2718,6.9756,8.0299
2026-07-22T15:33:35.901,3.3033,6.9952,8.0299
2026-07-22T15:33:35.921,3.3057,6.9952,8.0495
2026-07-22T15:33:35.932,3.3118,7.0148,8.0495
2026-07-22T15:33:35.937,3.3118,6.9561,8.1278
2026-07-22T15:33:35.948,3.336,6.9756,8.0299
2026-07-22T15:33:35.967,3.336,6.9756,8.0299
2026-07-22T15:33:35.967,3.336,7.054,8.0299
2026-07-22T15:33:35.980,3.3706,6.9756,8.0495
2026-07-22T15:33:35.984,3.3706,6.9365,8.0886
2026-07-22T15:33:35.998,3.3828,6.9756,8.1082
2026-07-22T15:33:36.011,3.3853,7.0148,8.1082
2026-07-22T15:33:36.011,3.4132,7.0148,8.069
2026-07-22T15:33:36.027,3.4132,7.054,8.1474
2026-07-22T15:33:36.045,3.4132,6.9952,8.0299
2026-07-22T15:33:36.047,3.4132,6.9952,8.0299
2026-07-22T15:33:36.058,3.4495,6.9169,8.0299
2026-07-22T15:33:36.058,3.4495,6.9169,8.0103
2026-07-22T15:33:36.075,3.459,6.8973,7.9711
2026-07-22T15:33:36.089,3.459,6.9169,7.9711
2026-07-22T15:33:36.106,3.4906,6.8973,8.0103
2026-07-22T15:33:36.106,3.4927,6.9561,8.0299
2026-07-22T15:33:36.121,3.5026,6.9952,8.0299
2026-07-22T15:33:36.121,3.5063,6.9756,8.0886
2026-07-22T15:33:36.137,3.5318,6.9169,8.1474
2026-07-22T15:33:36.137,3.5358,6.8973,7.9907
2026-07-22T15:33:36.164,3.5404,6.9169,8.0103
2026-07-22T15:33:36.169,3.5404,7.0148,7.932
2026-07-22T15:33:36.188,3.5706,6.9756,7.9516
2026-07-22T15:33:36.189,3.5706,6.8777,7.9516
2026-07-22T15:33:36.197,3.5706,6.8386,7.9907
2026-07-22T15:33:36.202,3.586,6.8973,8.0299
2026-07-22T15:33:36.215,3.6012,6.8582,7.9907
2026-07-22T15:33:36.231,3.6012,6.9365,7.9516
2026-07-22T15:33:36.232,3.6187,6.8973,7.9711
2026-07-22T15:33:36.248,3.6262,6.9365,7.9711
2026-07-22T15:33:36.255,3.6548,6.8777,7.932
2026-07-22T15:33:36.263,3.6573,6.8777,7.932
2026-07-22T15:33:36.282,3.6573,6.7994,7.9711
2026-07-22T15:33:36.288,3.6573,6.8582,7.9516
2026-07-22T15:33:36.299,3.6944,6.819,7.8928
2026-07-22T15:33:36.309,3.6944,6.8386,7.8928
2026-07-22T15:33:36.319,3.7063,6.7407,7.932
2026-07-22T15:33:36.319,3.7063,6.7994,7.9124
2026-07-22T15:33:36.335,3.7376,6.7407,7.9711
2026-07-22T15:33:36.335,3.7411,6.8386,7.9907
2026-07-22T15:33:36.356,3.7452,6.8386,7.9711
2026-07-22T15:33:36.368,3.7452,6.7994,7.9907
2026-07-22T15:33:36.368,3.7525,6.7994,7.932
2026-07-22T15:33:36.389,3.7724,6.8973,7.9124
2026-07-22T15:33:36.398,3.7724,6.7603,7.9516
2026-07-22T15:33:36.407,3.7883,6.7994,7.9516
2026-07-22T15:33:36.418,3.7883,6.7603,7.9711
2026-07-22T15:33:36.418,3.8217,6.8582,7.9516
2026-07-22T15:33:36.434,3.8268,6.8386,7.9711
2026-07-22T15:33:36.434,3.8268,6.8582,7.9516
2026-07-22T15:33:36.450,3.8359,6.8386,8.0495
2026-07-22T15:33:36.467,3.8603,6.8777,8.0299
2026-07-22T15:33:36.467,3.8676,6.8582,8.1278
2026-07-22T15:33:36.489,3.8709,6.8582,8.0299
2026-07-22T15:33:36.498,3.8709,6.8386,8.0103
2026-07-22T15:33:36.500,3.9009,6.8582,8.0299
2026-07-22T15:33:36.513,3.9072,6.8582,7.9907
2026-07-22T15:33:36.529,3.912,6.8777,8.069
2026-07-22T15:33:36.539,3.918,6.8386,8.0299
2026-07-22T15:33:36.547,3.9382,6.8582,8.0886
2026-07-22T15:33:36.547,3.9465,6.7798,8.0103
2026-07-22T15:33:36.574,3.9465,6.8386,8.0103
2026-07-22T15:33:36.580,3.9541,6.8582,8.0495
2026-07-22T15:33:36.582,3.9842,6.9365,8.0886
2026-07-22T15:33:36.600,3.9852,6.9365,8.1474
2026-07-22T15:33:36.608,3.9943,6.8777,8.1865
2026-07-22T15:33:36.616,3.9989,6.9561,8.1669
2026-07-22T15:33:36.624,4.0254,6.9365,8.2061
2026-07-22T15:33:36.640,4.0348,6.9365,8.0886
2026-07-22T15:33:36.656,4.0413,6.9365,8.0886
2026-07-22T15:33:36.656,4.0413,6.9756,8.1278
2026-07-22T15:33:36.667,4.0478,7.0148,8.1669
2026-07-22T15:33:36.677,4.0775,6.9169,8.2453
2026-07-22T15:33:36.687,4.0826,7.0148,8.3236
2026-07-22T15:33:36.700,4.0856,6.9169,8.2844
2026-07-22T15:33:36.710,4.0886,6.9365,8.3236
2026-07-22T15:33:36.719,4.1252,7.054,8.2061
2026-07-22T15:33:36.719,4.1309,6.9952,8.2453
2026-07-22T15:33:36.739,4.1339,6.9561,8.1865
2026-07-22T15:33:36.750,4.1429,6.9169,8.2061
2026-07-22T15:33:36.757,4.1467,6.9561,8.2257
2026-07-22T15:33:36.766,4.1714,6.9169,8.2257
2026-07-22T15:33:36.766,4.1714,6.9561,8.304
2026-07-22T15:33:36.793,4.183,6.9561,8.1474
2026-07-22T15:33:36.805,4.1877,6.9952,8.2061
2026-07-22T15:33:36.805,4.1877,6.9561,8.1669
2026-07-22T15:33:36.829,4.2145,6.9365,8.1669
2026-07-22T15:33:36.833,4.2145,6.9169,8.2257
2026-07-22T15:33:36.833,4.2336,6.9169,8.2257
2026-07-22T15:33:36.849,4.2336,6.8777,8.2844
2026-07-22T15:33:36.849,4.2462,7.0148,8.2061
2026-07-22T15:33:36.863,4.2715,6.9561,8.2648
2026-07-22T15:33:36.876,4.2778,6.9365,8.1278
2026-07-22T15:33:36.876,4.2863,6.9561,8.1669
2026-07-22T15:33:36.895,4.2915,6.9169,8.1474
2026-07-22T15:33:36.908,4.2966,6.8973,8.2257
2026-07-22T15:33:36.908,4.3263,6.8973,8.2648
2026-07-22T15:33:36.924,4.3263,6.9561,8.2061
2026-07-22T15:33:36.940,4.3396,6.9365,8.1669
2026-07-22T15:33:36.953,4.3416,6.9561,8.1865
2026-07-22T15:33:36.958,4.3416,6.9561,8.2453
2026-07-22T15:33:36.971,4.3726,6.8582,8.2453
2026-07-22T15:33:36.975,4.3813,6.8582,8.1669
2026-07-22T15:33:36.988,4.3883,6.8973,8.2061
2026-07-22T15:33:36.988,4.3883,6.8582,8.1865
2026-07-22T15:33:37.003,4.3968,6.8973,8.2061
2026-07-22T15:33:37.019,4.4271,6.8973,8.2061
2026-07-22T15:33:37.019,4.4271,6.9561,8.1865
2026-07-22T15:33:37.041,4.4366,6.8973,8.2257
2026-07-22T15:33:37.046,4.4453,6.8777,8.1865
2026-07-22T15:33:37.059,4.4517,6.8582,8.2257
2026-07-22T15:33:37.070,4.4831,6.8582,8.1474
2026-07-22T15:33:37.081,4.4893,6.8777,8.1474
2026-07-22T15:33:37.089,4.4893,6.819,8.1669
2026-07-22T15:33:37.098,4.4893,6.7994,8.1865
2026-07-22T15:33:37.112,4.4989,6.8777,8.1669
2026-07-22T15:33:37.117,4.4989,6.7994,8.1669
2026-07-22T15:33:37.133,4.5361,6.7994,8.1865
2026-07-22T15:33:37.133,4.5361,6.7603,8.2061
2026-07-22T15:33:37.145,4.5426,6.8386,8.2257
2026-07-22T15:33:37.161,4.5454,6.7603,8.2061
2026-07-22T15:33:37.161,4.5469,6.7603,8.2844
2026-07-22T15:33:37.179,4.5831,6.7994,8.1865
2026-07-22T15:33:37.181,4.5831,6.7798,8.1865
2026-07-22T15:33:37.198,4.5945,6.7407,8.1278
2026-07-22T15:33:37.207,4.5945,6.7798,8.1669
2026-07-22T15:33:37.209,4.6339,6.7603,8.2061
2026-07-22T15:33:37.234,4.6369,6.7994,8.1669
2026-07-22T15:33:37.234,4.6369,6.7407,8.2061
2026-07-22T15:33:37.256,4.6442,6.7603,8.1865
2026-07-22T15:33:37.256,4.6452,6.819,8.1865
2026-07-22T15:33:37.256,4.6745,6.7603,8.2257
2026-07-22T15:33:37.273,4.6816,6.819,8.3432
2026-07-22T15:33:37.290,4.6843,6.819,8.304
2026-07-22T15:33:37.298,4.6869,6.8777,8.1865
2026-07-22T15:33:37.313,4.6869,6.819,8.2453
2026-07-22T15:33:37.317,4.7283,6.7407,8.2453
2026-07-22T15:33:37.334,4.7372,6.7994,8.2844
2026-07-22T15:33:37.343,4.7432,6.7407,8.2648
2026-07-22T15:33:37.346,4.7452,6.8582,8.2453
2026-07-22T15:33:37.349,4.7502,6.7798,8.2453
2026-07-22T15:33:37.364,4.7718,6.7994,8.2061
2026-07-22T15:33:37.380,4.7873,6.7603,8.2061
2026-07-22T15:33:37.380,4.7873,6.7994,8.2648
2026-07-22T15:33:37.407,4.7873,6.7798,8.2648
2026-07-22T15:33:37.414,4.8075,6.8386,8.2648
2026-07-22T15:33:37.417,4.8075,6.8582,8.3236
2026-07-22T15:33:37.434,4.8415,6.819,8.3432
2026-07-22T15:33:37.434,4.8415,6.8582,8.304
2026-07-22T15:33:37.449,4.8415,6.8777,8.3236
2026-07-22T15:33:37.449,4.8524,6.8386,8.3236
2026-07-22T15:33:37.469,4.8593,6.8386,8.3236
2026-07-22T15:33:37.469,4.8721,6.8582,8.3627
2026-07-22T15:33:37.481,4.889,6.8973,8.3823
2026-07-22T15:33:37.503,4.8991,6.9169,8.3627
2026-07-22T15:33:37.514,4.9039,6.9169,8.3236
2026-07-22T15:33:37.521,4.9039,6.9365,8.4411
2026-07-22T15:33:37.534,4.9417,6.9365,8.3627
2026-07-22T15:33:37.534,4.9417,6.8973,8.3236
2026-07-22T15:33:37.534,4.947,6.9169,8.3627
2026-07-22T15:33:37.561,4.9513,6.9756,8.4019
2026-07-22T15:33:37.566,4.9513,6.9756,8.4802
2026-07-22T15:33:37.575,4.9828,6.9365,8.4411
2026-07-22T15:33:37.597,4.9828,6.9169,8.3823
2026-07-22T15:33:37.597,4.9828,6.9365,8.4019
2026-07-22T15:33:37.613,4.999,7.054,8.3823
2026-07-22T15:33:37.621,5.0024,6.9169,8.3627
2026-07-22T15:33:37.629,5.0284,6.9952,8.3823
2026-07-22T15:33:37.634,5.0334,7.054,8.4019
2026-07-22T15:33:37.645,5.0421,7.054,8.4998
2026-07-22T15:33:37.663,5.0463,7.054,8.3432
2026-07-22T15:33:37.669,5.0722,7.0735,8.4802
2026-07-22T15:33:37.676,5.0801,7.054,8.3823
2026-07-22T15:33:37.676,5.0801,7.0344,8.3627
2026-07-22T15:33:37.708,5.0876,7.0735,8.3823
2026-07-22T15:33:37.711,5.0876,7.0931,8.4607
2026-07-22T15:33:46.126,13.5161,5.8204,9.1851
2026-07-22T15:33:46.138,13.5273,5.9183,9.2243
2026-07-22T15:33:46.147,13.5273,5.8204,9.2047
2026-07-22T15:33:46.153,13.5273,5.977,9.2439
2026-07-22T15:33:46.159,13.5638,5.9574,9.2243
2026-07-22T15:33:46.178,13.5729,5.8595,9.3026
2026-07-22T15:33:46.178,13.5791,5.8791,9.2439
2026-07-22T15:33:46.189,13.5802,5.84,9.3026
2026-07-22T15:33:46.205,13.5831,5.8595,9.3026
2026-07-22T15:33:46.205,13.6144,5.9574,9.3026
2026-07-22T15:33:46.220,13.6144,5.8204,9.3418
2026-07-22T15:33:46.235,13.6204,5.8791,9.3809
2026-07-22T15:33:46.242,13.622,5.8987,9.3809
2026-07-22T15:33:46.259,13.6542,5.9183,9.3809
2026-07-22T15:33:46.269,13.6542,5.9183,9.3222
2026-07-22T15:33:46.276,13.6542,5.8987,9.3418
2026-07-22T15:33:46.284,13.668,5.9379,9.3026
2026-07-22T15:33:46.298,13.6934,5.8595,9.3222
2026-07-22T15:33:46.298,13.6974,5.8595,9.283
2026-07-22T15:33:46.298,13.6974,5.8595,9.3614
2026-07-22T15:33:46.316,13.7076,5.8791,9.1851
2026-07-22T15:33:46.334,13.7126,5.8204,9.2243
2026-07-22T15:33:46.346,13.7374,5.84,9.3026
2026-07-22T15:33:46.346,13.7384,5.8204,9.2047
2026-07-22T15:33:46.371,13.7459,5.8204,9.2635
2026-07-22T15:33:46.374,13.7469,5.84,9.2047
2026-07-22T15:33:46.393,13.7775,5.8595,9.2439
2026-07-22T15:33:46.393,13.7804,5.84,9.1851
2026-07-22T15:33:46.408,13.7804,5.8008,9.1656
2026-07-22T15:33:46.409,13.8137,5.8791,9.146
2026-07-22T15:33:46.420,13.8192,5.84,9.1656
2026-07-22T15:33:46.434,13.8232,5.9183,9.0872
2026-07-22T15:33:46.449,13.8238,5.8204,9.1068
2026-07-22T15:33:46.449,13.8524,5.7812,9.146
2026-07-22T15:33:46.465,13.8545,5.8204,9.1264
2026-07-22T15:33:46.475,13.8614,5.7616,9.0677
2026-07-22T15:33:46.486,13.8678,5.8987,9.2243
2026-07-22T15:33:46.486,13.8678,5.8595,9.1656
2026-07-22T15:33:46.501,13.8858,5.8204,9.1851
2026-07-22T15:33:46.501,13.8858,5.8008,9.1851
2026-07-22T15:33:46.523,13.9016,5.8791,9.1656
2026-07-22T15:33:46.532,13.9058,5.7812,9.1851
2026-07-22T15:33:46.548,13.9332,5.7616,9.2047
2026-07-22T15:33:46.548,13.9332,5.8204,9.2243
2026-07-22T15:33:46.548,13.9489,5.8008,9.1851
2026-07-22T15:33:46.579,13.9781,5.8008,9.146
2026-07-22T15:33:46.579,13.9817,5.8008,9.2243
2026-07-22T15:33:46.595,13.9853,5.7421,9.0677
2026-07-22T15:33:46.609,13.9853,5.8204,9.146
2026-07-22T15:33:46.617,13.997,5.7616,9.1656
2026-07-22T15:33:46.617,14.0117,5.8791,9.146
2026-07-22T15:33:46.627,14.0117,5.7812,9.1068
2026-07-22T15:33:46.647,14.0275,5.8008,9.1068
2026-07-22T15:33:46.656,14.0275,5.7421,9.146
2026-07-22T15:33:46.669,14.0588,5.7812,9.1068
2026-07-22T15:33:46.674,14.067,5.7225,9.1656
2026-07-22T15:33:46.674,14.0694,5.7812,9.1264
2026-07-22T15:33:46.689,14.0749,5.8008,9.146
2026-07-22T15:33:46.707,14.1058,5.7812,9.1264
2026-07-22T15:33:46.721,14.1058,5.8008,9.0872
2026-07-22T15:33:46.721,14.1143,5.8204,9.146
2026-07-22T15:33:46.737,14.1219,5.7421,9.146
2026-07-22T15:33:46.740,14.1544,5.7812,9.1656
2026-07-22T15:33:46.753,14.1544,5.7421,9.1068
2026-07-22T15:33:46.753,14.1544,5.84,9.1264
2026-07-22T15:33:46.781,14.1698,5.7616,9.0285
2026-07-22T15:33:46.787,14.1723,5.7812,9.1068
2026-07-22T15:33:46.787,14.2054,5.7225,9.0872
2026-07-22T15:33:46.805,14.2085,5.8008,9.0872
2026-07-22T15:33:46.816,14.215,5.7421,9.1068
2026-07-22T15:33:46.816,14.217,5.8204,9.1264
2026-07-22T15:33:46.832,14.2217,5.7812,9.1264
2026-07-22T15:33:46.843,14.2438,5.8204,9.146
2026-07-22T15:33:46.849,14.2483,5.7225,9.1264
2026-07-22T15:33:46.870,14.2483,5.7421,9.0872
2026-07-22T15:33:46.883,14.2604,5.6637,8.8914
2026-07-22T15:33:46.883,14.2643,5.7421,9.0481
2026-07-22T15:33:46.894,14.2813,5.7616,9.0872
2026-07-22T15:33:46.906,14.2813,5.7616,9.146
2026-07-22T15:33:46.919,14.2984,5.7616,9.1656
2026-07-22T15:33:46.925,14.2984,5.84,9.1264
2026-07-22T15:33:46.943,14.3289,5.7616,9.146
2026-07-22T15:33:46.943,14.3289,5.7812,9.146
2026-07-22T15:33:46.960,14.3289,5.7225,9.1264
2026-07-22T15:33:46.960,14.3289,5.7812,9.1656
2026-07-22T15:33:46.974,14.3619,5.84,9.146
2026-07-22T15:33:46.974,14.3619,5.8204,9.146
2026-07-22T15:33:46.991,14.3689,5.7225,9.2635
2026-07-22T15:33:47.005,14.3775,5.7812,9.2635
2026-07-22T15:33:47.021,14.3912,5.7812,9.1656
2026-07-22T15:33:47.024,14.3912,5.7616,9.1656
2026-07-22T15:33:47.039,14.4073,5.7812,9.1851
2026-07-22T15:33:47.053,14.4223,5.7812,9.2635
2026-07-22T15:33:47.053,14.4223,5.7812,9.146
2026-07-22T15:33:47.069,14.4383,5.8008,9.146
2026-07-22T15:33:47.069,14.4383,5.6637,9.1656
2026-07-22T15:33:47.084,14.464,5.7812,9.146
2026-07-22T15:33:47.084,14.4697,5.7029,9.2047
2026-07-22T15:33:47.100,14.4712,5.7812,9.1851
2026-07-22T15:33:47.117,14.501,5.7421,9.3026
2026-07-22T15:33:47.117,14.502,5.7616,9.146
2026-07-22T15:33:47.133,14.5052,5.7225,9.1264
2026-07-22T15:33:47.147,14.5325,5.7421,9.146
2026-07-22T15:33:47.152,14.5352,5.7616,9.1656
2026-07-22T15:33:47.167,14.5444,5.7225,9.1851
2026-07-22T15:33:47.180,14.5641,5.84,9.2635
2026-07-22T15:33:47.180,14.57,5.7812,9.283
2026-07-22T15:33:47.197,14.57,5.7812,9.1851
2026-07-22T15:33:47.206,14.5799,5.6833,9.2047
2026-07-22T15:33:47.210,14.5956,5.6833,9.1264
2026-07-22T15:33:47.226,14.5956,5.7616,9.1264
2026-07-22T15:33:47.232,14.6114,5.6246,9.1068
2026-07-22T15:33:47.250,14.6356,5.6833,9.1068
2026-07-22T15:33:47.257,14.6435,5.6246,9.0872
2026-07-22T15:33:47.257,14.6435,5.7225,9.0872
2026-07-22T15:33:47.273,14.6435,5.6246,9.1264
2026-07-22T15:33:47.278,14.6752,5.6637,9.0677
2026-07-22T15:33:47.289,14.6802,5.6442,9.0872
2026-07-22T15:33:47.305,14.6817,5.6637,9.0677
2026-07-22T15:33:47.305,14.6862,5.7225,9.1264
2026-07-22T15:33:47.321,14.7169,5.7421,9.146
2026-07-22T15:33:47.321,14.7219,5.7029,9.2047
2026-07-22T15:33:47.348,14.7281,5.6442,9.1264
2026-07-22T15:33:47.353,14.7538,5.6637,9.0677
2026-07-22T15:33:47.372,14.7538,5.6833,9.0872
2026-07-22T15:33:47.373,14.7538,5.6442,9.1068
2026-07-22T15:33:47.390,14.7681,5.6833,9.1068
2026-07-22T15:33:47.393,14.7895,5.7029,9.146
2026-07-22T15:33:47.400,14.7895,5.6833,9.1851
2026-07-22T15:33:47.416,14.8013,5.6442,9.1068
2026-07-22T15:33:47.416,14.8013,5.6833,9.0872
2026-07-22T15:33:47.447,14.8357,5.6246,9.0872
2026-07-22T15:33:47.447,14.8387,5.6637,9.0872
2026-07-22T15:33:47.451,14.8417,5.7225,9.0872
2026-07-22T15:33:47.463,14.8447,5.6833,9.2243
2026-07-22T15:33:47.463,14.8517,5.605,9.1068
2026-07-22T15:33:47.484,14.8809,5.6442,9.1656
2026-07-22T15:33:47.499,14.8862,5.6833,9.0872
2026-07-22T15:33:47.505,14.8905,5.6833,9.1264
2026-07-22T15:33:47.521,14.9178,5.7225,9.1068
2026-07-22T15:33:47.532,14.9178,5.6637,9.1656
2026-07-22T15:33:47.532,14.9178,5.6637,9.0677
2026-07-22T15:33:47.548,14.9361,5.7029,9.1264
2026-07-22T15:33:47.557,14.9381,5.7225,9.1068
2026-07-22T15:33:47.566,14.9541,5.7029,9.1851
2026-07-22T15:33:47.580,14.9541,5.6637,9.1656
2026-07-22T15:33:47.597,14.9736,5.6637,9.1656
2026-07-22T15:33:47.597,14.9736,5.6442,9.0872
2026-07-22T15:33:47.600,15.0016,5.7225,9.283
2026-07-22T15:33:47.616,15.0016,5.6637,9.146
2026-07-22T15:33:47.616,15.0016,5.7029,9.1851
2026-07-22T15:33:47.635,15.0176,5.6637,9.0677
2026-07-22T15:33:47.648,15.0176,5.7225,9.1656
2026-07-22T15:33:47.663,15.0584,5.6442,9.146
2026-07-22T15:33:47.663,15.0584,5.7029,9.146
2026-07-22T15:33:47.663,15.0584,5.6637,9.2243
2026-07-22T15:33:47.679,15.066,5.6246,9.1851
2026-07-22T15:33:47.695,15.0967,5.6637,9.1264
2026-07-22T15:33:47.711,15.1074,5.6637,9.2243
2026-07-22T15:33:47.711,15.1074,5.605,9.1851
2026-07-22T15:33:47.720,15.1127,5.6637,9.1656
2026-07-22T15:33:47.728,15.1165,5.6637,9.1656
2026-07-22T15:33:47.746,15.1284,5.7029,9.1851
2026-07-22T15:33:47.758,15.1442,5.6442,9.0872
2026-07-22T15:33:47.769,15.1499,5.6833,9.1264
2026-07-22T15:33:47.774,15.156,5.6637,9.1851
2026-07-22T15:33:47.778,15.182,5.6637,9.1851
2026-07-22T15:33:47.790,15.1916,5.7421,9.2439
2026-07-22T15:33:47.790,15.1916,5.7421,9.2243
2026-07-22T15:33:47.818,15.1916,5.6833,9.2635
2026-07-22T15:33:47.824,15.2016,5.7225,9.3418
2026-07-22T15:33:47.844,15.2273,5.7029,9.2243
2026-07-22T15:33:47.844,15.2273,5.7616,9.2439
2026-07-22T15:33:47.853,15.2333,5.6833,9.283
2026-07-22T15:33:47.863,15.2389,5.7421,9.3026
2026-07-22T15:33:47.885,15.2671,5.7421,9.3026
2026-07-22T15:33:47.885,15.2707,5.7616,9.283
2026-07-22T15:33:47.889,15.2707,5.6637,9.3418
2026-07-22T15:33:47.901,15.2823,5.7616,9.2243
2026-07-22T15:33:47.901,15.3021,5.7421,9.2635
2026-07-22T15:33:47.929,15.318,5.6833,9.2047
2026-07-22T15:33:47.932,15.3242,5.7421,9.2635
2026-07-22T15:33:47.944,15.3294,5.7421,9.2243
2026-07-22T15:33:47.954,15.3563,5.7421,9.2635
2026-07-22T15:33:47.964,15.3563,5.7421,9.2439
2026-07-22T15:33:47.980,15.3691,5.6833,9.3418
2026-07-22T15:33:47.991,15.3745,5.6637,9.3222
2026-07-22T15:33:47.995,15.3745,5.7029,9.283
2026-07-22T15:33:47.997,15.3967,5.7225,9.2635
2026-07-22T15:33:48.016,15.4066,5.7029,9.283
2026-07-22T15:33:48.027,15.4128,5.7029,9.3809
2026-07-22T15:33:48.036,15.4128,5.6833,9.2243
2026-07-22T15:33:48.045,15.4508,5.6833,9.2243
2026-07-22T15:33:48.058,15.4539,5.7029,9.1851
2026-07-22T15:33:48.068,15.4599,5.7029,9.2047
2026-07-22T15:33:48.075,15.4599,5.6833,9.2047
2026-07-22T15:33:48.075,15.4918,5.6637,9.1264
2026-07-22T15:33:48.106,15.4937,5.7029,9.1851
2026-07-22T15:33:48.106,15.4937,5.6246,9.1264
2026-07-22T15:33:48.122,15.4937,5.6442,9.2047
2026-07-22T15:33:48.128,15.4937,5.605,9.1264
2026-07-22T15:33:48.138,15.5235,5.7029,9.146
2026-07-22T15:33:48.145,15.5386,5.6246,9.1656
2026-07-22T15:33:48.155,15.5396,5.605,9.1851
2026-07-22T15:33:48.155,15.5396,5.6637,9.0677
2026-07-22T15:33:48.179,15.5709,5.605,9.0872
2026-07-22T15:33:48.185,15.5788,5.5658,9.1656
2026-07-22T15:33:48.201,15.5834,5.605,9.1264
2026-07-22T15:33:48.209,15.5866,5.6833,9.1656
2026-07-22T15:33:48.221,15.6025,5.6833,9.146
2026-07-22T15:33:48.233,15.6203,5.5658,9.1264
2026-07-22T15:33:48.233,15.6239,5.605,9.1068
2026-07-22T15:33:48.248,15.6239,5.6246,9.1264
2026-07-22T15:33:48.254,15.6327,5.6246,9.1264
2026-07-22T15:33:48.264,15.6611,5.6637,9.1264
2026-07-22T15:33:48.264,15.6611,5.6637,9.2047
2026-07-22T15:33:48.286,15.6656,5.7421,9.2047
2026-07-22T15:33:48.294,15.6656,5.6442,9.2047
2026-07-22T15:33:48.296,15.7013,5.6246,9.2439
2026-07-22T15:33:48.312,15.7013,5.7029,9.1264
2026-07-22T15:33:48.323,15.7101,5.6442,9.2047
2026-07-22T15:33:48.327,15.7191,5.7029,9.146
2026-07-22T15:33:48.359,15.7465,5.7225,9.1656
2026-07-22T15:33:48.359,15.7465,5.7616,9.1851
2026-07-22T15:33:48.363,15.7465,5.7421,9.1851
2026-07-22T15:33:48.381,15.7465,5.7812,9.1851
2026-07-22T15:33:48.383,15.7465,5.7421,9.2439
2026-07-22T15:33:48.390,15.7844,5.7225,9.2243
2026-07-22T15:33:48.408,15.7844,5.7421,9.283
2026-07-22T15:33:48.408,15.7916,5.7225,9.2635
2026-07-22T15:33:48.422,15.8073,5.7616,9.2439
2026-07-22T15:33:48.422,15.8073,5.7421,9.1656
2026-07-22T15:33:48.446,15.8285,5.7225,9.1656
2026-07-22T15:33:48.453,15.8325,5.6833,9.1851
2026-07-22T15:33:48.469,15.8554,5.6833,9.2439
2026-07-22T15:33:48.469,15.8554,5.7421,9.2047
2026-07-22T15:33:48.487,15.8554,5.7812,9.2047
2026-07-22T15:33:48.494,15.876,5.8204,9.2047
2026-07-22T15:33:48.513,15.8977,5.7812,9.1851
2026-07-22T15:33:48.517,15.9069,5.7225,9.1656
2026-07-22T15:33:48.517,15.9069,5.7616,9.1264
2026-07-22T15:33:48.538,15.9198,5.7225,9.2243
2026-07-22T15:33:48.548,15.9478,5.7616,9.2635
2026-07-22T15:33:48.548,15.9518,5.7421,9.2439
2026-07-22T15:33:48.569,15.9538,5.7812,9.2439
2026-07-22T15:33:48.569,15.9606,5.7225,9.283
2026-07-22T15:33:48.582,15.9666,5.7616,9.2047
2026-07-22T15:33:48.603,15.9888,5.7616,9.3026
2026-07-22T15:33:48.609,15.9963,5.7421,9.3026
2026-07-22T15:33:48.621,15.9963,5.7812,9.3026
2026-07-22T15:33:48.628,16.0032,5.7616,9.3418
2026-07-22T15:33:48.634,16.0189,5.7421,9.2439
2026-07-22T15:33:48.647,16.0189,5.7225,9.1656
2026-07-22T15:33:48.658,16.0402,5.6442,9.1656
2026-07-22T15:33:48.665,16.0423,5.6442,9.1851
2026-07-22T15:33:48.665,16.0563,5.6246,9.0872
2026-07-22T15:33:48.681,16.0723,5.6637,9.0481
2026-07-22T15:33:48.697,16.0723,5.6246,9.0481
2026-07-22T15:33:48.704,16.0825,5.605,8.9502
2026-07-22T15:33:48.716,16.1088,5.6246,8.9502
2026-07-22T15:33:48.718,16.1088,5.6442,8.8718
2026-07-22T15:33:48.744,16.1197,5.6246,8.911
2026-07-22T15:33:48.744,16.1197,5.6833,8.9502
2026-07-22T15:33:48.750,16.1358,5.6833,8.9893
2026-07-22T15:33:48.750,16.1514,5.6833,8.9893
2026-07-22T15:33:48.771,16.1514,5.6637,9.0285
2026-07-22T15:33:48.781,16.1514,5.5854,9.0481
2026-07-22T15:33:48.781,16.1856,5.6246,8.9698
2026-07-22T15:33:48.798,16.1856,5.6246,8.9502
2026-07-22T15:33:48.813,16.1856,5.6442,9.0481
2026-07-22T15:33:48.813,16.2139,5.6637,9.0481
2026-07-22T15:33:48.833,16.2139,5.6442,9.1264
2026-07-22T15:33:48.847,16.2139,5.6442,9.1068
2026-07-22T15:33:48.847,16.2296,5.6637,9.146
2026-07-22T15:33:48.860,16.2454,5.7616,9.0285
2026-07-22T15:33:48.876,16.2615,5.6637,9.1264
2026-07-22T15:33:48.876,16.2685,5.6442,9.1264
2026-07-22T15:33:48.891,16.2767,5.7029,9.146
2026-07-22T15:33:48.891,16.2926,5.6442,9.146
2026-07-22T15:33:48.907,16.3083,5.6442,9.1656
2026-07-22T15:33:48.930,16.3083,5.6442,9.0677
2026-07-22T15:33:48.938,16.3083,5.6246,9.0089
2026-07-22T15:33:48.954,16.3397,5.6246,9.0089
2026-07-22T15:33:48.954,16.3397,5.6442,9.0285
2026-07-22T15:33:48.954,16.3497,5.6442,8.9893
2026-07-22T15:33:48.970,16.3497,5.6833,9.0285
2026-07-22T15:33:48.986,16.3878,5.6637,8.9502
2026-07-22T15:33:49.001,16.3944,5.7421,9.0285
2026-07-22T15:33:49.001,16.3944,5.6833,8.911
2026-07-22T15:33:49.011,16.4041,5.7225,8.9306
2026-07-22T15:33:49.018,16.4338,5.7029,8.9698
2026-07-22T15:33:49.034,16.4411,5.7421,9.0872
2026-07-22T15:33:49.034,16.4411,5.7225,9.1264
2026-07-22T15:33:49.056,16.4499,5.6637,9.0872
2026-07-22T15:33:49.066,16.4499,5.7029,9.0872
2026-07-22T15:33:49.080,16.4828,5.7225,9.0872
2026-07-22T15:33:49.080,16.4869,5.7812,9.1068
2026-07-22T15:33:49.096,16.4869,5.7225,9.146
2026-07-22T15:33:49.103,16.4984,5.7029,9.2047
2026-07-22T15:33:49.121,16.4984,5.7616,9.2047
2026-07-22T15:33:49.128,16.5309,5.6246,9.1851
2026-07-22T15:33:49.128,16.5309,5.7029,9.1264
2026-07-22T15:33:49.149,16.5309,5.6833,9.1656
2026-07-22T15:33:49.149,16.5309,5.7225,9.2047
2026-07-22T15:33:49.160,16.548,5.7225,9.2635
2026-07-22T15:33:49.179,16.561,5.7225,9.2047
2026-07-22T15:33:49.179,16.561,5.7029,9.3026
2026-07-22T15:33:49.193,16.5768,5.7421,9.1656
2026-07-22T15:33:49.193,16.5835,5.6637,9.1851
2026-07-22T15:33:49.213,16.6086,5.6637,9.1851
2026-07-22T15:33:49.223,16.6086,5.6833,9.2243
2026-07-22T15:33:49.239,16.6148,5.8008,9.283
2026-07-22T15:33:49.245,16.6148,5.6833,9.3222
2026-07-22T15:33:49.255,16.6401,5.6833,9.4201
2026-07-22T15:33:49.255,16.6401,5.6833,9.283
2026-07-22T15:33:49.277,16.6557,5.7029,9.2439
2026-07-22T15:33:49.277,16.6644,5.7225,9.3418
2026-07-22T15:33:49.302,16.6922,5.7225,9.3222
2026-07-22T15:33:49.302,16.6922,5.7421,9.3026
2026-07-22T15:33:49.302,16.6922,5.7616,9.3418
2026-07-22T15:33:49.326,16.6922,5.7812,9.3809
2026-07-22T15:33:49.333,16.7192,5.7421,9.4201
2026-07-22T15:33:49.345,16.7192,5.7616,9.4005
2026-07-22T15:33:49.354,16.7192,5.7812,9.4201
2026-07-22T15:33:49.365,16.7565,5.7225,9.4005
2026-07-22T15:33:49.381,16.7565,5.7225,9.4789
2026-07-22T15:33:49.381,16.7669,5.7616,9.4984
2026-07-22T15:33:49.397,16.7697,5.7029,9.4789
2026-07-22T15:33:49.397,16.7982,5.7225,9.518
2026-07-22T15:33:49.418,16.7982,5.7029,9.4789
2026-07-22T15:33:49.432,16.7982,5.6442,9.4593
2026-07-22T15:33:49.432,16.7982,5.6833,9.4397
2026-07-22T15:33:49.445,16.8296,5.7421,9.4593
2026-07-22T15:33:49.450,16.8296,5.6833,9.4984
2026-07-22T15:33:49.460,16.8453,5.7029,9.4984
2026-07-22T15:33:49.460,16.8533,5.7029,9.518
2026-07-22T15:33:49.476,16.8772,5.6246,9.4397
2026-07-22T15:33:49.491,16.8772,5.605,9.4201
2026-07-22T15:33:49.507,16.8883,5.7029,9.4005
2026-07-22T15:33:49.515,16.8929,5.6637,9.4201
2026-07-22T15:33:49.523,16.9206,5.6246,9.3614
2026-07-22T15:33:49.539,16.9246,5.7029,9.4201
2026-07-22T15:33:49.546,16.9246,5.5463,9.3026
2026-07-22T15:33:49.555,16.9246,5.5854,9.3222
2026-07-22T15:33:49.570,16.9614,5.5267,9.3418
2026-07-22T15:33:49.582,16.9664,5.5267,9.3418
2026-07-22T15:33:49.586,16.9684,5.5854,9.3222
2026-07-22T15:33:49.586,16.9739,5.6637,9.3614
2026-07-22T15:33:49.607,17.0001,5.5854,9.3614
2026-07-22T15:33:49.622,17.0049,5.5854,9.3614
2026-07-22T15:33:49.630,17.0107,5.6246,9.3614
2026-07-22T15:33:49.636,17.0159,5.5658,9.3222
2026-07-22T15:33:49.646,17.0342,5.5658,9.283
2026-07-22T15:33:49.650,17.0418,5.5658,9.3026
2026-07-22T15:33:49.667,17.0418,5.5658,9.2635
2026-07-22T15:33:49.676,17.0489,5.5463,9.3809
2026-07-22T15:33:49.680,17.0769,5.5463,9.2439
2026-07-22T15:33:49.680,17.0779,5.5854,9.3026
2026-07-22T15:33:49.704,17.0858,5.4875,9.3026
2026-07-22T15:33:49.722,17.1068,5.5854,9.3026
2026-07-22T15:33:49.731,17.1068,5.4679,9.2635
2026-07-22T15:33:49.739,17.1189,5.5658,9.3222
2026-07-22T15:33:49.752,17.1189,5.5071,9.3614
2026-07-22T15:33:49.754,17.1453,5.5854,9.283
2026-07-22T15:33:49.769,17.1453,5.5463,9.283
2026-07-22T15:33:49.769,17.1566,5.5463,9.3026
2026-07-22T15:33:49.783,17.1592,5.5267,9.2243
2026-07-22T15:33:49.803,17.184,5.5463,9.2439
2026-07-22T15:33:49.806,17.191,5.5463,9.3222
2026-07-22T15:33:49.821,17.1993,5.5463,9.283
2026-07-22T15:33:49.821,17.2041,5.5463,9.2635
2026-07-22T15:33:49.835,17.2211,5.5071,9.283
2026-07-22T15:33:49.846,17.2211,5.5071,9.1851
2026-07-22T15:33:49.864,17.2392,5.5463,9.2243
2026-07-22T15:33:49.868,17.2392,5.5463,9.2243
2026-07-22T15:33:49.883,17.2719,5.605,9.2439
2026-07-22T15:33:49.883,17.2719,5.5071,9.2243
2026-07-22T15:33:49.883,17.2719,5.5463,9.1851
2026-07-22T15:33:49.909,17.2719,5.5463,9.2243
2026-07-22T15:33:49.915,17.3,5.5463,9.2635
2026-07-22T15:33:49.915,17.3109,5.4875,9.2439
2026-07-22T15:33:49.934,17.3109,5.5463,9.2635
2026-07-22T15:33:49.946,17.3159,5.5463,9.3026
2026-07-22T15:33:49.962,17.3475,5.6442,9.3026
2026-07-22T15:33:49.962,17.3497,5.5071,9.3222
2026-07-22T15:33:49.978,17.3497,5.5071,9.2439
2026-07-22T15:33:49.978,17.3845,5.5463,9.2635
2026-07-22T15:33:49.994,17.3866,5.5463,9.2439
2026-07-22T15:33:50.011,17.3897,5.4875,9.2243
2026-07-22T15:33:50.011,17.3897,5.5463,9.2439
2026-07-22T15:33:50.025,17.4102,5.605,9.2047
2026-07-22T15:33:50.041,17.4102,5.5658,9.2243
2026-07-22T15:33:50.048,17.4282,5.5463,9.2439
2026-07-22T15:33:50.057,17.4282,5.5658,9.283
2026-07-22T15:33:50.072,17.4562,5.5854,9.2243
2026-07-22T15:33:50.072,17.4582,5.5463,9.2243
2026-07-22T15:33:50.072,17.4582,5.4679,9.2635
2026-07-22T15:33:50.090,17.4945,5.5267,9.1851
2026-07-22T15:33:50.104,17.4945,5.5267,9.2047
2026-07-22T15:33:50.120,17.4945,5.5463,9.2635
2026-07-22T15:33:50.120,17.4945,5.5658,9.2635
2026-07-22T15:33:50.136,17.5254,5.5463,9.283
2026-07-22T15:33:50.152,17.5372,5.5463,9.283
2026-07-22T15:33:50.156,17.5418,5.5854,9.4005
2026-07-22T15:33:50.167,17.5418,5.5854,9.3418
2026-07-22T15:33:50.187,17.5688,5.5854,9.3418
2026-07-22T15:33:50.187,17.5688,5.5463,9.3222
2026-07-22T15:33:50.199,17.5796,5.5463,9.3222
2026-07-22T15:33:50.204,17.5846,5.5854,9.3809
2026-07-22T15:33:50.217,17.6003,5.6246,9.3418
2026-07-22T15:33:50.231,17.6129,5.8008,9.3222
2026-07-22T15:33:50.240,17.6162,5.5854,9.3809
2026-07-22T15:33:50.249,17.6162,5.5854,9.3614
2026-07-22T15:33:50.256,17.6478,5.5267,9.4005
2026-07-22T15:33:50.262,17.6478,5.5463,9.3809
2026-07-22T15:33:50.278,17.6478,5.5854,9.3222
2026-07-22T15:33:50.278,17.6478,5.5658,9.3418
2026-07-22T15:33:50.296,17.6792,5.605,9.2635
2026-07-22T15:33:50.296,17.6845,5.5854,9.3026
2026-07-22T15:33:50.310,17.6906,5.6246,9.3418
2026-07-22T15:33:50.325,17.7194,5.5463,9.3418
2026-07-22T15:33:50.341,17.7241,5.605,9.3614
2026-07-22T15:33:50.352,17.7261,5.6637,9.3222
2026-07-22T15:33:50.357,17.7261,5.605,9.3222
2026-07-22T15:33:50.357,17.7578,5.5267,9.283
2026-07-22T15:33:50.372,17.7625,5.6246,9.3222
2026-07-22T15:33:50.388,17.7674,5.6442,9.3418
2026-07-22T15:33:50.395,17.7737,5.5463,9.3222
2026-07-22T15:33:50.404,17.7908,5.5267,9.283
2026-07-22T15:33:50.420,17.7908,5.5463,9.3222
2026-07-22T15:33:50.429,17.805,5.5071,9.3222
2026-07-22T15:33:50.436,17.805,5.5854,9.2243
2026-07-22T15:33:50.436,17.8372,5.605,9.283
2026-07-22T15:33:50.453,17.8433,5.5267,9.3222
2026-07-22T15:33:50.467,17.8433,5.5463,9.2635
2026-07-22T15:33:50.467,17.872,5.5463,9.3418
2026-07-22T15:33:50.483,17.872,5.5854,9.283
2026-07-22T15:33:50.499,17.8844,5.5463,9.3418
2026-07-22T15:33:50.505,17.8844,5.5658,9.2635
2026-07-22T15:33:50.515,17.9132,5.5658,9.3222
2026-07-22T15:33:50.530,17.9161,5.5267,9.3418
2026-07-22T15:33:50.534,17.9161,5.5854,9.3026
2026-07-22T15:33:50.546,17.9264,5.5463,9.283
2026-07-22T15:33:50.553,17.9501,5.6246,9.3614
2026-07-22T15:33:50.562,17.9572,5.5071,9.3026
2026-07-22T15:33:50.578,17.9599,5.5267,9.3222
2026-07-22T15:33:50.588,17.9636,5.4679,9.283
2026-07-22T15:33:50.594,17.9911,5.5658,9.3026
2026-07-22T15:33:50.594,17.9932,5.5463,9.3026
2026-07-22T15:33:50.622,17.9952,5.5854,9.3418
2026-07-22T15:33:50.625,17.9988,5.5463,9.4005
2026-07-22T15:33:50.628,18.0113,5.5658,9.3222
2026-07-22T15:33:50.646,18.027,5.5267,9.3026
2026-07-22T15:33:50.661,18.027,5.4875,9.3222
2026-07-22T15:33:50.664,18.0634,5.5071,9.3026
2026-07-22T15:33:50.673,18.0694,5.5267,9.3026
2026-07-22T15:33:50.689,18.0752,5.4679,9.3222
2026-07-22T15:33:50.689,18.0802,5.5463,9.3222
2026-07-22T15:33:50.705,18.1048,5.5463,9.3026
2026-07-22T15:33:50.721,18.1079,5.5267,9.283
2026-07-22T15:33:50.737,18.1111,5.5071,9.3222
2026-07-22T15:33:50.739,18.1194,5.5658,9.3614
2026-07-22T15:33:50.751,18.1376,5.4679,9.3418
2026-07-22T15:33:50.761,18.1486,5.5267,9.3614
2026-07-22T15:33:50.773,18.1509,5.5463,9.3809
2026-07-22T15:33:50.773,18.1509,5.5463,9.283
2026-07-22T15:33:50.793,18.1849,5.4483,9.3026
2026-07-22T15:33:50.799,18.1908,5.5267,9.3418
2026-07-22T15:33:50.799,18.1959,5.4679,9.3418
2026-07-22T15:33:50.813,18.2009,5.5267,9.3222
2026-07-22T15:33:50.813,18.222,5.5071,9.3222
2026-07-22T15:33:50.844,18.222,5.5463,9.3222
2026-07-22T15:33:50.848,18.236,5.4288,9.3418
2026-07-22T15:33:50.860,18.2418,5.5071,9.283
2026-07-22T15:33:50.867,18.269,5.4288,9.3614
2026-07-22T15:33:50.884,18.2777,5.4483,9.3614
2026-07-22T15:33:50.884,18.2777,5.4875,9.3614
2026-07-22T15:33:50.898,18.2777,5.5463,9.3809
2026-07-22T15:33:50.909,18.2942,5.4875,9.4005
2026-07-22T15:33:50.915,18.3155,5.5071,9.3222
2026-07-22T15:33:50.915,18.321,5.4483,9.3418
2026-07-22T15:33:50.939,18.3269,5.4875,9.3418
2026-07-22T15:33:50.949,18.3269,5.4288,9.283
2026-07-22T15:33:50.956,18.3269,5.4875,9.3809
2026-07-22T15:33:50.956,18.3575,5.5658,9.4201
2026-07-22T15:33:50.977,18.3626,5.5658,9.4789
2026-07-22T15:33:50.989,18.3684,5.5267,9.4397
2026-07-22T15:33:50.989,18.3851,5.5267,9.5572
2026-07-22T15:33:51.004,18.3925,5.5463,9.4593
2026-07-22T15:33:51.018,18.3925,5.5071,9.4201
2026-07-22T15:33:51.024,18.3993,5.4679,9.4201
2026-07-22T15:33:51.034,18.43,5.5071,9.4593
2026-07-22T15:33:51.047,18.4311,5.4483,9.4593
2026-07-22T15:33:51.061,18.4311,5.4875,9.4789
2026-07-22T15:33:51.061,18.4382,5.4092,9.4593
2026-07-22T15:33:51.077,18.466,5.5071,9.4789
2026-07-22T15:33:51.077,18.466,5.5267,9.4984
2026-07-22T15:33:51.093,18.4739,5.4875,9.4201
2026-07-22T15:33:51.109,18.4991,5.5071,9.4789
2026-07-22T15:33:51.109,18.5069,5.4288,9.4789
2026-07-22T15:33:51.128,18.5105,5.4483,9.4201
2026-07-22T15:33:51.136,18.5105,5.4679,9.4397
2026-07-22T15:33:51.158,18.5423,5.5267,9.4005
2026-07-22T15:33:51.158,18.5423,5.4875,9.4201
2026-07-22T15:33:51.169,18.5423,5.4679,9.4593
2026-07-22T15:33:51.179,18.5581,5.4483,9.4789
2026-07-22T15:33:51.192,18.5877,5.3504,9.4789
2026-07-22T15:33:51.192,18.5877,5.4679,9.4397
2026-07-22T15:33:51.204,18.5936,5.3896,9.4201
2026-07-22T15:33:51.219,18.5936,5.4092,9.4789
2026-07-22T15:33:59.804,27.1949,3.8427,11.2607
2026-07-22T15:33:59.813,27.1969,3.9602,11.2803
2026-07-22T15:33:59.825,27.2007,3.921,11.202
2026-07-22T15:33:59.832,27.2025,3.8819,11.2215
2026-07-22T15:33:59.848,27.2344,3.8623,11.2215
2026-07-22T15:33:59.850,27.2365,3.8819,11.1628
2026-07-22T15:33:59.862,27.2437,3.9015,11.202
2026-07-22T15:33:59.864,27.2437,3.921,11.2803
2026-07-22T15:33:59.887,27.2758,3.921,11.2999
2026-07-22T15:33:59.898,27.2758,3.921,11.339
2026-07-22T15:33:59.905,27.2758,3.9015,11.2803
2026-07-22T15:33:59.917,27.3027,3.9602,11.2803
2026-07-22T15:33:59.917,27.3027,3.9406,11.2411
2026-07-22T15:33:59.938,27.3027,3.9602,11.2999
2026-07-22T15:33:59.938,27.3185,4.0385,11.3194
2026-07-22T15:33:59.964,27.3509,3.8819,11.339
2026-07-22T15:33:59.964,27.3528,3.9798,11.339
2026-07-22T15:33:59.964,27.3593,3.9406,11.3978
2026-07-22T15:33:59.980,27.3633,3.9602,11.339
2026-07-22T15:33:59.996,27.3942,4.0581,11.3194
2026-07-22T15:33:59.996,27.3967,3.921,11.3194
2026-07-22T15:34:00.021,27.4027,3.9798,11.3586
2026-07-22T15:34:00.025,27.4037,3.8819,11.4565
2026-07-22T15:34:00.038,27.4258,3.921,11.4173
2026-07-22T15:34:00.049,27.4258,3.8231,11.3978
2026-07-22T15:34:00.058,27.4419,3.8427,11.3586
2026-07-22T15:34:00.064,27.4444,3.8623,11.2607
2026-07-22T15:34:00.076,27.4702,3.8427,11.3194
2026-07-22T15:34:00.088,27.4768,3.8623,11.2999
2026-07-22T15:34:00.088,27.486,3.921,11.2999
2026-07-22T15:34:00.106,27.49,3.8427,11.3782
2026-07-22T15:34:00.116,27.517,3.9015,11.3586
2026-07-22T15:34:00.132,27.517,3.8623,11.2411
2026-07-22T15:34:00.132,27.517,3.8623,11.3194
2026-07-22T15:34:00.152,27.5327,3.8623,11.2803
2026-07-22T15:34:00.152,27.5366,3.9015,11.3194
2026-07-22T15:34:00.163,27.5675,3.921,11.3782
2026-07-22T15:34:00.163,27.5714,3.9602,11.4957
2026-07-22T15:34:00.179,27.579,3.8623,11.339
2026-07-22T15:34:00.198,27.5856,3.9406,11.4173
2026-07-22T15:34:00.203,27.6136,3.8427,11.2803
2026-07-22T15:34:00.210,27.6136,3.9994,11.4173
2026-07-22T15:34:00.210,27.6184,3.8427,11.4369
2026-07-22T15:34:00.241,27.6275,3.9015,11.4957
2026-07-22T15:34:00.247,27.6275,3.8819,11.5152
2026-07-22T15:34:00.257,27.6582,3.921,11.6132
2026-07-22T15:34:00.257,27.6582,3.9015,11.5152
2026-07-22T15:34:00.274,27.6582,3.9406,11.574
2026-07-22T15:34:00.288,27.6671,3.8819,11.5348
2026-07-22T15:34:00.293,27.6749,3.8231,11.574
2026-07-22T15:34:00.302,27.6998,3.8623,11.4565
2026-07-22T15:34:00.304,27.703,3.9015,11.4565
2026-07-22T15:34:00.337,27.7114,3.8623,11.4761
2026-07-22T15:34:00.337,27.7152,3.8623,11.4369
2026-07-22T15:34:00.345,27.7387,3.8819,11.4565
2026-07-22T15:34:00.357,27.7387,3.9015,11.4173
2026-07-22T15:34:00.365,27.7505,3.8231,11.3782
2026-07-22T15:34:00.373,27.7505,3.8819,11.3782
2026-07-22T15:34:00.380,27.7758,3.8427,11.3586
2026-07-22T15:34:00.389,27.7758,3.8623,11.3978
2026-07-22T15:34:00.400,27.7834,3.8036,11.2999
2026-07-22T15:34:00.419,27.7844,3.8231,11.3194
2026-07-22T15:34:00.425,27.8125,3.8427,11.339
2026-07-22T15:34:00.433,27.8162,3.8231,11.2999
2026-07-22T15:34:00.438,27.8241,3.784,11.2803
2026-07-22T15:34:00.454,27.8272,3.8231,11.2607
2026-07-22T15:34:00.462,27.8474,3.8427,11.2607
2026-07-22T15:34:00.462,27.8474,3.784,11.2411
2026-07-22T15:34:00.486,27.8634,3.8427,11.2411
2026-07-22T15:34:00.494,27.8865,3.8231,11.2215
2026-07-22T15:34:00.494,27.8959,3.8231,11.1628
2026-07-22T15:34:00.509,27.9013,3.8427,11.1628
2026-07-22T15:34:00.525,27.9037,3.8036,11.1236
2026-07-22T15:34:00.541,27.9333,3.8036,11.1628
2026-07-22T15:34:00.541,27.9333,3.7448,11.1432
2026-07-22T15:34:00.558,27.9424,3.8231,11.1041
2026-07-22T15:34:00.558,27.9424,3.7644,11.2215
2026-07-22T15:34:00.575,27.9741,3.8623,11.1236
2026-07-22T15:34:00.575,27.9776,3.784,11.1041
2026-07-22T15:34:00.595,27.9824,3.784,11.1236
2026-07-22T15:34:00.604,27.9868,3.6665,11.1236
2026-07-22T15:34:00.619,28.005,3.7644,11.1236
2026-07-22T15:34:00.620,28.0165,3.7252,11.0649
2026-07-22T15:34:00.636,28.0207,3.7644,11.0257
2026-07-22T15:34:00.649,28.0277,3.8036,10.9866
2026-07-22T15:34:00.651,28.0277,3.784,10.9866
2026-07-22T15:34:00.667,28.0537,3.7057,11.0649
2026-07-22T15:34:00.667,28.0537,3.7057,10.9866
2026-07-22T15:34:00.682,28.0627,3.7057,10.9278
2026-07-22T15:34:00.689,28.0692,3.7448,11.0061
2026-07-22T15:34:00.700,28.096,3.7448,10.9082
2026-07-22T15:34:00.700,28.0989,3.7644,10.9474
2026-07-22T15:34:00.724,28.1056,3.6861,10.8887
2026-07-22T15:34:00.731,28.1091,3.7057,10.9474
2026-07-22T15:34:00.731,28.1362,3.7057,10.8887
2026-07-22T15:34:00.745,28.1406,3.6469,10.9278
2026-07-22T15:34:00.767,28.1437,3.6469,10.8691
2026-07-22T15:34:00.773,28.1513,3.6665,10.8495
2026-07-22T15:34:00.783,28.1766,3.5882,10.8299
2026-07-22T15:34:00.792,28.1801,3.6273,10.8887
2026-07-22T15:34:00.805,28.1874,3.6861,10.8495
2026-07-22T15:34:00.815,28.1911,3.6469,10.8495
2026-07-22T15:34:00.825,28.2202,3.6665,10.8495
2026-07-22T15:34:00.834,28.2227,3.7252,10.8691
2026-07-22T15:34:00.853,28.232,3.7252,10.8887
2026-07-22T15:34:00.853,28.232,3.7252,10.8887
2026-07-22T15:34:00.865,28.2603,3.6469,10.8495
2026-07-22T15:34:00.865,28.2633,3.6665,10.9278
2026-07-22T15:34:00.884,28.2703,3.5882,10.8495
2026-07-22T15:34:00.894,28.2755,3.6861,10.8495
2026-07-22T15:34:00.898,28.3066,3.7057,10.8495
2026-07-22T15:34:00.917,28.3066,3.7252,10.8299
2026-07-22T15:34:00.924,28.3066,3.6469,10.8691
2026-07-22T15:34:00.937,28.3226,3.6665,10.9082
2026-07-22T15:34:00.943,28.3226,3.6469,10.9278
2026-07-22T15:34:00.958,28.3576,3.7057,10.9474
2026-07-22T15:34:00.958,28.3576,3.6665,10.967
2026-07-22T15:34:00.968,28.3613,3.7644,10.9866
2026-07-22T15:34:00.984,28.3613,3.7057,10.967
2026-07-22T15:34:00.996,28.3961,3.7644,10.9474
2026-07-22T15:34:01.000,28.3961,3.6861,11.0453
2026-07-22T15:34:01.000,28.3961,3.7252,11.0845
2026-07-22T15:34:01.023,28.4092,3.6861,11.1236
2026-07-22T15:34:01.034,28.4092,3.7644,11.0649
2026-07-22T15:34:01.053,28.4427,3.8036,11.0845
2026-07-22T15:34:01.053,28.4427,3.7448,11.0453
2026-07-22T15:34:01.058,28.4427,3.7252,11.1041
2026-07-22T15:34:01.071,28.4569,3.6665,11.1041
2026-07-22T15:34:01.085,28.4706,3.7448,11.1432
2026-07-22T15:34:01.091,28.4896,3.7644,11.1432
2026-07-22T15:34:01.105,28.4964,3.8036,11.1824
2026-07-22T15:34:01.116,28.5019,3.8036,11.1236
2026-07-22T15:34:01.119,28.5019,3.784,11.202
2026-07-22T15:34:01.132,28.5359,3.784,11.1041
2026-07-22T15:34:01.132,28.5359,3.7057,11.1041
2026-07-22T15:34:01.154,28.5359,3.7252,11.1432
2026-07-22T15:34:01.164,28.5442,3.8231,11.1236
2026-07-22T15:34:01.178,28.5665,3.8036,11.1236
2026-07-22T15:34:01.180,28.5665,3.7448,11.1432
2026-07-22T15:34:01.198,28.5832,3.8427,11.2411
2026-07-22T15:34:01.206,28.5888,3.8231,11.2411
2026-07-22T15:34:01.212,28.5973,3.8231,11.339
2026-07-22T15:34:01.228,28.6255,3.8623,11.2411
2026-07-22T15:34:01.228,28.6255,3.8427,11.2607
2026-07-22T15:34:01.245,28.6321,3.8231,11.2607
2026-07-22T15:34:01.251,28.6346,3.8231,11.2411
2026-07-22T15:34:01.266,28.6605,3.8427,11.2803
2026-07-22T15:34:01.275,28.662,3.7057,11.2607
2026-07-22T15:34:01.287,28.662,3.784,11.2215
2026-07-22T15:34:01.294,28.6704,3.7644,11.1824
2026-07-22T15:34:01.307,28.6984,3.784,11.0845
2026-07-22T15:34:01.310,28.702,3.7644,11.202
2026-07-22T15:34:01.324,28.7078,3.7057,11.202
2026-07-22T15:34:01.338,28.7078,3.8036,11.2411
2026-07-22T15:34:01.347,28.7398,3.7252,11.2607
2026-07-22T15:34:01.355,28.7418,3.7252,11.2607
2026-07-22T15:34:01.366,28.7457,3.784,11.1236
2026-07-22T15:34:01.370,28.7457,3.8036,11.1628
2026-07-22T15:34:01.392,28.7781,3.8427,11.1628
2026-07-22T15:34:01.392,28.7812,3.8231,11.2411
2026-07-22T15:34:01.407,28.7836,3.7644,11.202
2026-07-22T15:34:01.407,28.7877,3.784,11.1432
2026-07-22T15:34:01.423,28.8137,3.784,11.0649
2026-07-22T15:34:01.433,28.8194,3.8036,11.1432
2026-07-22T15:34:01.445,28.8235,3.8036,11.1041
2026-07-22T15:34:01.454,28.8527,3.9015,11.1628
2026-07-22T15:34:01.458,28.8612,3.784,11.1041
2026-07-22T15:34:01.475,28.8633,3.7448,11.1432
2026-07-22T15:34:01.485,28.868,3.7644,11.1628
2026-07-22T15:34:01.492,28.8968,3.8036,11.1824
2026-07-22T15:34:01.501,28.8985,3.8036,11.1041
2026-07-22T15:34:01.523,28.8985,3.7644,11.0649
2026-07-22T15:34:01.525,28.9086,3.7448,11.0845
2026-07-22T15:34:01.533,28.9086,3.7644,11.0845
2026-07-22T15:34:01.546,28.9403,3.7252,11.0257
2026-07-22T15:34:01.546,28.9403,3.7448,11.1041
2026-07-22T15:34:01.560,28.9502,3.7057,11.0649
2026-07-22T15:34:01.576,28.9502,3.784,11.1041
2026-07-22T15:34:01.584,28.979,3.784,11.0649
2026-07-22T15:34:01.593,28.9873,3.784,11.0649
2026-07-22T15:34:01.602,28.9929,3.7644,11.0649
2026-07-22T15:34:01.612,28.9968,3.7644,11.0845
2026-07-22T15:34:01.625,29.024,3.7057,11.1432
2026-07-22T15:34:01.625,29.0312,3.7644,11.1628
2026-07-22T15:34:01.649,29.0369,3.784,11.1041
2026-07-22T15:34:01.655,29.0398,3.8231,11.0257
2026-07-22T15:34:01.665,29.0485,3.7252,11.1041
2026-07-22T15:34:01.681,29.0727,3.7252,11.0649
2026-07-22T15:34:01.681,29.0727,3.7644,11.1236
2026-07-22T15:34:01.693,29.0817,3.784,11.1041
2026-07-22T15:34:01.710,29.0897,3.784,11.1236
2026-07-22T15:34:01.710,29.0919,3.7448,11.1041
2026-07-22T15:34:01.733,29.1188,3.8036,11.0453
2026-07-22T15:34:01.733,29.1188,3.784,11.0845
2026-07-22T15:34:01.743,29.1259,3.7644,11.1628
2026-07-22T15:34:01.754,29.1346,3.8036,11.1432
2026-07-22T15:34:01.765,29.1664,3.7448,11.0845
2026-07-22T15:34:01.765,29.1684,3.8036,11.1824
2026-07-22T15:34:01.788,29.1684,3.8036,11.1628
2026-07-22T15:34:01.793,29.1778,3.8231,11.0453
2026-07-22T15:34:01.801,29.1982,3.8819,11.1824
2026-07-22T15:34:01.813,29.214,3.7644,11.1628
2026-07-22T15:34:01.813,29.214,3.8036,11.1432
2026-07-22T15:34:01.830,29.2203,3.8036,11.1041
2026-07-22T15:34:01.844,29.2317,3.8427,11.1236
2026-07-22T15:34:01.860,29.2654,3.8427,11.1236
2026-07-22T15:34:01.860,29.2664,3.8623,11.1041
2026-07-22T15:34:01.876,29.2733,3.921,11.1628
2026-07-22T15:34:01.882,29.2764,3.8231,11.1824
2026-07-22T15:34:01.893,29.2799,3.8231,11.1824
2026-07-22T15:34:01.908,29.313,3.8036,11.202
2026-07-22T15:34:01.908,29.313,3.8231,11.339
2026-07-22T15:34:01.926,29.3201,3.8819,11.1628
2026-07-22T15:34:01.935,29.3251,3.8623,11.202
2026-07-22T15:34:01.946,29.3251,3.8427,11.2215
2026-07-22T15:34:01.951,29.3563,3.8036,11.339
2026-07-22T15:34:01.966,29.3597,3.8623,11.2999
2026-07-22T15:34:01.975,29.3597,3.8819,11.2999
2026-07-22T15:34:01.982,29.3707,3.8231,11.2607
2026-07-22T15:34:01.994,29.4044,3.8427,11.2607
2026-07-22T15:34:02.013,29.409,3.8231,11.202
2026-07-22T15:34:02.013,29.409,3.8036,11.1824
2026-07-22T15:34:02.029,29.4212,3.7644,11.1041
2026-07-22T15:34:02.035,29.4212,3.8623,11.1236
2026-07-22T15:34:02.052,29.4504,3.8231,11.1432
2026-07-22T15:34:02.058,29.455,3.8427,11.2215
2026-07-22T15:34:02.065,29.4587,3.8819,11.0649
2026-07-22T15:34:02.071,29.4587,3.8427,11.0845
2026-07-22T15:34:02.083,29.4711,3.7644,11.0649
2026-07-22T15:34:02.096,29.4976,3.8231,11.0649
2026-07-22T15:34:02.099,29.5021,3.8036,11.0257
2026-07-22T15:34:02.112,29.5072,3.784,11.1824
2026-07-22T15:34:02.120,29.5122,3.784,11.0649
2026-07-22T15:34:02.135,29.5151,3.8036,11.1041
2026-07-22T15:34:02.152,29.5366,3.8231,11.0649
2026-07-22T15:34:02.152,29.5366,3.8231,11.1236
2026-07-22T15:34:02.169,29.5366,3.8231,10.9278
2026-07-22T15:34:02.174,29.5546,3.7644,11.0649
2026-07-22T15:34:02.187,29.5848,3.8036,10.9082
2026-07-22T15:34:02.198,29.5848,3.7644,10.9278
2026-07-22T15:34:02.198,29.5909,3.8036,10.9278
2026-07-22T15:34:02.216,29.5965,3.8231,10.9278
2026-07-22T15:34:02.227,29.6237,3.7448,10.9278
2026-07-22T15:34:02.241,29.6307,3.8036,10.9866
2026-07-22T15:34:02.247,29.6333,3.7644,11.0257
2026-07-22T15:34:02.256,29.6333,3.7644,10.967
2026-07-22T15:34:02.278,29.6696,3.7644,10.8887
2026-07-22T15:34:02.278,29.6696,3.8036,10.9278
2026-07-22T15:34:02.285,29.6795,3.8231,10.9082
2026-07-22T15:34:02.295,29.6857,3.8036,10.8887
2026-07-22T15:34:02.304,29.6892,3.8231,10.9866
2026-07-22T15:34:02.316,29.7201,3.8231,10.9474
2026-07-22T15:34:02.327,29.7247,3.7644,10.9474
2026-07-22T15:34:02.331,29.7272,3.8231,10.967
2026-07-22T15:34:02.351,29.7393,3.8231,10.9474
2026-07-22T15:34:02.351,29.7418,3.8036,10.9866
2026-07-22T15:34:02.364,29.7696,3.784,10.9082
2026-07-22T15:34:02.372,29.7743,3.7448,11.0061
2026-07-22T15:34:02.386,29.7743,3.8427,11.0453
2026-07-22T15:34:02.399,29.7825,3.8036,11.0257
2026-07-22T15:34:02.404,29.786,3.8231,11.0649
2026-07-22T15:34:02.414,29.8114,3.8231,11.0061
2026-07-22T15:34:02.420,29.8114,3.7644,11.0453
2026-07-22T15:34:02.436,29.8204,3.7644,11.0257
2026-07-22T15:34:02.448,29.8272,3.784,11.1041
2026-07-22T15:34:02.458,29.8533,3.784,11.0061
2026-07-22T15:34:02.466,29.8599,3.8036,11.0257
2026-07-22T15:34:02.473,29.8625,3.6273,10.9278
2026-07-22T15:34:02.489,29.8691,3.8036,10.9474
2026-07-22T15:34:02.497,29.9,3.7448,10.9278
2026-07-22T15:34:02.497,29.9,3.7644,10.967
2026-07-22T15:34:02.522,29.9,3.784,11.0453
2026-07-22T15:34:02.524,29.9147,3.8036,11.0649
2026-07-22T15:34:02.531,29.9147,3.7644,11.0257
2026-07-22T15:34:02.545,29.9467,3.8231,11.0845
2026-07-22T15:34:02.545,29.9506,3.8036,11.0257
2026-07-22T15:34:02.562,29.9541,3.8036,10.967
2026-07-22T15:34:02.576,29.9541,3.7644,11.0257
2026-07-22T15:34:02.576,29.9934,3.8036,11.0257
2026-07-22T15:34:02.592,29.9945,3.7448,10.967
2026-07-22T15:34:02.596,29.9981,3.784,11.0061
2026-07-22T15:34:02.612,30.0029,3.7644,11.0453
2026-07-22T15:34:02.628,30.0106,3.8036,11.0061
2026-07-22T15:34:02.636,30.0344,3.8036,11.0453
2026-07-22T15:34:02.640,30.0463,3.8427,11.0257
2026-07-22T15:34:02.656,30.0486,3.784,10.9474
2026-07-22T15:34:02.667,30.0538,3.8036,11.0061
2026-07-22T15:34:02.672,30.0579,3.8231,10.967
2026-07-22T15:34:02.688,30.0842,3.784,11.1041
2026-07-22T15:34:02.688,30.0865,3.8427,11.0257
2026-07-22T15:34:02.708,30.0913,3.8231,11.1236
2026-07-22T15:34:02.716,30.0967,3.784,11.0453
2026-07-22T15:34:02.727,30.1207,3.8036,11.0453
2026-07-22T15:34:02.737,30.1327,3.7448,10.967
2026-07-22T15:34:02.751,30.1365,3.7448,10.8887
2026-07-22T15:34:02.758,30.1365,3.7448,11.0061
2026-07-22T15:34:02.762,30.1743,3.784,11.1236
2026-07-22T15:34:02.771,30.1743,3.8231,11.1041
2026-07-22T15:34:02.782,30.1818,3.8231,11.1236
2026-07-22T15:34:02.794,30.1881,3.8231,11.1824
2026-07-22T15:34:02.798,30.191,3.8231,11.1041
2026-07-22T15:34:02.814,30.2191,3.784,11.1041
2026-07-22T15:34:02.829,30.2225,3.8036,11.1824
2026-07-22T15:34:02.836,30.2285,3.8036,11.1628
2026-07-22T15:34:02.850,30.2333,3.8231,11.2411
2026-07-22T15:34:02.853,30.24,3.784,11.2411
2026-07-22T15:34:02.866,30.266,3.8231,11.1824
2026-07-22T15:34:02.877,30.266,3.8036,11.1824
2026-07-22T15:34:02.895,30.2783,3.8427,11.1628
2026-07-22T15:34:02.902,30.2827,3.7644,11.1824
2026-07-22T15:34:02.902,30.2872,3.8036,11.1824
2026-07-22T15:34:02.911,30.3101,3.7448,11.1041
2026-07-22T15:34:02.924,30.3101,3.8231,11.0845
2026-07-22T15:34:02.938,30.3262,3.7448,11.0649
2026-07-22T15:34:02.949,30.3284,3.7644,11.0453
2026-07-22T15:34:02.956,30.3588,3.7057,11.0845
2026-07-22T15:34:02.961,30.3633,3.8036,11.0845
2026-07-22T15:34:02.972,30.368,3.7644,11.1236
2026-07-22T15:34:02.988,30.3744,3.8036,11.0845
2026-07-22T15:34:02.990,30.3793,3.784,11.1041
2026-07-22T15:34:03.004,30.4056,3.8036,11.0845
2026-07-22T15:34:03.021,30.4056,3.8231,11.0845
2026-07-22T15:34:03.035,30.4179,3.784,11.0649
2026-07-22T15:34:03.035,30.4208,3.784,11.1824
2026-07-22T15:34:03.043,30.446,3.7644,11.1432
2026-07-22T15:34:03.062,30.4523,3.7448,11.1432
2026-07-22T15:34:03.067,30.4523,3.7644,11.1041
2026-07-22T15:34:03.080,30.4523,3.7252,11.1628
2026-07-22T15:34:03.085,30.4662,3.8231,11.1041
2026-07-22T15:34:03.097,30.4941,3.7448,11.1628
2026-07-22T15:34:03.098,30.4961,3.8036,11.1432
2026-07-22T15:34:03.114,30.5046,3.784,11.1824
2026-07-22T15:34:03.114,30.5056,3.8036,11.1432
2026-07-22T15:34:03.137,30.5358,3.784,11.1041
2026-07-22T15:34:03.149,30.5404,3.8036,11.0453
2026-07-22T15:34:03.158,30.545,3.6665,11.0649
2026-07-22T15:34:03.166,30.545,3.7448,11.1824
2026-07-22T15:34:03.173,30.5544,3.7644,11.1824
2026-07-22T15:34:03.184,30.5865,3.7057,11.1628
2026-07-22T15:34:03.202,30.5923,3.6861,11.2411
2026-07-22T15:34:03.207,30.5923,3.7644,11.0649
2026-07-22T15:34:03.216,30.5999,3.7057,11.1236
2026-07-22T15:34:03.230,30.6198,3.7057,11.1041
2026-07-22T15:34:03.230,30.6198,3.6861,11.1041
2026-07-22T15:34:03.246,30.6198,3.7252,11.1236
2026-07-22T15:34:03.254,30.6388,3.7057,11.0845
2026-07-22T15:34:03.264,30.6438,3.7057,11.1041
2026-07-22T15:34:03.282,30.6784,3.6469,11.0257
2026-07-22T15:34:03.282,30.6784,3.7448,10.9866
2026-07-22T15:34:03.282,30.6877,3.7057,11.0061
2026-07-22T15:34:03.306,30.6899,3.6665,10.9866
2026-07-22T15:34:03.330,30.7216,3.6861,11.0453
2026-07-22T15:34:03.330,30.7216,3.6665,10.9866
2026-07-22T15:34:03.340,30.7308,3.5882,10.967
2026-07-22T15:34:03.349,30.7308,3.6273,10.967
2026-07-22T15:34:03.356,30.7367,3.6273,10.9278
2026-07-22T15:34:03.363,30.7687,3.6078,10.9866
2026-07-22T15:34:03.376,30.7728,3.6861,11.0257
2026-07-22T15:34:03.383,30.78,3.6469,10.9866
2026-07-22T15:34:03.393,30.78,3.6078,11.0845
2026-07-22T15:34:03.398,30.7903,3.6469,11.0845
2026-07-22T15:34:03.424,30.8219,3.6861,11.0453
2026-07-22T15:34:03.424,30.8219,3.6861,11.0061
2026-07-22T15:34:03.442,30.8306,3.6665,10.9866
2026-07-22T15:34:03.442,30.8344,3.8036,11.0649
2026-07-22T15:34:03.461,30.8641,3.6469,11.1041
2026-07-22T15:34:03.471,30.8641,3.7448,11.1041
2026-07-22T15:34:03.471,30.8641,3.6665,11.0845
2026-07-22T15:34:03.484,30.8723,3.6861,11.0845
2026-07-22T15:34:03.496,30.8815,3.6665,11.0845
2026-07-22T15:34:03.503,30.9105,3.6861,11.0649
2026-07-22T15:34:03.518,30.913,3.7057,11.1628
2026-07-22T15:34:03.526,30.9171,3.7057,11.1236
2026-07-22T15:34:03.534,30.9221,3.6861,11.1236
2026-07-22T15:34:03.548,30.9263,3.6861,11.1236
2026-07-22T15:34:03.567,30.9507,3.7448,11.0845
2026-07-22T15:34:03.567,30.9507,3.7448,11.1041
2026-07-22T15:34:03.579,30.9663,3.7448,11.1041
2026-07-22T15:34:03.584,30.9686,3.7644,11.1236
2026-07-22T15:34:03.599,30.9994,3.7644,11.1628
2026-07-22T15:34:03.613,31.0049,3.7448,11.1432
2026-07-22T15:34:03.613,31.007,3.7448,11.1432
2026-07-22T15:34:03.630,31.0118,3.7644,11.1236
2026-07-22T15:34:03.639,31.0188,3.7252,11.1628
2026-07-22T15:34:03.646,31.0463,3.784,11.1824
2026-07-22T15:34:03.659,31.0463,3.7644,11.1824
2026-07-22T15:34:03.667,31.0606,3.8036,11.1628
2026-07-22T15:34:03.674,31.0652,3.8036,11.1432
2026-07-22T15:34:03.691,31.0926,3.784,11.1041
2026-07-22T15:34:03.691,31.0926,3.6469,11.0649
2026-07-22T15:34:03.707,31.0996,3.7252,11.0649
2026-07-22T15:34:03.715,31.1033,3.7644,11.0649
2026-07-22T15:34:03.727,31.1085,3.7448,11.1041
2026-07-22T15:34:03.740,31.1328,3.7448,11.1236
2026-07-22T15:34:03.740,31.1379,3.7057,11.0453
2026-07-22T15:34:03.754,31.1423,3.6861,11.0649
2026-07-22T15:34:03.765,31.1423,3.6861,10.967
2026-07-22T15:34:03.774,31.172,3.6078,10.967
2026-07-22T15:34:03.786,31.176,3.6861,10.9866
2026-07-22T15:34:03.804,31.1831,3.7448,10.967
2026-07-22T15:34:03.804,31.1831,3.7252,11.0845
2026-07-22T15:34:03.804,31.186,3.6861,11.1041
2026-07-22T15:34:03.818,31.2136,3.7252,11.0845
2026-07-22T15:34:03.834,31.2191,3.6861,11.0257
2026-07-22T15:34:03.848,31.2216,3.7252,11.0453
2026-07-22T15:34:03.849,31.2528,3.7644,11.0845
2026-07-22T15:34:03.865,31.2528,3.784,11.0257
2026-07-22T15:34:03.875,31.2528,3.7448,11.0649
2026-07-22T15:34:03.883,31.2649,3.7057,11.0845
2026-07-22T15:34:03.897,31.2908,3.6665,11.2215
2026-07-22T15:34:03.900,31.2908,3.6861,11.0845
2026-07-22T15:34:03.915,31.2981,3.6861,11.0453
2026-07-22T15:34:03.915,31.3001,3.7057,11.0453
2026-07-22T15:34:03.928,31.3324,3.7252,11.0845
2026-07-22T15:34:03.947,31.3324,3.7448,11.1236
2026-07-22T15:34:03.953,31.3439,3.7252,11.1628
2026-07-22T15:34:03.962,31.3477,3.784,11.1432
2026-07-22T15:34:03.976,31.3787,3.6861,11.1628
2026-07-22T15:34:03.976,31.3787,3.784,11.0845
2026-07-22T15:34:03.994,31.3787,3.7448,11.0845
2026-07-22T15:34:04.009,31.3869,3.784,11.0845
2026-07-22T15:34:04.014,31.3925,3.8036,11.0453
2026-07-22T15:34:04.023,31.4221,3.7448,11.1432
2026-07-22T15:34:04.023,31.4239,3.7057,11.1628
2026-07-22T15:34:04.049,31.4239,3.7252,11.2215
2026-07-22T15:34:04.054,31.4239,3.7448,11.1824
2026-07-22T15:34:04.070,31.4617,3.8427,11.2607
2026-07-22T15:34:04.070,31.4654,3.7644,11.1628
2026-07-22T15:34:04.086,31.4677,3.784,11.1628
2026-07-22T15:34:04.086,31.4709,3.7448,11.1628
2026-07-22T15:34:04.101,31.5052,3.7448,11.2411
2026-07-22T15:34:04.117,31.5052,3.784,11.202
2026-07-22T15:34:04.127,31.5122,3.8231,11.2215
2026-07-22T15:34:04.138,31.5172,3.8231,11.2999
2026-07-22T15:34:04.148,31.5418,3.8036,11.2803
2026-07-22T15:34:04.148,31.5444,3.7252,11.2411
2026-07-22T15:34:04.166,31.5444,3.8036,11.2411
2026-07-22T15:34:04.178,31.5536,3.8036,11.2607
2026-07-22T15:34:04.184,31.5791,3.7644,11.2803
2026-07-22T15:34:04.184,31.5791,3.8036,11.3782
2026-07-22T15:34:04.206,31.5839,3.8819,11.2999
2026-07-22T15:34:04.214,31.5909,3.784,11.2999
2026-07-22T15:34:04.231,31.6262,3.8231,11.2999
2026-07-22T15:34:04.235,31.6272,3.784,11.2607
2026-07-22T15:34:04.246,31.6322,3.784,11.3194
2026-07-22T15:34:04.253,31.6387,3.784,11.3586
2026-07-22T15:34:04.265,31.6625,3.8036,11.2999
2026-07-22T15:34:04.277,31.6703,3.8427,11.3586
2026-07-22T15:34:04.287,31.6703,3.8036,11.4173
2026-07-22T15:34:04.299,31.6703,3.784,11.339
2026-07-22T15:34:04.304,31.6703,3.784,11.339
2026-07-22T15:34:04.316,31.7027,3.7057,11.339
2026-07-22T15:34:04.324,31.7168,3.784,11.2999
2026-07-22T15:34:04.332,31.7184,3.7448,11.2803
2026-07-22T15:34:04.332,31.7236,3.8427,11.4173
2026-07-22T15:34:04.354,31.7563,3.8231,11.339
2026-07-22T15:34:04.364,31.7592,3.8623,11.3586
2026-07-22T15:34:04.379,31.7592,3.7644,11.4173
2026-07-22T15:34:04.389,31.7682,3.8036,11.3194
2026-07-22T15:34:04.411,31.8,3.784,11.339
2026-07-22T15:34:04.411,31.8015,3.8231,11.3586
2026-07-22T15:34:04.421,31.8015,3.8036,11.2999
2026-07-22T15:34:04.430,31.8096,3.7644,11.3194
2026-07-22T15:34:04.435,31.8096,3.8819,11.3782
2026-07-22T15:34:04.435,31.841,3.7252,11.3194
2026-07-22T15:34:04.446,31.8438,3.784,11.2999
2026-07-22T15:34:04.463,31.8496,3.8036,11.3586
2026-07-22T15:34:04.471,31.8754,3.8231,11.339
2026-07-22T15:34:04.482,31.8788,3.8427,11.3586
2026-07-22T15:34:04.494,31.8869,3.8231,11.339
2026-07-22T15:34:04.511,31.8942,3.8231,11.3194
2026-07-22T15:34:04.516,31.8957,3.8036,11.2803
2026-07-22T15:34:04.525,31.9259,3.8036,11.2607
2026-07-22T15:34:04.525,31.9259,3.8036,11.2999
2026-07-22T15:34:04.549,31.9259,3.8623,11.2607
2026-07-22T15:34:04.557,31.9259,3.6861,11.3194
2026-07-22T15:34:04.568,31.9608,3.8036,11.3194
2026-07-22T15:34:04.572,31.9608,3.7252,11.2803
2026-07-22T15:34:04.588,31.9608,3.7644,11.2607
2026-07-22T15:34:04.588,31.9729,3.8036,11.2215
2026-07-22T15:34:04.619,32.0026,3.8036,11.2215
2026-07-22T15:34:04.619,32.0032,3.7644,11.2411
2026-07-22T15:34:04.623,32.0099,3.784,11.2411
2026-07-22T15:34:04.639,32.0138,3.7448,11.2803
2026-07-22T15:34:04.646,32.0434,3.7644,11.2999
2026-07-22T15:34:04.650,32.0475,3.7252,11.2215
2026-07-22T15:34:04.671,32.0514,3.784,11.2215
2026-07-22T15:34:04.676,32.0514,3.784,11.2607
2026-07-22T15:34:04.687,32.0828,3.7644,11.202
2026-07-22T15:34:04.697,32.0869,3.7644,11.1824
2026-07-22T15:34:04.709,32.0869,3.7644,11.2215
2026-07-22T15:34:04.713,32.1016,3.7252,11.1236
2026-07-22T15:34:04.729,32.1303,3.7644,11.1628
2026-07-22T15:34:04.730,32.1333,3.6861,11.1628
2026-07-22T15:34:04.749,32.1361,3.8036,11.1041
2026-07-22T15:34:04.749,32.1417,3.7252,11.1236
2026-07-22T15:34:04.766,32.1718,3.7448,11.1824
2026-07-22T15:34:04.776,32.1794,3.6861,11.2411
2026-07-22T15:34:04.776,32.1794,3.7057,11.1236
2026-07-22T15:34:04.798,32.1887,3.7057,11.1236
2026-07-22T15:34:04.803,32.1887,3.6861,11.1432
2026-07-22T15:34:13.883,41.2629,8.0722,7.2466
2026-07-22T15:34:13.895,41.2928,8.0526,7.2858
2026-07-22T15:34:13.895,41.2928,8.1505,7.325
2026-07-22T15:34:13.910,41.2984,8.1505,7.2858
2026-07-22T15:34:13.925,41.3029,8.0526,7.3054
2026-07-22T15:34:13.936,41.3242,8.0526,7.2858
2026-07-22T15:34:13.939,41.3242,8.0722,7.2662
2026-07-22T15:34:13.955,41.3242,8.033,7.3054
2026-07-22T15:34:13.960,41.3399,8.1113,7.2271
2026-07-22T15:34:13.973,41.3764,8.0722,7.3641
2026-07-22T15:34:13.973,41.3764,8.0917,7.2466
2026-07-22T15:34:13.986,41.3814,8.0134,7.2662
2026-07-22T15:34:14.002,41.3874,8.0917,7.1879
2026-07-22T15:34:14.018,41.4165,8.033,7.2466
2026-07-22T15:34:14.018,41.4213,8.1113,7.2466
2026-07-22T15:34:14.034,41.424,8.1113,7.3445
2026-07-22T15:34:14.043,41.4265,8.0917,7.2858
2026-07-22T15:34:14.053,41.4357,8.0526,7.325
2026-07-22T15:34:14.060,41.4519,7.9547,7.2271
2026-07-22T15:34:14.075,41.4661,8.033,7.2466
2026-07-22T15:34:14.083,41.4676,8.033,7.2466
2026-07-22T15:34:14.094,41.474,8.0134,7.1879
2026-07-22T15:34:14.106,41.5029,8.0722,7.1487
2026-07-22T15:34:14.114,41.5084,7.9938,7.1879
2026-07-22T15:34:14.114,41.5133,7.9938,7.2466
2026-07-22T15:34:14.136,41.5153,7.9547,7.2466
2026-07-22T15:34:14.139,41.5413,7.9351,7.1487
2026-07-22T15:34:14.159,41.5452,7.9351,7.1487
2026-07-22T15:34:14.165,41.5452,7.9351,7.1096
2026-07-22T15:34:14.177,41.5452,7.8959,7.1683
2026-07-22T15:34:14.183,41.5792,7.9351,7.1292
2026-07-22T15:34:14.192,41.5792,7.8764,7.2075
2026-07-22T15:34:14.192,41.5792,7.9155,7.1683
2026-07-22T15:34:14.207,41.5792,7.9351,7.1683
2026-07-22T15:34:14.225,41.6225,7.9155,7.1292
2026-07-22T15:34:14.239,41.627,8.0526,7.1487
2026-07-22T15:34:14.241,41.6315,7.7589,7.1487
2026-07-22T15:34:14.255,41.6401,7.8176,7.1292
2026-07-22T15:34:14.263,41.6633,7.798,7.1879
2026-07-22T15:34:14.273,41.6633,7.7785,7.1292
2026-07-22T15:34:14.286,41.6633,7.8568,7.1292
2026-07-22T15:34:14.292,41.6711,7.8959,7.1879
2026-07-22T15:34:14.302,41.6778,7.798,7.1879
2026-07-22T15:34:14.317,41.7061,7.7785,7.1096
2026-07-22T15:34:14.325,41.7114,7.8176,7.2075
2026-07-22T15:34:14.325,41.7158,7.7589,7.1292
2026-07-22T15:34:14.344,41.7209,7.798,7.1487
2026-07-22T15:34:14.348,41.7478,7.8176,7.1487
2026-07-22T15:34:14.364,41.7508,7.8568,7.1292
2026-07-22T15:34:14.378,41.7588,7.798,7.1292
2026-07-22T15:34:14.383,41.7621,7.798,7.1292
2026-07-22T15:34:14.402,41.785,7.7001,7.1879
2026-07-22T15:34:14.402,41.785,7.798,7.1292
2026-07-22T15:34:14.423,41.7908,7.7785,7.1292
2026-07-22T15:34:14.423,41.7908,7.7785,7.1683
2026-07-22T15:34:14.440,41.8214,7.7393,7.2466
2026-07-22T15:34:14.440,41.8214,7.8176,7.1879
2026-07-22T15:34:14.453,41.8314,7.7001,7.1683
2026-07-22T15:34:14.460,41.8566,7.7197,7.2075
2026-07-22T15:34:14.473,41.8625,7.7589,7.1096
2026-07-22T15:34:14.483,41.8646,7.7393,7.1487
2026-07-22T15:34:14.493,41.8646,7.7197,7.1487
2026-07-22T15:34:14.505,41.8988,7.798,7.1487
2026-07-22T15:34:14.516,41.9013,7.7001,7.1683
2026-07-22T15:34:14.526,41.9112,7.7001,7.1879
2026-07-22T15:34:14.539,41.9177,7.7197,7.2075
2026-07-22T15:34:14.547,41.943,7.7589,7.1683
2026-07-22T15:34:14.551,41.9481,7.7001,7.1487
2026-07-22T15:34:14.563,41.9508,7.7785,7.1487
2026-07-22T15:34:14.579,41.9582,7.798,7.1879
2026-07-22T15:34:14.579,41.9582,7.7393,7.1292
2026-07-22T15:34:14.601,41.9857,7.7001,7.1683
2026-07-22T15:34:14.602,41.9857,7.7589,7.1096
2026-07-22T15:34:14.616,41.9933,7.7197,7.1487
2026-07-22T15:34:14.620,41.9992,7.7197,7.1096
2026-07-22T15:34:14.629,42.0223,7.7197,7.1292
2026-07-22T15:34:14.647,42.0273,7.7785,7.1487
2026-07-22T15:34:14.655,42.0307,7.7001,7.1879
2026-07-22T15:34:14.661,42.0359,7.7197,7.1879
2026-07-22T15:34:14.678,42.0642,7.7001,7.2271
2026-07-22T15:34:14.686,42.0664,7.7197,7.1487
2026-07-22T15:34:14.692,42.0697,7.7785,7.2271
2026-07-22T15:34:14.707,42.0935,7.8372,7.1487
2026-07-22T15:34:14.709,42.0935,7.798,7.2271
2026-07-22T15:34:14.728,42.1013,7.8176,7.2271
2026-07-22T15:34:14.731,42.1013,7.7785,7.3054
2026-07-22T15:34:14.743,42.1352,7.8176,7.2858
2026-07-22T15:34:14.743,42.1446,7.7589,7.2075
2026-07-22T15:34:14.763,42.1526,7.7785,7.2662
2026-07-22T15:34:14.773,42.1578,7.9155,7.2662
2026-07-22T15:34:14.787,42.1863,7.7589,7.2271
2026-07-22T15:34:14.797,42.1883,7.7785,7.2271
2026-07-22T15:34:14.810,42.1921,7.8176,7.2858
2026-07-22T15:34:14.814,42.1962,7.7785,7.2466
2026-07-22T15:34:14.820,42.2029,7.8568,7.3445
2026-07-22T15:34:14.831,42.2269,7.7393,7.2662
2026-07-22T15:34:14.848,42.2269,7.8176,7.2858
2026-07-22T15:34:14.854,42.2375,7.798,7.2075
2026-07-22T15:34:14.865,42.2432,7.8764,7.3054
2026-07-22T15:34:14.881,42.2669,7.8764,7.2662
2026-07-22T15:34:14.881,42.2669,7.8568,7.4229
2026-07-22T15:34:14.897,42.2747,7.8568,7.2858
2026-07-22T15:34:14.905,42.2828,7.8568,7.3054
2026-07-22T15:34:14.915,42.3074,7.8372,7.325
2026-07-22T15:34:14.915,42.3118,7.8959,7.2662
2026-07-22T15:34:14.929,42.3141,7.8372,7.2271
2026-07-22T15:34:14.942,42.3141,7.8372,7.2075
2026-07-22T15:34:14.956,42.3457,7.7589,7.1879
2026-07-22T15:34:14.961,42.3527,7.8372,7.2466
2026-07-22T15:34:14.974,42.3527,7.7785,7.2466
2026-07-22T15:34:14.986,42.3615,7.8568,7.2662
2026-07-22T15:34:14.997,42.3906,7.8959,7.3054
2026-07-22T15:34:15.008,42.3942,7.798,7.3054
2026-07-22T15:34:15.008,42.3942,7.8568,7.2858
2026-07-22T15:34:15.023,42.4028,7.798,7.3054
2026-07-22T15:34:15.035,42.4302,7.798,7.2271
2026-07-22T15:34:15.042,42.4302,7.8372,7.2271
2026-07-22T15:34:15.056,42.4407,7.8176,7.2858
2026-07-22T15:34:15.065,42.45,7.8764,7.2858
2026-07-22T15:34:15.072,42.4545,7.8568,7.2662
2026-07-22T15:34:15.087,42.4827,7.9351,7.2466
2026-07-22T15:34:15.092,42.4872,7.8764,7.3054
2026-07-22T15:34:15.107,42.4882,7.8568,7.2075
2026-07-22T15:34:15.116,42.4928,7.7785,7.2662
2026-07-22T15:34:15.125,42.5218,7.8568,7.2466
2026-07-22T15:34:15.137,42.5218,7.7785,7.2858
2026-07-22T15:34:15.149,42.5306,7.8568,7.2662
2026-07-22T15:34:15.155,42.5359,7.798,7.325
2026-07-22T15:34:15.167,42.5652,7.8176,7.2466
2026-07-22T15:34:15.174,42.5712,7.7589,7.3054
2026-07-22T15:34:15.184,42.5776,7.7393,7.2271
2026-07-22T15:34:15.198,42.5829,7.798,7.3054
2026-07-22T15:34:15.207,42.6141,7.8176,7.2858
2026-07-22T15:34:15.214,42.6141,7.7589,7.3445
2026-07-22T15:34:15.227,42.6201,7.7785,7.3641
2026-07-22T15:34:15.233,42.6227,7.7197,7.325
2026-07-22T15:34:15.245,42.6301,7.6806,7.2858
2026-07-22T15:34:15.270,42.6617,7.7393,7.2075
2026-07-22T15:34:15.270,42.6617,7.7785,7.2466
2026-07-22T15:34:15.270,42.6617,7.7589,7.2466
2026-07-22T15:34:15.284,42.6763,7.7197,7.2466
2026-07-22T15:34:15.298,42.6813,7.7393,7.2075
2026-07-22T15:34:15.308,42.7123,7.7197,7.2466
2026-07-22T15:34:15.308,42.7159,7.6414,7.2662
2026-07-22T15:34:15.308,42.7159,7.8176,7.3837
2026-07-22T15:34:15.342,42.7296,7.8176,7.2466
2026-07-22T15:34:15.342,42.7296,7.7393,7.3054
2026-07-22T15:34:15.353,42.7672,7.7589,7.2271
2026-07-22T15:34:15.355,42.7742,7.7393,7.2662
2026-07-22T15:34:15.371,42.7742,7.7197,7.2662
2026-07-22T15:34:15.378,42.7861,7.8176,7.2858
2026-07-22T15:34:15.391,42.7899,7.7589,7.2075
2026-07-22T15:34:15.421,42.8245,7.7785,7.2271
2026-07-22T15:34:15.421,42.8271,7.7589,7.2271
2026-07-22T15:34:15.428,42.8301,7.7393,7.1879
2026-07-22T15:34:15.436,42.8356,7.7001,7.3054
2026-07-22T15:34:15.445,42.838,7.7197,7.3054
2026-07-22T15:34:15.457,42.8468,7.7197,7.2858
2026-07-22T15:34:15.466,42.8764,7.798,7.2858
2026-07-22T15:34:15.474,42.8794,7.7393,7.325
2026-07-22T15:34:15.489,42.8849,7.7785,7.3054
2026-07-22T15:34:15.492,42.8889,7.7001,7.325
2026-07-22T15:34:15.509,42.8889,7.7785,7.2271
2026-07-22T15:34:15.518,42.9216,7.7001,7.2662
2026-07-22T15:34:15.533,42.9256,7.7589,7.2858
2026-07-22T15:34:15.533,42.9256,7.7197,7.3054
2026-07-22T15:34:15.546,42.936,7.7393,7.2271
2026-07-22T15:34:15.551,42.9395,7.7001,7.325
2026-07-22T15:34:15.565,42.9724,7.7197,7.2858
2026-07-22T15:34:15.574,42.9787,7.7001,7.2662
2026-07-22T15:34:15.587,42.9821,7.6806,7.2466
2026-07-22T15:34:15.598,42.9881,7.7197,7.2662
2026-07-22T15:34:15.605,42.9881,7.6806,7.3054
2026-07-22T15:34:15.614,43.0126,7.7197,7.325
2026-07-22T15:34:15.614,43.0126,7.7001,7.3445
2026-07-22T15:34:15.636,43.02,7.7001,7.325
2026-07-22T15:34:15.644,43.02,7.7001,7.325
2026-07-22T15:34:15.655,43.02,7.7001,7.3445
2026-07-22T15:34:15.662,43.0529,7.7589,7.3837
2026-07-22T15:34:15.674,43.0582,7.7197,7.4033
2026-07-22T15:34:15.682,43.0695,7.6806,7.3837
2026-07-22T15:34:15.682,43.099,7.6414,7.3641
2026-07-22T15:34:15.700,43.099,7.6218,7.3641
2026-07-22T15:34:15.700,43.1071,7.661,7.4229
2026-07-22T15:34:15.729,43.1148,7.7393,7.3445
2026-07-22T15:34:15.736,43.1202,7.7197,7.3445
2026-07-22T15:34:15.745,43.1464,7.7197,7.3641
2026-07-22T15:34:15.745,43.1504,7.7393,7.3445
2026-07-22T15:34:15.761,43.1575,7.661,7.3641
2026-07-22T15:34:15.777,43.1633,7.7001,7.3641
2026-07-22T15:34:15.787,43.1678,7.7197,7.3445
2026-07-22T15:34:15.792,43.1943,7.7197,7.325
2026-07-22T15:34:15.797,43.1943,7.7589,7.3445
2026-07-22T15:34:15.819,43.2004,7.7001,7.3445
2026-07-22T15:34:15.824,43.2004,7.7001,7.3445
2026-07-22T15:34:15.832,43.226,7.7785,7.3445
2026-07-22T15:34:15.844,43.226,7.7197,7.3837
2026-07-22T15:34:15.856,43.2417,7.7785,7.4033
2026-07-22T15:34:15.862,43.2477,7.7393,7.3445
2026-07-22T15:34:15.875,43.2575,7.8176,7.4033
2026-07-22T15:34:15.888,43.2766,7.798,7.3445
2026-07-22T15:34:15.888,43.2787,7.8372,7.3837
2026-07-22T15:34:15.903,43.2856,7.7001,7.325
2026-07-22T15:34:15.909,43.2888,7.7197,7.2858
2026-07-22T15:34:15.927,43.3129,7.7001,7.325
2026-07-22T15:34:15.936,43.3183,7.7393,7.3054
2026-07-22T15:34:15.951,43.3219,7.8372,7.3054
2026-07-22T15:34:15.951,43.3302,7.7589,7.325
2026-07-22T15:34:15.951,43.3519,7.7785,7.4033
2026-07-22T15:34:15.966,43.3559,7.7001,7.325
2026-07-22T15:34:15.984,43.3627,7.7589,7.325
2026-07-22T15:34:15.992,43.3677,7.7589,7.3641
2026-07-22T15:34:16.000,43.3928,7.7393,7.3445
2026-07-22T15:34:16.014,43.3965,7.7197,7.325
2026-07-22T15:34:16.030,43.3992,7.7197,7.3054
2026-07-22T15:34:16.039,43.429,7.6414,7.3837
2026-07-22T15:34:16.046,43.4338,7.6806,7.3641
2026-07-22T15:34:16.061,43.437,7.7001,7.4033
2026-07-22T15:34:16.061,43.4464,7.661,7.3054
2026-07-22T15:34:16.077,43.4722,7.7197,7.3445
2026-07-22T15:34:16.077,43.4775,7.6806,7.3054
2026-07-22T15:34:16.099,43.4849,7.661,7.2858
2026-07-22T15:34:16.108,43.4849,7.5826,7.2662
2026-07-22T15:34:16.108,43.4898,7.6806,7.325
2026-07-22T15:34:16.124,43.515,7.661,7.325
2026-07-22T15:34:16.139,43.5206,7.661,7.2858
2026-07-22T15:34:16.147,43.5239,7.6806,7.325
2026-07-22T15:34:16.152,43.5312,7.6218,7.3445
2026-07-22T15:34:16.161,43.5575,7.6022,7.2858
2026-07-22T15:34:16.177,43.5636,7.5239,7.3837
2026-07-22T15:34:16.186,43.5636,7.5239,7.2662
2026-07-22T15:34:16.196,43.5745,7.5826,7.2662
2026-07-22T15:34:16.204,43.5972,7.5631,7.2662
2026-07-22T15:34:16.216,43.6006,7.5631,7.3054
2026-07-22T15:34:16.225,43.6006,7.6022,7.2271
2026-07-22T15:34:16.232,43.6051,7.5631,7.2662
2026-07-22T15:34:16.243,43.6316,7.5043,7.2075
2026-07-22T15:34:16.251,43.6367,7.5435,7.2271
2026-07-22T15:34:16.267,43.6447,7.5435,7.2466
2026-07-22T15:34:16.273,43.6478,7.5826,7.2466
2026-07-22T15:34:16.283,43.672,7.6218,7.1683
2026-07-22T15:34:16.296,43.672,7.5826,7.1487
2026-07-22T15:34:16.306,43.672,7.5043,7.1879
2026-07-22T15:34:16.320,43.7113,7.5043,7.1683
2026-07-22T15:34:16.321,43.7133,7.4456,7.2271
2026-07-22T15:34:16.334,43.718,7.5239,7.1879
2026-07-22T15:34:16.334,43.718,7.5239,7.1879
2026-07-22T15:34:16.357,43.7473,7.5826,7.2858
2026-07-22T15:34:16.362,43.7473,7.5043,7.2075
2026-07-22T15:34:16.375,43.7605,7.5239,7.1879
2026-07-22T15:34:16.388,43.7679,7.5043,7.2075
2026-07-22T15:34:16.395,43.7949,7.4847,7.2075
2026-07-22T15:34:16.395,43.7986,7.4652,7.1879
2026-07-22T15:34:16.409,43.7986,7.5043,7.1879
2026-07-22T15:34:16.427,43.8041,7.5043,7.2662
2026-07-22T15:34:16.430,43.811,7.5435,7.1879
2026-07-22T15:34:16.448,43.836,7.4456,7.2858
2026-07-22T15:34:16.460,43.8425,7.5631,7.2662
2026-07-22T15:34:16.466,43.8436,7.4456,7.3445
2026-07-22T15:34:16.475,43.8436,7.5826,7.3054
2026-07-22T15:34:16.488,43.8764,7.4847,7.2075
2026-07-22T15:34:16.488,43.8814,7.4847,7.2271
2026-07-22T15:34:16.503,43.8834,7.4847,7.2662
2026-07-22T15:34:16.505,43.8929,7.426,7.2466
2026-07-22T15:34:16.533,43.9137,7.4456,7.3054
2026-07-22T15:34:16.542,43.9207,7.5043,7.2858
2026-07-22T15:34:16.543,43.9207,7.4652,7.2662
2026-07-22T15:34:16.555,43.9329,7.5239,7.2662
2026-07-22T15:34:16.567,43.9538,7.4652,7.2662
2026-07-22T15:34:16.575,43.9538,7.5435,7.325
2026-07-22T15:34:16.582,43.9655,7.4652,7.3054
2026-07-22T15:34:16.595,43.9703,7.5435,7.325
2026-07-22T15:34:16.602,44.0021,7.4652,7.2662
2026-07-22T15:34:16.602,44.0037,7.426,7.2466
2026-07-22T15:34:16.627,44.0116,7.4064,7.2466
2026-07-22T15:34:16.635,44.017,7.4456,7.325
2026-07-22T15:34:16.657,44.0487,7.4847,7.2662
2026-07-22T15:34:16.657,44.0487,7.5631,7.325
2026-07-22T15:34:16.673,44.0552,7.3868,7.3445
2026-07-22T15:34:16.679,44.0552,7.5631,7.2858
2026-07-22T15:34:16.679,44.089,7.4456,7.1879
2026-07-22T15:34:16.700,44.0967,7.4456,7.2466
2026-07-22T15:34:16.700,44.0967,7.4652,7.2271
2026-07-22T15:34:16.717,44.1067,7.426,7.2271
2026-07-22T15:34:16.724,44.1168,7.426,7.2662
2026-07-22T15:34:16.732,44.1499,7.4847,7.2662
2026-07-22T15:34:16.750,44.1573,7.4456,7.325
2026-07-22T15:34:16.758,44.1601,7.426,7.3054
2026-07-22T15:34:16.768,44.1658,7.4064,7.2858
2026-07-22T15:34:16.771,44.169,7.4064,7.2466
2026-07-22T15:34:16.794,44.2089,7.4064,7.2271
2026-07-22T15:34:16.806,44.2141,7.3868,7.325
2026-07-22T15:34:16.806,44.2151,7.4847,7.3445
2026-07-22T15:34:16.815,44.2194,7.4456,7.4229
2026-07-22T15:34:16.822,44.2194,7.4456,7.3445
2026-07-22T15:34:16.833,44.2308,7.4847,7.4425
2026-07-22T15:34:16.845,44.2675,7.4847,7.3054
2026-07-22T15:34:16.861,44.2709,7.4847,7.3641
2026-07-22T15:34:16.861,44.2709,7.4456,7.4033
2026-07-22T15:34:16.877,44.2781,7.5043,7.3641
2026-07-22T15:34:16.881,44.2781,7.4456,7.325
2026-07-22T15:34:16.896,44.2897,7.4847,7.325
2026-07-22T15:34:16.908,44.3286,7.4652,7.3445
2026-07-22T15:34:16.908,44.3286,7.5043,7.3445
2026-07-22T15:34:16.908,44.3286,7.4064,7.3641
2026-07-22T15:34:16.940,44.3421,7.3868,7.2662
2026-07-22T15:34:16.940,44.3421,7.4064,7.3445
2026-07-22T15:34:16.951,44.3499,7.4456,7.3837
2026-07-22T15:34:16.967,44.3901,7.4456,7.325
2026-07-22T15:34:16.983,44.3901,7.5043,7.3837
2026-07-22T15:34:16.983,44.3901,7.426,7.3054
2026-07-22T15:34:16.990,44.4078,7.4652,7.325
2026-07-22T15:34:17.004,44.4078,7.4456,7.325
2026-07-22T15:34:17.012,44.4197,7.4652,7.3445
2026-07-22T15:34:17.025,44.4571,7.426,7.3054
2026-07-22T15:34:17.034,44.4633,7.4064,7.2662
2026-07-22T15:34:17.034,44.4633,7.426,7.2858
2026-07-22T15:34:17.052,44.4685,7.4064,7.3054
2026-07-22T15:34:17.070,44.4685,7.4847,7.4033
2026-07-22T15:34:17.080,44.4844,7.5239,7.3641
2026-07-22T15:34:17.083,44.4884,7.5043,7.3054
2026-07-22T15:34:17.097,44.515,7.5435,7.3054
2026-07-22T15:34:17.113,44.532,7.426,7.3641
2026-07-22T15:34:17.113,44.532,7.4064,7.3445
2026-07-22T15:34:17.125,44.5468,7.3868,7.3054
2026-07-22T15:34:17.130,44.5488,7.5043,7.3641
2026-07-22T15:34:17.150,44.5488,7.3868,7.3054
2026-07-22T15:34:17.150,44.5551,7.4456,7.2466
2026-07-22T15:34:17.165,44.5827,7.3477,7.325
2026-07-22T15:34:17.177,44.5939,7.4456,7.2662
2026-07-22T15:34:17.194,44.5939,7.3673,7.325
2026-07-22T15:34:17.194,44.6012,7.4064,7.325
2026-07-22T15:34:17.208,44.6012,7.3673,7.3641
2026-07-22T15:34:17.211,44.6064,7.3868,7.462
2026-07-22T15:34:17.229,44.6448,7.3281,7.3054
2026-07-22T15:34:17.239,44.6478,7.3868,7.3445
2026-07-22T15:34:17.244,44.6478,7.3673,7.4033
2026-07-22T15:34:17.263,44.6478,7.4652,7.3445
2026-07-22T15:34:17.263,44.6563,7.3868,7.3837
2026-07-22T15:34:17.274,44.669,7.426,7.4033
2026-07-22T15:34:17.286,44.6998,7.426,7.4229
2026-07-22T15:34:17.286,44.7035,7.4064,7.4229
2026-07-22T15:34:17.310,44.7147,7.5043,7.3445
2026-07-22T15:34:17.310,44.7196,7.4847,7.462
2026-07-22T15:34:17.328,44.7263,7.4652,7.4229
2026-07-22T15:34:17.331,44.7263,7.4652,7.4816
2026-07-22T15:34:17.351,44.767,7.426,7.4816
2026-07-22T15:34:17.351,44.767,7.4652,7.3837
2026-07-22T15:34:17.365,44.7718,7.4064,7.5012
2026-07-22T15:34:17.377,44.7777,7.5043,7.462
2026-07-22T15:34:17.381,44.7808,7.5239,7.5012
2026-07-22T15:34:17.388,44.7871,7.5435,7.5208
2026-07-22T15:34:17.406,44.8147,7.4456,7.4229
2026-07-22T15:34:17.413,44.8304,7.5239,7.462
2026-07-22T15:34:17.429,44.8325,7.4456,7.462
2026-07-22T15:34:17.434,44.8325,7.5239,7.4425
2026-07-22T15:34:17.447,44.8325,7.5239,7.4816
2026-07-22T15:34:17.460,44.8741,7.5826,7.462
2026-07-22T15:34:17.461,44.8808,7.5826,7.3837
2026-07-22T15:34:17.476,44.8808,7.4847,7.4229
2026-07-22T15:34:17.492,44.89,7.5043,7.5012
2026-07-22T15:34:17.494,44.8973,7.4847,7.4816
2026-07-22T15:34:17.510,44.8973,7.4652,7.3445
2026-07-22T15:34:17.512,44.925,7.5239,7.4229
2026-07-22T15:34:17.524,44.9293,7.5435,7.4229
2026-07-22T15:34:17.524,44.9293,7.5435,7.5404
2026-07-22T15:34:17.559,44.9407,7.5239,7.4816
2026-07-22T15:34:17.559,44.9407,7.5435,7.5208
2026-07-22T15:34:17.559,44.9407,7.4456,7.5795
2026-07-22T15:34:17.577,44.9761,7.5043,7.4229
2026-07-22T15:34:17.577,44.9761,7.426,7.4816
2026-07-22T15:34:17.595,44.9932,7.5826,7.4425
2026-07-22T15:34:17.602,44.9972,7.4064,7.4229
2026-07-22T15:34:17.620,45.0245,7.4652,7.4229
2026-07-22T15:34:17.634,45.0245,7.4652,7.4425
2026-07-22T15:34:17.634,45.0402,7.4652,7.4816
2026-07-22T15:34:17.655,45.0402,7.4652,7.462
2026-07-22T15:34:17.655,45.0402,7.5043,7.3641
2026-07-22T15:34:17.666,45.0537,7.4847,7.4425
2026-07-22T15:34:17.686,45.0879,7.426,7.4425
2026-07-22T15:34:17.686,45.0879,7.3281,7.4425
2026-07-22T15:34:17.686,45.0909,7.3868,7.462
2026-07-22T15:34:17.702,45.094,7.3477,7.4229
2026-07-22T15:34:17.715,45.094,7.426,7.3445
2026-07-22T15:34:17.726,45.1344,7.4064,7.3641
2026-07-22T15:34:17.734,45.1391,7.3477,7.3837
2026-07-22T15:34:17.734,45.1391,7.4064,7.4033
2026-07-22T15:34:17.756,45.1391,7.3477,7.5012
2026-07-22T15:34:17.767,45.1543,7.3281,7.5208
2026-07-22T15:34:17.778,45.1856,7.3477,7.4033
2026-07-22T15:34:17.789,45.1892,7.3085,7.4229
2026-07-22T15:34:17.801,45.1912,7.4456,7.3641
2026-07-22T15:34:17.801,45.2015,7.3281,7.4033
2026-07-22T15:34:17.816,45.2045,7.3673,7.3641
2026-07-22T15:34:17.821,45.2375,7.3673,7.462
2026-07-22T15:34:17.832,45.2452,7.4064,7.462
2026-07-22T15:34:17.847,45.2452,7.3477,7.4816
2026-07-22T15:34:17.862,45.2532,7.3281,7.4229
2026-07-22T15:34:17.866,45.2532,7.3868,7.4425
2026-07-22T15:34:17.880,45.2916,7.3085,7.3837
2026-07-22T15:34:17.883,45.2916,7.2889,7.325
2026-07-22T15:34:17.907,45.3008,7.3085,7.4229
2026-07-22T15:34:17.907,45.303,7.3085,7.4816
2026-07-22T15:34:17.915,45.308,7.2498,7.4425
2026-07-22T15:34:17.923,45.3128,7.2889,7.4033
2026-07-22T15:34:17.933,45.3322,7.2302,7.3641
2026-07-22T15:34:17.933,45.346,7.2694,7.3445
2026-07-22T15:34:17.963,45.35,7.2889,7.2858
2026-07-22T15:34:17.965,45.3589,7.2889,7.3837
2026-07-22T15:34:17.978,45.3638,7.3477,7.4229
2026-07-22T15:34:17.985,45.3888,7.3673,7.3445
2026-07-22T15:34:17.994,45.3956,7.3477,7.3837
2026-07-22T15:34:17.994,45.4006,7.3477,7.3641
2026-07-22T15:34:18.012,45.4069,7.3477,7.3641
2026-07-22T15:34:18.026,45.4113,7.3281,7.4229
2026-07-22T15:34:18.034,45.4428,7.3281,7.4033
2026-07-22T15:34:18.041,45.4525,7.3477,7.5599
2026-07-22T15:34:18.062,45.4589,7.3868,7.4816
2026-07-22T15:34:18.066,45.4617,7.3673,7.5012
2026-07-22T15:34:18.073,45.4692,7.426,7.5991
2026-07-22T15:34:18.089,45.497,7.3673,7.5599
2026-07-22T15:34:18.105,45.4995,7.3673,7.5012
2026-07-22T15:34:18.105,45.4995,7.3477,7.4816
2026-07-22T15:34:18.123,45.5065,7.3868,7.5404
2026-07-22T15:34:18.128,45.5065,7.4456,7.5991
2026-07-22T15:34:18.137,45.5412,7.426,7.5599
2026-07-22T15:34:18.137,45.5412,7.426,7.5599
2026-07-22T15:34:18.159,45.5534,7.4652,7.5795
2026-07-22T15:34:18.168,45.5599,7.3673,7.5599
2026-07-22T15:34:18.168,45.5625,7.3477,7.6578
2026-07-22T15:34:18.189,45.5919,7.426,7.6187
2026-07-22T15:34:18.200,45.5949,7.4847,7.6383
2026-07-22T15:34:18.215,45.6029,7.4064,7.5795
2026-07-22T15:34:18.215,45.6029,7.5435,7.5991
2026-07-22T15:34:18.224,45.6078,7.4456,7.5795
2026-07-22T15:34:18.248,45.6378,7.4064,7.6187
2026-07-22T15:34:18.248,45.6378,7.4456,7.6383
2026-07-22T15:34:18.257,45.6414,7.5239,7.6187
2026-07-22T15:34:18.265,45.6414,7.4456,7.5991
2026-07-22T15:34:18.274,45.673,7.4456,7.5599
2026-07-22T15:34:18.284,45.6785,7.3868,7.5599
2026-07-22T15:34:18.300,45.6831,7.3477,7.6774
2026-07-22T15:34:18.303,45.6866,7.3868,7.5599
2026-07-22T15:34:18.315,45.6936,7.426,7.6187
2026-07-22T15:34:18.332,45.7162,7.4456,7.5012
2026-07-22T15:34:18.340,45.7201,7.426,7.6383
2026-07-22T15:34:18.345,45.7201,7.4652,7.5795
2026-07-22T15:34:18.353,45.7282,7.426,7.5991
2026-07-22T15:34:18.372,45.7602,7.3673,7.5599
2026-07-22T15:34:18.375,45.7642,7.4456,7.5991
2026-07-22T15:34:18.382,45.7712,7.4064,7.5404
2026-07-22T15:34:18.395,45.7755,7.3477,7.5991
2026-07-22T15:34:18.404,45.8027,7.3673,7.5795
2026-07-22T15:34:18.417,45.8052,7.3477,7.5795
2026-07-22T15:34:18.426,45.8052,7.3085,7.5795
2026-07-22T15:34:18.437,45.8052,7.3477,7.5795
2026-07-22T15:34:18.447,45.839,7.3477,7.5795
2026-07-22T15:34:18.456,45.839,7.3281,7.5795
2026-07-22T15:34:18.464,45.8452,7.3085,7.5795
2026-07-22T15:34:18.467,45.8526,7.3477,7.5599
2026-07-22T15:34:18.486,45.8841,7.2889,7.462
2026-07-22T15:34:18.498,45.8841,7.3673,7.5208
2026-07-22T15:34:18.507,45.889,7.3085,7.4816
2026-07-22T15:34:18.514,45.8943,7.3085,7.4816
2026-07-22T15:34:18.526,45.9217,7.3281,7.4816
2026-07-22T15:34:18.530,45.926,7.3085,7.4033
2026-07-22T15:34:18.546,45.9327,7.3673,7.4425
2026-07-22T15:34:18.554,45.9327,7.3085,7.462
2026-07-22T15:34:18.567,45.9474,7.3477,7.4229
2026-07-22T15:34:18.578,45.9631,7.3673,7.462
2026-07-22T15:34:18.588,45.9631,7.3085,7.462
2026-07-22T15:34:18.595,45.9695,7.3085,7.462
2026-07-22T15:34:18.609,45.9993,7.2889,7.4229
2026-07-22T15:34:18.609,45.9993,7.3477,7.4816
2026-07-22T15:34:18.625,46.0065,7.2302,7.462
2026-07-22T15:34:18.636,46.0105,7.3085,7.462
2026-07-22T15:34:18.649,46.0435,7.2498,7.5012
2026-07-22T15:34:18.656,46.0435,7.3868,7.5404
2026-07-22T15:34:18.668,46.0435,7.2694,7.5208
2026-07-22T15:34:18.678,46.0582,7.3281,7.4816
2026-07-22T15:34:18.688,46.0815,7.3085,7.5012
2026-07-22T15:34:18.696,46.0815,7.3281,7.5208
2026-07-22T15:34:18.705,46.09,7.2694,7.5404
2026-07-22T15:34:18.705,46.09,7.3085,7.5208
2026-07-22T15:34:18.729,46.1265,7.3673,7.5404
2026-07-22T15:34:18.736,46.1295,7.2694,7.5404
2026-07-22T15:34:18.743,46.1325,7.3085,7.462
2026-07-22T15:34:18.757,46.1401,7.2889,7.4816
2026-07-22T15:34:18.769,46.168,7.4064,7.5208
2026-07-22T15:34:18.778,46.1753,7.3673,7.5208
2026-07-22T15:34:18.788,46.1753,7.3868,7.5208
2026-07-22T15:34:18.801,46.1829,7.3085,7.5404
2026-07-22T15:34:18.804,46.1869,7.2889,7.5991
2026-07-22T15:34:18.817,46.2147,7.3281,7.5208
2026-07-22T15:34:18.817,46.2147,7.2694,7.5599
2026-07-22T15:34:18.837,46.2185,7.426,7.5599
2026-07-22T15:34:18.849,46.2185,7.3477,7.5991
2026-07-22T15:34:18.856,46.2515,7.3281,7.6774
2026-07-22T15:34:18.864,46.2569,7.2694,7.6578
2026-07-22T15:34:18.876,46.2639,7.3477,7.5991
2026-07-22T15:34:18.880,46.2669,7.3477,7.6187
2026-07-22T15:34:18.896,46.2913,7.3673,7.7166
2026-07-22T15:34:18.909,46.2958,7.3868,7.6383
2026-07-22T15:34:18.918,46.2958,7.3477,7.5991
2026-07-22T15:34:18.928,46.3033,7.3673,7.697
2026-07-22T15:34:18.934,46.3295,7.3673,7.6187
2026-07-22T15:34:18.949,46.3347,7.3085,7.6383
2026-07-22T15:34:18.958,46.3409,7.3281,7.7166
2026-07-22T15:34:18.965,46.3436,7.3281,7.697
2026-07-22T15:34:29.497,56.8696,9.9519,5.2886
2026-07-22T15:34:29.500,56.877,9.9128,5.2886
2026-07-22T15:34:29.516,56.9119,9.9519,5.2494
2026-07-22T15:34:29.516,56.9119,9.9911,5.2102
2026-07-22T15:34:29.531,56.9169,10.0694,5.2102
2026-07-22T15:34:29.539,56.946,10.0302,5.1907
2026-07-22T15:34:29.546,56.9477,9.9519,5.1711
2026-07-22T15:34:29.564,56.9554,9.9519,5.2494
2026-07-22T15:34:29.574,56.9598,10.0107,5.2494
2026-07-22T15:34:29.579,56.9655,9.9128,5.2102
2026-07-22T15:34:29.595,56.9946,9.9715,5.1907
2026-07-22T15:34:29.601,57.0007,9.9323,5.1711
2026-07-22T15:34:29.617,57.0007,9.9715,5.1907
2026-07-22T15:34:29.627,57.0125,9.9323,5.2102
2026-07-22T15:34:29.630,57.0125,9.9715,5.1907
2026-07-22T15:34:29.642,57.044,9.8932,5.2102
2026-07-22T15:34:29.645,57.0489,9.9128,5.2886
2026-07-22T15:34:29.662,57.0534,9.8149,5.1123
2026-07-22T15:34:29.674,57.0602,9.854,5.1907
2026-07-22T15:34:29.684,57.0652,9.854,5.1907
2026-07-22T15:34:29.691,57.0894,9.7953,5.2102
2026-07-22T15:34:29.698,57.0894,9.7757,5.269
2026-07-22T15:34:29.715,57.0971,9.7365,5.2298
2026-07-22T15:34:29.727,57.0971,9.717,5.1319
2026-07-22T15:34:29.727,57.1263,9.6778,5.1515
2026-07-22T15:34:29.735,57.1319,9.5995,5.0928
2026-07-22T15:34:29.751,57.1362,9.5995,5.0928
2026-07-22T15:34:29.759,57.1382,9.6582,5.0928
2026-07-22T15:34:29.773,57.17,9.619,5.1711
2026-07-22T15:34:29.783,57.1723,9.5603,5.0536
2026-07-22T15:34:29.794,57.1723,9.5603,5.1123
2026-07-22T15:34:29.800,57.1838,9.5995,5.0536
2026-07-22T15:34:29.814,57.2156,9.5211,5.0144
2026-07-22T15:34:29.816,57.2198,9.4428,5.0144
2026-07-22T15:34:29.834,57.2263,9.5799,5.034
2026-07-22T15:34:29.846,57.2263,9.5016,5.0144
2026-07-22T15:34:29.858,57.2632,9.5016,5.034
2026-07-22T15:34:29.862,57.2637,9.4624,4.9949
2026-07-22T15:34:29.862,57.2637,9.4428,4.9753
2026-07-22T15:34:29.888,57.2736,9.482,4.9557
2026-07-22T15:34:29.893,57.279,9.4428,4.9753
2026-07-22T15:34:29.909,57.3084,9.4624,4.9753
2026-07-22T15:34:29.909,57.3084,9.5603,5.0144
2026-07-22T15:34:29.924,57.3129,9.5016,5.0928
2026-07-22T15:34:29.935,57.315,9.5407,4.9557
2026-07-22T15:34:29.941,57.3454,9.5603,5.0144
2026-07-22T15:34:29.950,57.3504,9.5603,5.0536
2026-07-22T15:34:29.957,57.3554,9.5799,5.0536
2026-07-22T15:34:29.977,57.3611,9.6386,5.0732
2026-07-22T15:34:29.980,57.3661,9.619,5.0144
2026-07-22T15:34:29.990,57.3946,9.5603,5.1319
2026-07-22T15:34:30.004,57.3946,9.5211,5.0536
2026-07-22T15:34:30.016,57.3946,9.5407,5.0732
2026-07-22T15:34:30.025,57.4049,9.6386,5.0536
2026-07-22T15:34:30.035,57.4349,9.5799,5.0928
2026-07-22T15:34:30.049,57.437,9.5799,5.0928
2026-07-22T15:34:30.056,57.437,9.5211,5.1515
2026-07-22T15:34:30.056,57.4485,9.5407,5.0928
2026-07-22T15:34:30.071,57.454,9.6386,5.1711
2026-07-22T15:34:30.088,57.4852,9.5799,5.0732
2026-07-22T15:34:30.088,57.4862,9.6386,5.1711
2026-07-22T15:34:30.099,57.491,9.6582,5.1907
2026-07-22T15:34:30.116,57.5004,9.6582,5.1907
2026-07-22T15:34:30.126,57.5264,9.5799,5.1907
2026-07-22T15:34:30.139,57.5264,9.6974,5.2102
2026-07-22T15:34:30.150,57.5374,9.6778,5.1711
2026-07-22T15:34:30.165,57.5374,9.6974,5.2102
2026-07-22T15:34:30.165,57.5444,9.717,5.2494
2026-07-22T15:34:30.183,57.5732,9.7561,5.2102
2026-07-22T15:34:30.183,57.5732,9.7365,5.2494
2026-07-22T15:34:30.188,57.5796,9.717,5.3081
2026-07-22T15:34:30.206,57.5796,9.7365,5.1711
2026-07-22T15:34:30.215,57.6047,9.717,5.2298
2026-07-22T15:34:30.215,57.6194,9.7953,5.2494
2026-07-22T15:34:30.234,57.6204,9.7757,5.3473
2026-07-22T15:34:30.241,57.6283,9.717,5.2494
2026-07-22T15:34:30.253,57.6314,9.7561,5.3473
2026-07-22T15:34:30.266,57.661,9.7953,5.2886
2026-07-22T15:34:30.266,57.661,9.7757,5.2886
2026-07-22T15:34:30.282,57.6674,9.7561,5.3081
2026-07-22T15:34:30.293,57.6748,9.7953,5.3277
2026-07-22T15:34:30.306,57.6989,9.7365,5.2494
2026-07-22T15:34:30.315,57.6989,9.7365,5.2298
2026-07-22T15:34:30.323,57.712,9.7561,5.2494
2026-07-22T15:34:30.329,57.7146,9.7365,5.3669
2026-07-22T15:34:30.337,57.7192,9.7757,5.2886
2026-07-22T15:34:30.361,57.7462,9.7757,5.3277
2026-07-22T15:34:30.361,57.7462,9.7757,5.3081
2026-07-22T15:34:30.376,57.7519,9.7757,5.2298
2026-07-22T15:34:30.385,57.7575,9.6386,5.2102
2026-07-22T15:34:30.392,57.782,9.717,5.269
2026-07-22T15:34:30.400,57.782,9.6778,5.3081
2026-07-22T15:34:30.408,57.782,9.6386,5.2886
2026-07-22T15:34:30.424,57.8188,9.6778,5.2886
2026-07-22T15:34:30.424,57.8261,9.7365,5.2886
2026-07-22T15:34:30.444,57.8286,9.7365,5.2494
2026-07-22T15:34:30.444,57.8336,9.6778,5.2886
2026-07-22T15:34:30.468,57.861,9.6778,5.2298
2026-07-22T15:34:30.472,57.8664,9.6778,5.2298
2026-07-22T15:34:30.487,57.8664,9.6974,5.2886
2026-07-22T15:34:30.495,57.8735,9.717,5.3865
2026-07-22T15:34:30.500,57.8904,9.6582,5.2102
2026-07-22T15:34:30.507,57.9048,9.6386,5.269
2026-07-22T15:34:30.528,57.9048,9.6582,5.2102
2026-07-22T15:34:30.535,57.9048,9.6778,5.269
2026-07-22T15:34:30.542,57.9214,9.6582,5.2102
2026-07-22T15:34:30.552,57.9389,9.619,5.269
2026-07-22T15:34:30.552,57.9537,9.5799,5.2494
2026-07-22T15:34:30.567,57.9601,9.5799,5.2298
2026-07-22T15:34:30.583,57.9677,9.6974,5.269
2026-07-22T15:34:30.593,57.9915,9.6582,5.269
2026-07-22T15:34:30.601,57.9915,9.5995,5.3081
2026-07-22T15:34:30.615,57.9995,9.5799,5.2886
2026-07-22T15:34:30.626,58.005,9.5407,5.269
2026-07-22T15:34:30.629,58.0083,9.5407,5.2298
2026-07-22T15:34:30.645,58.0368,9.5211,5.0928
2026-07-22T15:34:30.653,58.0422,9.5407,5.1711
2026-07-22T15:34:30.661,58.0422,9.5603,5.1711
2026-07-22T15:34:30.670,58.0516,9.5016,5.1907
2026-07-22T15:34:30.689,58.0782,9.5211,5.2298
2026-07-22T15:34:30.704,58.0811,9.482,5.1907
2026-07-22T15:34:30.704,58.0811,9.5016,5.1907
2026-07-22T15:34:30.713,58.0898,9.5211,5.1907
2026-07-22T15:34:30.724,58.1175,9.5211,5.1515
2026-07-22T15:34:30.724,58.1207,9.4232,5.2102
2026-07-22T15:34:30.743,58.1269,9.5016,5.1515
2026-07-22T15:34:30.756,58.1315,9.4037,5.1711
2026-07-22T15:34:30.756,58.1579,9.482,5.1319
2026-07-22T15:34:30.773,58.1648,9.482,5.1515
2026-07-22T15:34:30.789,58.1692,9.5407,5.1907
2026-07-22T15:34:30.793,58.1739,9.4428,5.1711
2026-07-22T15:34:30.804,58.2047,9.4624,5.1711
2026-07-22T15:34:30.810,58.2062,9.4037,5.1711
2026-07-22T15:34:30.829,58.2062,9.3841,5.1515
2026-07-22T15:34:30.836,58.2214,9.4037,5.1907
2026-07-22T15:34:30.842,58.2234,9.4232,5.1123
2026-07-22T15:34:30.851,58.2469,9.4624,5.0928
2026-07-22T15:34:30.868,58.2531,9.4232,5.0536
2026-07-22T15:34:30.868,58.255,9.3645,5.2102
2026-07-22T15:34:30.868,58.2571,9.3645,5.1319
2026-07-22T15:34:30.893,58.292,9.3645,5.2102
2026-07-22T15:34:30.902,58.2964,9.3449,5.1319
2026-07-22T15:34:30.919,58.3059,9.3058,5.1711
2026-07-22T15:34:30.924,58.3124,9.3058,5.1123
2026-07-22T15:34:30.932,58.3372,9.3449,5.1123
2026-07-22T15:34:30.932,58.3461,9.3841,5.1711
2026-07-22T15:34:30.958,58.3494,9.4037,5.2102
2026-07-22T15:34:30.974,58.3561,9.4232,5.1123
2026-07-22T15:34:30.974,58.3561,9.3449,5.1711
2026-07-22T15:34:30.983,58.3815,9.4037,5.1515
2026-07-22T15:34:30.994,58.3841,9.3058,5.1515
2026-07-22T15:34:31.011,58.389,9.4037,5.1907
2026-07-22T15:34:31.018,58.3963,9.4232,5.1711
2026-07-22T15:34:31.023,58.3963,9.5016,5.1907
2026-07-22T15:34:31.030,58.4268,9.3841,5.2102
2026-07-22T15:34:31.046,58.4331,9.4232,5.1515
2026-07-22T15:34:31.051,58.4357,9.4037,5.2298
2026-07-22T15:34:31.058,58.4426,9.482,5.1907
2026-07-22T15:34:31.073,58.4688,9.4624,5.2102
2026-07-22T15:34:31.089,58.4718,9.5407,5.2298
2026-07-22T15:34:31.097,58.4766,9.5016,5.2494
2026-07-22T15:34:31.104,58.4836,9.5799,5.269
2026-07-22T15:34:31.113,58.5046,9.5016,5.2886
2026-07-22T15:34:31.123,58.5095,9.5995,5.2886
2026-07-22T15:34:31.135,58.5095,9.5407,5.3277
2026-07-22T15:34:31.145,58.5161,9.6582,5.3081
2026-07-22T15:34:31.153,58.5407,9.5995,5.2886
2026-07-22T15:34:31.164,58.5509,9.5995,5.2886
2026-07-22T15:34:31.171,58.5539,9.5407,5.2886
2026-07-22T15:34:31.189,58.5808,9.5799,5.2886
2026-07-22T15:34:31.198,58.5861,9.6582,5.3669
2026-07-22T15:34:31.213,58.5881,9.717,5.3669
2026-07-22T15:34:31.216,58.5914,9.7561,5.3669
2026-07-22T15:34:31.226,58.6171,9.7953,5.3473
2026-07-22T15:34:31.238,58.6215,9.7561,5.4648
2026-07-22T15:34:31.247,58.627,9.7953,5.3669
2026-07-22T15:34:31.257,58.6304,9.6386,5.3669
2026-07-22T15:34:31.266,58.6543,9.7365,5.3473
2026-07-22T15:34:31.268,58.6593,9.6974,5.4061
2026-07-22T15:34:31.283,58.6625,9.7757,5.3865
2026-07-22T15:34:31.292,58.6687,9.7365,5.4256
2026-07-22T15:34:31.303,58.6892,9.7365,5.3277
2026-07-22T15:34:31.303,58.696,9.6778,5.3473
2026-07-22T15:34:31.324,58.7006,9.6386,5.3669
2026-07-22T15:34:31.334,58.7082,9.6974,5.3865
2026-07-22T15:34:31.351,58.7311,9.8149,5.3669
2026-07-22T15:34:31.362,58.7372,9.6974,5.4061
2026-07-22T15:34:31.362,58.7413,9.6778,5.3669
2026-07-22T15:34:31.383,58.7531,9.6582,5.3669
2026-07-22T15:34:31.383,58.7688,9.6582,5.3277
2026-07-22T15:34:31.399,58.7716,9.6974,5.3473
2026-07-22T15:34:31.403,58.7716,9.6974,5.3081
2026-07-22T15:34:31.415,58.8031,9.7561,5.2886
2026-07-22T15:34:31.415,58.8031,9.6582,5.3473
2026-07-22T15:34:31.433,58.8102,9.6582,5.4256
2026-07-22T15:34:31.448,58.8348,9.6582,5.3473
2026-07-22T15:34:31.451,58.8402,9.619,5.4256
2026-07-22T15:34:31.465,58.845,9.717,5.3865
2026-07-22T15:34:31.475,58.8485,9.6582,5.4061
2026-07-22T15:34:31.484,58.872,9.5603,5.3473
2026-07-22T15:34:31.494,58.872,9.5799,5.3277
2026-07-22T15:34:31.507,58.8824,9.619,5.3473
2026-07-22T15:34:31.510,58.8824,9.5799,5.3865
2026-07-22T15:34:31.529,58.9135,9.6582,5.2886
2026-07-22T15:34:31.534,58.9135,9.6582,5.3277
2026-07-22T15:34:31.544,58.9204,9.6778,5.3277
2026-07-22T15:34:31.557,58.9419,9.5407,5.2494
2026-07-22T15:34:31.557,58.9419,9.5799,5.2886
2026-07-22T15:34:31.575,58.9561,9.5211,5.3473
2026-07-22T15:34:31.582,58.9598,9.5016,5.2494
2026-07-22T15:34:31.598,58.9779,9.5016,5.3081
2026-07-22T15:34:31.604,58.9895,9.5407,5.3081
2026-07-22T15:34:31.618,58.9966,9.5603,5.3277
2026-07-22T15:34:31.626,58.9966,9.5603,5.3277
2026-07-22T15:34:31.636,59.0226,9.5603,5.3669
2026-07-22T15:34:31.640,59.0226,9.5799,5.3277
2026-07-22T15:34:31.658,59.0273,9.5995,5.3081
2026-07-22T15:34:31.664,59.039,9.619,5.2886
2026-07-22T15:34:31.677,59.0528,9.5603,5.2298
2026-07-22T15:34:31.684,59.0528,9.5799,5.3081
2026-07-22T15:34:31.689,59.0687,9.482,5.269
2026-07-22T15:34:31.708,59.0952,9.5407,5.3277
2026-07-22T15:34:31.715,59.1007,9.5016,5.269
2026-07-22T15:34:31.715,59.1007,9.5799,5.2886
2026-07-22T15:34:31.736,59.1105,9.5603,5.2494
2026-07-22T15:34:31.744,59.1386,9.619,5.3081
2026-07-22T15:34:31.746,59.1443,9.5407,5.269
2026-07-22T15:34:31.762,59.1491,9.5211,5.269
2026-07-22T15:34:31.772,59.1522,9.5016,5.2886
2026-07-22T15:34:31.786,59.1802,9.5407,5.269
2026-07-22T15:34:31.794,59.1802,9.5407,5.3081
2026-07-22T15:34:31.806,59.1802,9.619,5.3473
2026-07-22T15:34:31.814,59.1951,9.6582,5.3081
2026-07-22T15:34:31.814,59.1981,9.5995,5.269
2026-07-22T15:34:31.831,59.221,9.5799,5.2886
2026-07-22T15:34:31.842,59.2319,9.5407,5.3865
2026-07-22T15:34:31.842,59.2319,9.5995,5.3081
2026-07-22T15:34:31.868,59.2651,9.5995,5.3277
2026-07-22T15:34:31.873,59.268,9.5799,5.3277
2026-07-22T15:34:31.883,59.2709,9.6582,5.3473
2026-07-22T15:34:31.894,59.2748,9.619,5.3277
2026-07-22T15:34:31.903,59.2808,9.5603,5.3865
2026-07-22T15:34:31.922,59.3091,9.5799,5.3865
2026-07-22T15:34:31.922,59.3091,9.5995,5.4061
2026-07-22T15:34:31.943,59.3142,9.5799,5.3277
2026-07-22T15:34:31.943,59.3142,9.619,5.4061
2026-07-22T15:34:31.952,59.3477,9.6974,5.3473
2026-07-22T15:34:31.952,59.3477,9.6582,5.4061
2026-07-22T15:34:31.976,59.3577,9.5603,5.3865
2026-07-22T15:34:31.984,59.3869,9.6582,5.4452
2026-07-22T15:34:32.001,59.3936,9.6582,5.4061
2026-07-22T15:34:32.009,59.3981,9.6582,5.4648
2026-07-22T15:34:32.009,59.4008,9.717,5.3669
2026-07-22T15:34:32.026,59.4095,9.6974,5.3865
2026-07-22T15:34:32.031,59.4321,9.6582,5.4061
2026-07-22T15:34:32.031,59.4321,9.6386,5.3669
2026-07-22T15:34:32.055,59.4437,9.6974,5.3669
2026-07-22T15:34:32.071,59.4498,9.717,5.4061
2026-07-22T15:34:32.075,59.4498,9.717,5.3669
2026-07-22T15:34:32.078,59.4767,9.6974,5.4256
2026-07-22T15:34:32.094,59.4808,9.6778,5.3669
2026-07-22T15:34:32.105,59.4884,9.717,5.4452
2026-07-22T15:34:32.117,59.4941,9.6386,5.3865
2026-07-22T15:34:32.125,59.5195,9.6386,5.3865
2026-07-22T15:34:32.138,59.5195,9.6582,5.3669
2026-07-22T15:34:32.150,59.5195,9.619,5.3473
2026-07-22T15:34:32.156,59.5195,9.6582,5.3081
2026-07-22T15:34:32.159,59.5513,9.6386,5.4256
2026-07-22T15:34:32.172,59.5539,9.6386,5.3865
2026-07-22T15:34:32.181,59.5599,9.6386,5.4256
2026-07-22T15:34:32.192,59.5871,9.5211,5.3669
2026-07-22T15:34:32.206,59.6,9.5211,5.4844
2026-07-22T15:34:32.213,59.602,9.5211,5.3669
2026-07-22T15:34:32.226,59.609,9.5995,5.3473
2026-07-22T15:34:32.242,59.6365,9.5799,5.4061
2026-07-22T15:34:32.242,59.638,9.6386,5.3669
2026-07-22T15:34:32.257,59.6441,9.5603,5.3865
2026-07-22T15:34:32.264,59.6441,9.619,5.4648
2026-07-22T15:34:32.275,59.6696,9.5211,5.3081
2026-07-22T15:34:32.290,59.6788,9.5799,5.3081
2026-07-22T15:34:32.298,59.6832,9.5603,5.3669
2026-07-22T15:34:32.306,59.6854,9.5799,5.3669
2026-07-22T15:34:32.317,59.6921,9.5211,5.3277
2026-07-22T15:34:32.324,59.7205,9.5211,5.3669
2026-07-22T15:34:32.331,59.7237,9.4232,5.3865
2026-07-22T15:34:32.345,59.7302,9.4428,5.2886
2026-07-22T15:34:32.354,59.7362,9.3841,5.2886
2026-07-22T15:34:32.376,59.762,9.4232,5.3473
2026-07-22T15:34:32.376,59.762,9.4428,5.3865
2026-07-22T15:34:32.385,59.7742,9.4428,5.3473
2026-07-22T15:34:32.395,59.7742,9.4624,5.3081
2026-07-22T15:34:32.406,59.7988,9.5211,5.3669
2026-07-22T15:34:32.417,59.8021,9.5016,5.3081
2026-07-22T15:34:32.424,59.8048,9.482,5.3473
2026-07-22T15:34:32.436,59.8048,9.5016,5.269
2026-07-22T15:34:32.436,59.8377,9.5603,5.3473
2026-07-22T15:34:32.448,59.8451,9.5407,5.3669
2026-07-22T15:34:32.464,59.8492,9.5603,5.4256
2026-07-22T15:34:32.467,59.8563,9.5799,5.3865
2026-07-22T15:34:32.488,59.8823,9.482,5.2886
2026-07-22T15:34:32.491,59.8854,9.4624,5.3277
2026-07-22T15:34:32.503,59.8854,9.5211,5.3473
2026-07-22T15:34:32.518,59.8854,9.5407,5.3277
2026-07-22T15:34:32.531,59.9197,9.5603,5.3277
2026-07-22T15:34:32.533,59.9217,9.5016,5.3473
2026-07-22T15:34:32.544,59.9217,9.4624,5.3277
2026-07-22T15:34:32.547,59.9217,9.4428,5.3277
2026-07-22T15:34:32.566,59.9529,9.4428,5.3277
2026-07-22T15:34:32.578,59.9593,9.5016,5.2886
2026-07-22T15:34:32.583,59.9682,9.482,5.3081
2026-07-22T15:34:32.593,59.9682,9.4624,5.3669
2026-07-22T15:34:32.600,59.9946,9.482,5.3473
2026-07-22T15:34:32.615,60.0107,9.482,5.4452
2026-07-22T15:34:32.630,60.0112,9.4428,5.5235
2026-07-22T15:34:32.630,60.0182,9.4624,5.4061
2026-07-22T15:34:32.641,60.0478,9.5603,5.3865
2026-07-22T15:34:32.656,60.0478,9.5603,5.4256
2026-07-22T15:34:32.673,60.0604,9.5995,5.3669
2026-07-22T15:34:32.673,60.0628,9.5799,5.3865
2026-07-22T15:34:32.689,60.0941,9.5799,5.3669
2026-07-22T15:34:32.691,60.0995,9.5603,5.3669
2026-07-22T15:34:32.704,60.1036,9.5995,5.4256
2026-07-22T15:34:32.710,60.1113,9.6778,5.4256
2026-07-22T15:34:32.725,60.1113,9.5799,5.3865
2026-07-22T15:34:32.731,60.1425,9.619,5.4256
2026-07-22T15:34:32.751,60.1463,9.619,5.4648
2026-07-22T15:34:32.761,60.1522,9.5799,5.4256
2026-07-22T15:34:32.773,60.1522,9.5995,5.4844
2026-07-22T15:34:32.780,60.1609,9.5995,5.4844
2026-07-22T15:34:32.780,60.1609,9.6778,5.4844
2026-07-22T15:34:32.799,60.185,9.5799,5.4648
2026-07-22T15:34:32.799,60.185,9.6386,5.4648
2026-07-22T15:34:32.814,60.2019,9.6974,5.5431
2026-07-22T15:34:32.823,60.2019,9.6974,5.5431
2026-07-22T15:34:32.834,60.2374,9.7365,5.6019
2026-07-22T15:34:32.846,60.2374,9.717,5.4452
2026-07-22T15:34:32.864,60.2498,9.717,5.5823
2026-07-22T15:34:32.864,60.2498,9.7365,5.5431
2026-07-22T15:34:32.878,60.2853,9.7953,5.5823
2026-07-22T15:34:32.878,60.2876,9.854,5.5431
2026-07-22T15:34:32.899,60.2876,9.8736,5.5823
2026-07-22T15:34:32.908,60.2939,9.8932,5.5823
2026-07-22T15:34:32.915,60.2939,9.8149,5.6019
2026-07-22T15:34:32.925,60.3293,9.8344,5.6606
2026-07-22T15:34:32.940,60.3293,9.8149,5.641
2026-07-22T15:34:32.949,60.3342,9.854,5.641
2026-07-22T15:34:32.956,60.3408,9.8344,5.6214
2026-07-22T15:34:32.964,60.3504,9.854,5.6019
2026-07-22T15:34:32.971,60.3787,9.8149,5.6214
2026-07-22T15:34:32.971,60.3787,9.8149,5.6214
2026-07-22T15:34:32.996,60.3862,9.8344,5.504
2026-07-22T15:34:33.009,60.3936,9.7757,5.6214
2026-07-22T15:34:33.019,60.4151,9.717,5.6606
2026-07-22T15:34:33.020,60.4211,9.7953,5.6214
2026-07-22T15:34:33.040,60.4252,9.8149,5.6214
2026-07-22T15:34:33.048,60.4293,9.8149,5.6019
2026-07-22T15:34:33.050,60.436,9.9323,5.6019
2026-07-22T15:34:33.066,60.4619,9.7561,5.6019
2026-07-22T15:34:33.066,60.4645,9.8149,5.6214
2026-07-22T15:34:33.087,60.471,9.7561,5.6214
2026-07-22T15:34:33.098,60.4755,9.7953,5.5627
2026-07-22T15:34:33.109,60.5003,9.8149,5.5823
2026-07-22T15:34:33.113,60.5003,9.8344,5.5627
2026-07-22T15:34:33.126,60.5094,9.8736,5.6606
2026-07-22T15:34:33.133,60.515,9.854,5.641
2026-07-22T15:34:33.146,60.5294,9.7953,5.6019
2026-07-22T15:34:33.146,60.5475,9.7953,5.6606
2026-07-22T15:34:33.162,60.5475,9.8736,5.6214
2026-07-22T15:34:33.179,60.5604,9.7757,5.6019
2026-07-22T15:34:33.179,60.5865,9.8736,5.6802
2026-07-22T15:34:33.191,60.5916,9.8149,5.5823
2026-07-22T15:34:33.209,60.5972,9.7365,5.641
2026-07-22T15:34:33.222,60.6,9.8149,5.6606
2026-07-22T15:34:33.222,60.6,9.7953,5.6802
2026-07-22T15:34:33.233,60.6312,9.8149,5.5823
2026-07-22T15:34:33.238,60.638,9.7561,5.6214
2026-07-22T15:34:33.259,60.643,9.7561,5.641
2026-07-22T15:34:33.269,60.6479,9.6778,5.6214
2026-07-22T15:34:33.284,60.6696,9.7365,5.5823
2026-07-22T15:34:33.284,60.6848,9.717,5.6998
2026-07-22T15:34:33.305,60.6848,9.7365,5.5627
2026-07-22T15:34:33.305,60.6848,9.7365,5.6214
2026-07-22T15:34:33.317,60.7025,9.7365,5.6606
2026-07-22T15:34:33.323,60.7326,9.7757,5.6606
2026-07-22T15:34:33.331,60.7376,9.6974,5.641
2026-07-22T15:34:33.347,60.7425,9.717,5.6998
2026-07-22T15:34:33.347,60.7455,9.7561,5.6606
2026-07-22T15:34:33.364,60.75,9.717,5.6606
2026-07-22T15:34:33.388,60.7706,9.6974,5.6214
2026-07-22T15:34:33.389,60.7809,9.6778,5.5823
2026-07-22T15:34:33.398,60.7809,9.6386,5.6019
2026-07-22T15:34:33.409,60.7863,9.5799,5.5823
2026-07-22T15:34:33.414,60.7863,9.5799,5.6019
2026-07-22T15:34:33.418,60.8205,9.6582,5.641
2026-07-22T15:34:33.432,60.8205,9.5995,5.6019
2026-07-22T15:34:33.443,60.8297,9.619,5.641
2026-07-22T15:34:33.448,60.8387,9.5799,5.5627
2026-07-22T15:34:33.465,60.8704,9.5603,5.5627
2026-07-22T15:34:33.465,60.8744,9.5016,5.5627
2026-07-22T15:34:33.482,60.8794,9.5407,5.6214
2026-07-22T15:34:33.500,60.8849,9.5016,5.7389
2026-07-22T15:34:33.511,60.9067,9.5211,5.6214
2026-07-22T15:34:33.522,60.9067,9.482,5.5627
2026-07-22T15:34:33.526,60.9067,9.5016,5.6214
2026-07-22T15:34:33.536,60.9222,9.4232,5.5823
2026-07-22T15:34:33.547,60.9318,9.4428,5.641
2026-07-22T15:34:33.560,60.9612,9.4624,5.6214
2026-07-22T15:34:33.568,60.9612,9.482,5.641
2026-07-22T15:34:33.568,60.9694,9.482,5.641
2026-07-22T15:34:33.594,60.9727,9.5016,5.6606
2026-07-22T15:34:33.594,60.9727,9.482,5.5823
2026-07-22T15:34:33.615,61.0073,9.4428,5.5823
2026-07-22T15:34:33.619,61.0158,9.4624,5.5823
2026-07-22T15:34:33.623,61.0229,9.5211,5.5823
2026-07-22T15:34:33.634,61.027,9.5603,5.6214
2026-07-22T15:34:33.634,61.0355,9.5211,5.6802
2026-07-22T15:34:33.650,61.0667,9.5211,5.6998
2026-07-22T15:34:33.666,61.0717,9.5016,5.7389
2026-07-22T15:34:33.683,61.0804,9.5016,5.6802
2026-07-22T15:34:33.684,61.0824,9.482,5.6998
2026-07-22T15:34:33.697,61.0824,9.4624,5.6802
2026-07-22T15:34:33.705,61.1143,9.4624,5.7389
2026-07-22T15:34:33.713,61.1205,9.5407,5.7389
2026-07-22T15:34:33.728,61.127,9.482,5.7193
2026-07-22T15:34:33.742,61.1308,9.5211,5.7193
2026-07-22T15:34:33.752,61.1347,9.482,5.7781
2026-07-22T15:34:33.752,61.1626,9.4624,5.6214
2026-07-22T15:34:33.760,61.1692,9.4624,5.6998
2026-07-22T15:34:33.760,61.1692,9.5603,5.7389
2026-07-22T15:34:33.789,61.1786,9.5016,5.6802
2026-07-22T15:34:33.796,61.1786,9.4624,5.7193
2026-07-22T15:34:33.807,61.2099,9.482,5.7389
2026-07-22T15:34:33.812,61.2099,9.482,5.641
2026-07-22T15:34:33.831,61.2099,9.3841,5.6998
2026-07-22T15:34:33.840,61.2261,9.3841,5.6998
2026-07-22T15:34:33.840,61.2299,9.4037,5.641
2026-07-22T15:34:33.854,61.2551,9.4232,5.6802
2026-07-22T15:34:33.854,61.2551,9.4624,5.7193
2026-07-22T15:34:33.872,61.2672,9.4624,5.6998
2026-07-22T15:34:33.888,61.2719,9.5211,5.7193
2026-07-22T15:34:33.892,61.2875,9.4428,5.6998
2026-07-22T15:34:33.912,61.3046,9.3841,5.7389
2026-07-22T15:34:33.917,61.3109,9.3449,5.7193
2026-07-22T15:34:33.929,61.3109,9.3253,5.7193
2026-07-22T15:34:33.937,61.3184,9.4037,5.6606
2026-07-22T15:34:33.946,61.3451,9.3841,5.7193
2026-07-22T15:34:33.949,61.3479,9.4428,5.6998
2026-07-22T15:34:33.966,61.3505,9.3449,5.7193
2026-07-22T15:34:33.973,61.3576,9.4232,5.6998
2026-07-22T15:34:33.989,61.3851,9.4037,5.7781
2026-07-22T15:34:33.996,61.3911,9.3841,5.7193
2026-07-22T15:34:33.996,61.3943,9.4037,5.7585
2026-07-22T15:34:34.017,61.4015,9.4037,5.6998
2026-07-22T15:34:34.019,61.4058,9.3841,5.7389
2026-07-22T15:34:34.034,61.4352,9.3645,5.7389
2026-07-22T15:34:34.044,61.438,9.3645,5.876
2026-07-22T15:34:34.056,61.44,9.3253,5.6998
2026-07-22T15:34:34.063,61.4455,9.3253,5.7193
2026-07-22T15:34:34.076,61.4773,9.3058,5.6606
2026-07-22T15:34:34.076,61.4821,9.3058,5.7193
2026-07-22T15:34:34.092,61.4868,9.3645,5.7585
2026-07-22T15:34:34.107,61.4931,9.3449,5.7193
2026-07-22T15:34:34.113,61.4964,9.3253,5.7585
2026-07-22T15:34:34.123,61.5271,9.2666,5.7193
2026-07-22T15:34:34.123,61.5271,9.3449,5.6998
2026-07-22T15:34:34.151,61.5323,9.3058,5.6606
2026-07-22T15:34:34.155,61.5323,9.2862,5.641
2026-07-22T15:34:34.158,61.5647,9.2666,5.641
2026-07-22T15:34:34.171,61.5647,9.2666,5.5823
2026-07-22T15:34:34.194,61.5798,9.1883,5.6998
2026-07-22T15:34:34.194,61.5819,9.2862,5.6998
2026-07-22T15:34:34.202,61.5819,9.2666,5.6998
2026-07-22T15:34:34.218,61.6112,9.2862,5.6802
2026-07-22T15:34:34.226,61.6154,9.2862,5.7389
2026-07-22T15:34:34.241,61.6154,9.2862,5.6214
2026-07-22T15:34:34.244,61.6235,9.2079,5.6606
2026-07-22T15:34:34.265,61.6513,9.1883,5.641
2026-07-22T15:34:34.265,61.6513,9.247,5.6606
2026-07-22T15:34:34.273,61.6549,9.2862,5.6802
2026-07-22T15:34:34.285,61.6617,9.2862,5.6802
2026-07-22T15:34:34.297,61.6846,9.3253,5.6998
2026-07-22T15:34:34.297,61.6846,9.2862,5.641
2026-07-22T15:34:34.317,61.6846,9.2666,5.6214
2026-07-22T15:34:34.323,61.7196,9.1883,5.641
2026-07-22T15:34:34.331,61.7216,9.2274,5.5823
2026-07-22T15:34:34.346,61.7315,9.2274,5.5823
2026-07-22T15:34:34.346,61.7362,9.2274,5.5823
2026-07-22T15:34:34.359,61.7407,9.2274,5.6019
2026-07-22T15:34:34.375,61.7668,9.1687,5.6019
2026-07-22T15:34:34.393,61.7703,9.2274,5.5627
2026-07-22T15:34:34.398,61.7742,9.1491,5.6606
2026-07-22T15:34:34.402,61.7808,9.2079,5.6606
2026-07-22T15:34:34.414,61.8083,9.2079,5.6214
2026-07-22T15:34:34.429,61.8114,9.1099,5.5235
2026-07-22T15:34:34.436,61.8156,9.0904,5.5431
2026-07-22T15:34:34.445,61.8156,9.0904,5.6019
2026-07-22T15:34:34.454,61.8478,9.1099,5.6019
2026-07-22T15:34:34.466,61.8523,9.1295,5.5627
2026-07-22T15:34:34.477,61.8543,9.1883,5.5823
2026-07-22T15:34:34.486,61.8849,9.1295,5.5627
2026-07-22T15:34:34.504,61.8898,9.1295,5.641
2026-07-22T15:34:34.509,61.8927,9.0708,5.6606
2026-07-22T15:34:34.520,61.8959,9.1099,5.7193
2026-07-22T15:34:34.533,61.9223,9.1099,5.6998
2026-07-22T15:34:34.534,61.9291,9.1295,5.641
2026-07-22T15:34:34.534,61.9306,9.1099,5.641
2026-07-22T15:34:34.562,61.9351,9.1295,5.6802
2026-07-22T15:34:34.564,61.9361,9.2274,5.6802
