107.05261 61.23047 59.417725 68.58215 67.8772 90.93933 99.70093 61.12976 -38.671875 -91.8457 -101.61438 -85.80322 -79.2572 -129.91333 
20.846558 66.16516 67.8772 65.66162 75.4303 72.9126 51.864624 37.96692 77.545166 115.008545 152.37122 162.84485 157.2052 192.05017 
3062.732 3049.4385 3035.9436 3022.1465 3008.2488 2994.2505 2980.3528 2966.455 2952.8594 2939.0625 2925.6682 2912.2742 2898.9807 2884.7808 
-2403.7993 -2392.9229 -2382.0464 -2371.2708 -2360.5957 -1709.7198 507.66907 -1914.7614 -2337.1306 -2326.5564 -2316.1833 -2306.012 -2295.8403 -2285.8704 
3063.6382 3079.8523 3095.462 3110.971 3126.0771 3141.2842 3156.3904 3171.2952 3186.099 3200.5005 3215.0024 3229.8064 3244.2078 3258.5083 
-3147.83 -3133.0261 -3118.222 -3103.6194 -3089.218 -3074.817 -3060.617 -3046.4172 -3032.5195 -3018.6218 -3004.9255 -2991.3298 -2977.7344 -2964.441 
-1567.0166 3081.8665 3098.9868 3115.6035 3132.019 3148.233 3164.2456 3180.1575 3195.868 3211.679 3227.0874 3242.2942 3257.8032 3299.4963 
-3064.4438 -3050.5461 -3036.9507 -3023.4558 -3009.7595 -2996.466 -2983.374 -2970.1812 -2957.2905 -2944.2993 -2931.4087 -2918.7195 -2906.1309 -2893.643 

-94.16199 -36.053467 -38.36975 -45.92285 -43.203735 -51.763916 -57.000732 -16.818237 -17.926025 1.5106201 14.703369 4.2297363 -29.406738 -106.64978 -101.815796 -78.85437 -100.00305 -117.022705 -89.52942 -24.27063 8.862305 1.7120361 -19.638062 -23.565674 -13.494873 62.338257 122.86377 100.40588 98.89526 105.441284 107.85828 115.008545 122.76306 108.1604 46.728516 -19.23523 -44.110107 -29.608154 -32.83081 -50.756836 -37.86621 -3.7261963 -0.30212402 -12.588501 -19.73877 -30.715942 -43.00232 -22.155762 -19.033813 -13.897705 -21.551514 -54.0802 -89.227295 -107.65686 -50.656128 -46.5271 -28.903198 16.415405 46.02356 114.001465 162.84485 161.13281 147.1344 124.4751 61.431885 24.371338 28.80249 19.335938 11.480713 -21.350098 -56.19507 -64.75525 -61.12976 -43.40515 -47.232056 -37.161255 -17.523193 -13.796997 -6.3446045 -42.196655 -35.650635 -32.025146 -36.95984 -51.763916 -55.892944 -68.68286 -84.695435 -83.08411 -75.4303 -37.46338 -19.23523 -3.4240723 17.120361 20.74585 96.57898 144.31458 167.276 173.82202 184.29565 196.38062 138.77563 84.695435 20.040894 -65.963745 -130.31616 -174.02344 -174.7284 -173.11707 -113.09509 -51.663208 -12.084961 13.293457 48.44055 60.62622 44.311523 33.9386 -3.8269043 -24.27063 -6.9488525 -29.003906 -34.240723 -58.007812 -84.191895 -103.02429 -112.18872 -120.14465 -112.69226 -63.446045 -28.097534 -3.5247803 -15.307617 -19.940186 -4.7332764 10.070801 40.081787 28.903198 23.666382 22.155762 36.154175 58.309937 46.627808 35.751343 27.29187 16.918945 16.516113 50.958252 66.26587 65.86304 88.62305 93.255615 77.041626 86.50818 100.10376 78.048706 37.36267 17.321777 15.811157 21.450806 16.818237 -31.420898 -33.535767 -11.178589 17.523193 30.514526 11.480713 -24.169922 -33.132935 -15.609741 -16.314697 -32.32727 -50.354004 -65.3595 -78.75366 -78.25012 -45.117188 -28.399658 -13.696289 17.825317 36.657715 76.23596 98.89526 123.77014 139.07776 130.8197 146.83228 158.01086 123.66943 66.36658 41.89453 17.422485 -20.343018 -33.233643 -15.307617 -37.86621 -57.10144 -69.08569 -61.12976 -80.4657 -93.85986 -112.69226 -80.667114 -93.35632 -109.57031 -99.801636 -87.31384 -87.213135 -43.90869 -15.206909 -46.92993 -67.07153 -81.674194 -98.291016 -112.490845 -105.74341 -62.539673 -44.41223 -21.954346 15.509033 34.744263 38.36975 
151.56555 75.531006 32.226562 8.862305 3.8269043 0.20141602 -0.60424805 -50.05188 -37.36267 -43.40515 -32.629395 -24.472046 -34.744263 -21.350098 -99.09668 -149.34998 -134.34448 -106.04553 -86.60889 -121.35315 -118.33191 -81.06995 -60.12268 -28.198242 -1.4099121 -24.77417 -26.687622 29.910278 59.921265 86.709595 99.70093 116.11633 91.04004 61.6333 64.453125 53.17383 43.90869 3.2226562 5.4382324 30.81665 -4.3304443 -48.03772 -69.08569 -77.948 -79.2572 -48.843384 -26.687622 -61.73401 -74.92676 -86.00464 -58.10852 -13.394165 40.88745 62.438965 -30.413818 -77.142334 -64.75525 -59.921265 -59.820557 -79.35791 -66.56799 -46.829224 -30.615234 -17.623901 -33.83789 -68.481445 -86.30676 -38.671875 -21.954346 -16.918945 -1.2084961 2.3162842 -0.30212402 53.17383 106.54907 98.19031 77.84729 71.502686 80.36499 127.99988 111.68518 89.83154 81.06995 73.61755 82.07703 98.291016 96.67969 48.54126 32.32727 18.127441 25.479126 53.67737 69.79065 72.71118 8.358765 -25.177002 -67.67578 -97.18323 -135.7544 -186.81335 -170.09583 -141.89758 -127.39563 -122.25952 -116.21704 -146.22803 -142.30042 -65.25879 -24.472046 8.963013 52.468872 84.39331 57.10144 51.461792 78.75366 90.5365 112.490845 129.40979 134.04236 154.88892 126.18713 111.38306 113.80005 110.57739 107.958984 107.15332 75.83313 13.494873 -11.682129 -13.998413 -8.560181 11.380005 4.6325684 -17.623901 -64.65454 -87.91809 -113.69934 -114.30359 -119.13757 -135.35156 -132.0282 -129.71191 -123.16589 -82.78198 -51.965332 -64.151 -40.38391 -3.1219482 -15.710449 -20.544434 4.2297363 4.2297363 -18.328857 30.81665 79.96216 104.03137 108.56323 102.11792 100.305176 134.74731 68.984985 32.629395 5.2368164 7.1502686 54.0802 77.142334 27.593994 -30.81665 -42.196655 -40.38391 -20.443726 15.307617 31.32019 7.8552246 -52.368164 -80.667114 -76.034546 -69.38782 -60.021973 -86.40747 -64.05029 -23.364258 25.076294 28.097534 -4.2297363 -64.151 -52.06604 -7.2509766 -0.70495605 0.60424805 22.457886 43.103027 30.413818 41.290283 79.2572 110.37598 113.09509 103.427124 86.91101 87.213135 30.31311 3.6254883 11.581421 16.918945 19.335938 18.832397 -10.372925 -37.96692 -40.182495 -47.332764 -39.678955 -18.026733 2.8198242 -20.040894 -41.290283 -43.00232 -51.864624 -45.117188 -56.09436 -88.11951 
2891.226 2909.6558 2928.2866 2945.8098 2963.2324 2980.8562 2998.178 3015.1978 3032.0159 3048.6328 3065.149 3081.4636 3097.6775 3113.7908 3129.904 3145.7153 3161.5264 -2101.3733 825.50354 3160.8215 3141.5862 3130.4077 3116.1072 3102.1086 3087.506 3073.2056 3060.214 3046.9207 3033.4258 3019.528 3005.5298 2991.632 2977.835 2963.9373 2950.241 2936.5447 2923.2512 2909.6558 2896.463 2880.551 2891.4275 2910.4614 2928.0852 2946.414 2964.038 2981.259 2998.2788 3015.1978 3032.0159 3048.6328 3065.048 3081.5642 3097.6775 3113.7908 3129.8035 3145.6145 3161.325 -2043.7683 917.7521 3158.0017 3101.9072 3128.2927 3115.805 3101.5044 3087.3047 3073.1047 3060.0127 3046.7192 3033.1238 3019.226 3005.2275 2991.4307 2977.533 2963.7358 2949.8381 2936.3433 2922.9492 2909.555 2896.161 2641.571 2894.046 2913.0798 2931.2073 2948.6296 2966.2537 2983.7769 3000.9978 3017.9167 3034.735 3051.3518 3067.868 3084.1826 3100.3967 3116.51 3132.4219 3148.3337 3164.0442 -1648.8922 1320.0806 3157.6995 3139.9749 3126.3794 3114.5964 3099.4902 3085.2905 3071.3928 3058.7036 3045.2087 3031.613 3017.7153 3003.9185 2989.8193 2976.123 2962.2253 2948.529 2934.9333 2921.4385 2908.145 2894.8516 1881.2256 2895.8586 2913.986 2932.5164 2949.939 2967.5627 2984.9854 3002.2063 3019.1252 3035.9436 3052.5603 3068.9758 3085.2905 3101.5044 3117.6177 3133.5295 3149.4414 3165.2527 -1289.1632 1759.4696 3154.2754 3137.86 3126.0771 3111.2732 3096.9727 3082.8735 3068.7744 3055.783 3042.389 3028.5918 3014.8955 3000.8972 2986.9995 2973.001 2959.3047 2945.6084 2932.013 2918.518 2905.3252 2891.9312 760.24475 2895.6572 2914.4897 2932.1135 2950.3418 2967.865 2984.9854 3002.005 3018.9238 3035.6414 3052.2583 3068.7744 3085.089 3101.303 3117.3157 3133.3281 3149.0386 3165.2527 -1362.1765 1637.1094 3153.2683 3047.223 3125.2715 3112.4817 3097.577 3083.6792 3069.882 3057.0923 3043.698 3030.1025 3016.104 3002.2063 2988.208 2974.3103 2960.614 2946.817 2933.322 2919.8271 2906.5337 2893.1396 -956.8268 2900.1892 2918.3167 2936.746 2954.0679 2971.591 2989.0137 3006.2346 3023.1536 3039.871 3056.3872 3072.9033 3089.218 3105.3313 3121.344 3137.3564 3153.1677 3237.0574 -1010.8063 2239.6453 3152.8655 
-2275.9001 -2265.7288 -2256.0608 -2246.4934 -2236.8254 -2227.1575 -2217.8923 -2072.7722 -1010.30273 3299.8992 3299.8992 3299.8992 3299.8992 3299.8992 3299.8992 3299.8992 3299.8992 3299.8992 3299.8992 3299.8992 3015.1978 -2461.908 -2449.7222 -2438.2415 -2426.9622 -2415.5823 -2404.605 -2393.628 -2382.852 -2372.0764 -2361.6028 -1303.4637 62.338257 -2346.8994 -2336.1235 -2325.7507 -2315.1763 -2305.1055 -2294.934 -2284.8633 -2274.994 -2265.326 -2255.2551 -2245.5872 -2236.0198 -2226.7546 -2216.986 -1971.5607 -239.58435 3299.8992 3299.8992 3299.8992 3299.8992 3299.8992 3299.8992 3299.8992 3299.8992 3299.8992 3299.8992 3299.8992 2548.8188 -2461.0015 -2449.3193 -2437.9395 -2426.6602 -2415.6829 -2404.4036 -2393.3257 -2382.6506 -2371.875 -2361.2 -1187.3474 -278.65906 -2344.7844 -2334.2102 -2323.7366 -2313.3635 -2303.2927 -2293.222 -2283.0505 -2273.0803 -2263.1104 -2253.4424 -2243.875 -2234.207 -2224.539 -2215.3748 -2003.2837 229.01001 3299.8992 3299.8992 3299.8992 3299.8992 3299.8992 3299.8992 3299.8992 3299.8992 3299.8992 3299.8992 3299.8992 1991.9037 -2459.1887 -2447.1038 -2435.7239 -2424.4446 -2413.0645 -2402.188 -2391.211 -2380.536 -2369.76 -2359.085 -769.9127 -561.145 -2342.9717 -2332.2966 -2321.9238 -2311.6516 -2301.48 -2291.3086 -2281.3384 -2271.3684 -2261.801 -2251.831 -2242.0623 -2232.5957 -2222.8271 -2213.6626 -1952.6276 917.1478 3299.8992 3299.8992 3299.8992 3299.8992 3299.8992 3299.8992 3299.8992 3299.8992 3299.8992 3299.8992 3299.8992 1443.6493 -2457.376 -2445.3918 -2434.0117 -2422.7324 -2411.3525 -2400.3752 -2389.5996 -2378.8237 -2368.1487 -2357.4736 -292.35535 -639.39514 -2342.9717 -2332.3975 -2321.9238 -2311.6516 -2301.48 -2291.4092 -2281.4392 -2271.469 -2261.9019 -2251.7302 -2242.0623 -2232.6965 -2222.8271 -2213.562 -1859.4727 1655.2368 3299.8992 3299.8992 3299.8992 3299.8992 3299.8992 3299.8992 3299.8992 3299.8992 3299.8992 3299.8992 3299.8992 930.13916 -2456.8726 -2444.989 -2433.5083 -2422.229 -2410.9497 -2400.1738 -2389.1968 -2378.5217 -2367.7458 -2356.9702 17.623901 -986.83777 -2342.0654 -2331.491 -2321.1182 -2310.745 -2300.5737 -2290.6035 -2280.5327 -2270.5627 -2260.9954 -2251.0254 -2241.3574 -2231.79 -2222.122 -2212.857 -1788.6749 2592.7275 3299.8992 3299.8992 3299.8992 3299.8992 3299.8992 3299.8992 3299.8992 3299.8992 3299.8992 3299.8992 3299.8992 
1725.3296 3248.236 3234.137 3220.3398 3206.7444 3193.048 3178.8481 3164.6484 3151.355 3137.6587 3123.8616 3109.9639 3096.167 3082.0679 2989.215 1940.6433 1080.0934 500.5188 -47.43347 -252.67639 201.51672 302.32544 82.177734 -93.35632 -181.67725 -1506.4911 3065.3503 3081.2622 3096.469 3111.8774 3127.0842 3142.1904 3157.196 3172.1008 3186.8042 3201.5076 3216.11 3230.612 3245.0134 3259.4146 2436.6301 3246.524 3232.8276 3219.0308 3205.435 3191.7388 3177.6396 3163.44 3150.0457 3136.2488 3122.4517 3108.6548 3094.757 3080.658 2737.848 1559.8663 688.33923 118.533325 -353.4851 -464.26392 32.83081 191.04309 80.163574 -82.9834 -218.7378 -1698.0377 3074.2126 3090.225 3105.835 3121.1426 3136.3494 3151.1536 3166.3604 3181.2651 3195.9685 3210.6719 3225.1738 3239.5752 3253.9763 -3141.989 3081.665 3252.5664 3238.568 3224.8718 3210.6719 3196.875 3183.5815 3169.0796 3155.182 3141.3848 3127.6885 3113.6902 3099.6917 3085.5925 2699.7803 1539.0198 753.1952 234.14612 -242.40417 -296.28296 224.27673 402.3285 124.77722 -31.32019 -249.35303 -1906.1005 3077.133 3092.642 3107.9497 3123.2573 3138.3635 3153.4697 3168.3745 3183.2793 3197.882 3212.7869 3227.0874 3241.5894 3255.9905 -2811.969 3265.7593 3251.7607 3238.0645 3224.1667 3210.7727 3196.7742 3182.675 3168.3745 3154.9805 3141.2842 3127.2856 3113.388 3099.4902 3085.2905 2467.044 1387.1521 656.1127 172.71423 -297.8943 -296.9879 166.77246 266.27197 39.88037 -157.30591 -352.57874 -2224.0356 3082.0679 3097.9797 3113.5894 3128.897 3144.104 3159.1094 3173.9136 3188.8184 3203.6223 3218.1243 3232.727 3247.1282 3261.4287 -2382.7515 3268.579 3254.5806 3240.4814 3226.5837 3213.0889 3199.292 3185.092 3170.691 3157.2966 3143.4998 3129.7026 3115.7043 3101.7058 3087.2039 2459.5916 1484.2346 709.4879 195.97778 -195.87708 -91.54358 492.56287 451.6754 251.97144 19.23523 -506.15845 -2618.6096 3080.5571 3096.167 3111.4746 3126.7822 3141.8884 3156.8938 3171.7986 3186.6028 3201.3062 3215.9087 3230.5115 3245.2148 3259.4146 -1935.6079 3264.2485 3250.2502 3236.4531 3222.7568 3208.8591 3195.0623 3181.4666 3166.9646 3153.067 3139.27 3125.2715 3111.5752 3097.577 3082.8735 2387.8875 1407.2937 755.5115 110.476685 -330.52368 -139.98413 
-2326.2542 -705.3589 1419.3787 3299.8992 3299.8992 3299.8992 3299.8992 3299.8992 3299.8992 3299.8992 3299.8992 3299.8992 3299.8992 3299.8992 3299.8992 3299.8992 3299.8992 3299.8992 3299.8992 3299.8992 759.4391 -3223.5625 -3207.953 -3192.041 -3176.6326 -3161.325 -3146.4202 -3131.5154 -3116.812 -3102.2095 -3087.7075 -3073.407 -3059.207 -3045.108 -3031.1096 -3017.3125 -3003.5156 -2989.92 -2976.3245 -2963.031 -2313.0615 -733.65784 1568.0237 3299.8992 3299.8992 3299.8992 3299.8992 3299.8992 3299.8992 3299.8992 3299.8992 3299.8992 3299.8992 3299.8992 3299.8992 3299.8992 3299.8992 3299.8992 3299.8992 3299.8992 345.02563 -3221.5483 -3206.0393 -3190.0269 -3174.6184 -3159.4116 -3144.406 -3129.5012 -3114.7979 -3100.296 -3085.794 -3071.3928 -3057.1929 -3043.1946 -3029.196 -3015.3992 -3001.5015 -2988.1072 -2974.5117 -2961.2183 -1939.3341 -242.10205 1831.5765 3299.8992 3299.8992 3299.8992 3299.8992 3299.8992 3299.8992 3299.8992 3299.8992 3299.8992 3299.8992 3299.8992 3299.8992 3299.8992 3299.8992 3299.8992 3299.8992 3299.8992 -472.62268 -3221.2463 -3205.133 -3189.624 -3174.417 -3159.2102 -3144.3054 -3129.4006 -3114.6973 -3100.0945 -3085.6934 -3071.292 -3057.2937 -3043.0938 -3029.196 -3015.2983 -3001.5015 -2988.0066 -2974.5117 -2961.1174 -1915.3656 -152.1698 2064.212 3299.8992 3299.8992 3299.8992 3299.8992 3299.8992 3299.8992 3299.8992 3299.8992 3299.8992 3299.8992 3299.8992 3299.8992 3299.8992 3299.8992 3299.8992 3299.8992 3299.8992 -890.6616 -3221.2463 -3205.133 -3189.7246 -3174.5178 -3159.3108 -3144.3054 -3129.5012 -3114.6973 -3100.0945 -3085.6934 -3071.4934 -3057.2937 -3043.1946 -3029.196 -3015.2983 -3001.602 -2988.0066 -2974.6123 -2961.3188 -1835.3027 1.8127441 2152.6335 3299.8992 3299.8992 3299.8992 3299.8992 3299.8992 3299.8992 3299.8992 3299.8992 3299.8992 3299.8992 3299.8992 3299.8992 3299.8992 3299.8992 3299.8992 3299.8992 3299.8992 -1759.7717 -3219.2322 -3203.7231 -3188.0127 -3172.5037 -3157.3975 -3142.2913 -3127.487 -3112.8845 -3098.2817 -3083.8806 -3069.6807 -3055.3801 -3041.3818 -3027.3833 -3013.4856 -2999.8901 -2986.2944 -2972.9004 -2959.506 -1788.2721 304.4403 2567.6514 3299.8992 3299.8992 3299.8992 3299.8992 3299.8992 3299.8992 3299.8992 3299.8992 3299.8992 3299.8992 3299.8992 3299.8992 3299.8992 3299.8992 3299.8992 3299.8992 3292.8496 
725.8026 3264.148 3249.2432 3234.6404 3219.8364 3205.133 3190.631 3176.0283 3161.2244 3145.816 3131.2134 3116.3086 3101.7058 3070.99 1356.2347 172.91565 -391.0492 -603.8452 -725.2991 -466.88232 273.62366 661.6516 747.1527 848.6664 993.2831 259.52454 -1824.527 3085.492 3102.411 3119.0276 3135.443 3151.5564 3167.6697 3183.5815 3199.1912 3214.9016 3230.31 3245.7183 3260.9253 -3188.919 1100.94 3265.155 3250.4517 3235.7483 3220.944 3206.2407 3191.7388 3177.1362 3162.2314 3146.7224 3132.1196 3117.4163 3102.713 3030.1025 1301.8524 170.39795 -311.28845 -440.1947 -447.34497 -202.12097 581.79016 927.9236 979.6875 1061.5631 1065.7928 186.00769 -1992.1051 3079.55 3096.3684 3112.985 3129.5012 3145.816 3161.8286 3177.7405 3193.451 3209.1614 3224.5696 3240.0786 3255.2856 -2947.522 1611.026 3256.4941 3241.7908 3227.0874 3212.4846 3197.882 3183.2793 3168.576 3153.8726 3138.3635 3123.761 3109.1582 3094.3542 2834.4268 939.8071 -77.041626 -506.7627 -596.9971 -671.8231 -353.98865 368.89343 577.1576 713.81836 838.5956 898.114 75.631714 -2175.293 3085.2905 3102.2095 3118.7256 3135.1409 3151.355 3167.3674 3183.2793 3198.9897 3214.5996 3230.0078 3245.4163 3260.5225 -2598.468 2141.9585 3258.5083 3243.805 3229.1016 3214.3982 3199.6948 3185.1929 3170.4895 3155.7861 3140.277 3125.5737 3110.971 3096.167 2739.7612 808.9874 -152.67334 -426.1963 -584.30786 -614.31885 -204.03442 568.89954 813.3179 944.2383 1046.9604 934.3689 -164.7583 -2490.4082 3085.5925 3102.411 3118.927 3135.3423 3151.5564 3167.5688 3183.3801 3199.0906 3214.801 3230.1086 3245.5168 3260.9253 -2394.2322 2266.333 3257.2998 3242.697 3227.9937 3213.1897 3198.6877 3184.085 3169.3816 3154.5776 3139.1692 3124.4658 3109.8633 3095.059 2585.5774 776.55945 -58.511353 -383.19397 -523.78235 -561.9507 -59.1156 674.54224 951.48926 1052.8015 1162.2711 985.12573 -153.98254 -2436.6301 3080.4565 3097.3755 3113.8916 3130.4077 3146.6216 3162.6343 3178.4453 3194.1558 3209.967 3225.476 3240.6829 3255.9905 -1971.0571 2813.379 3249.4446 3234.2375 3219.937 3205.2336 3190.8325 3176.2297 3161.5264 3146.9238 3131.314 3116.7114 3102.008 3087.2039 2464.627 662.4573 -119.74182 -349.15466 -469.70215 -549.3622 -35.247803 
-2302.0842 -1264.389 -30.715942 1149.3805 2245.7886 3299.8992 3299.8992 3299.8992 3299.8992 3299.8992 3299.8992 3299.8992 3299.8992 3299.8992 3299.8992 3299.8992 3299.8992 3299.8992 3299.8992 3299.8992 1755.4413 -997.4121 -3123.8616 -3109.1582 -3094.757 -3080.5571 -3066.458 -3052.6611 -3038.9648 -3025.2686 -3011.7737 -2998.5808 -2985.2874 -2972.1953 -2959.204 -2946.515 -2933.6243 -2920.8342 -2908.2458 -2895.6572 -2327.9663 -1335.4889 -3.7261963 1222.6959 2342.5688 3299.8992 3299.8992 3299.8992 3299.8992 3299.8992 3299.8992 3299.8992 3299.8992 3299.8992 3299.8992 3299.8992 3299.8992 3299.8992 3299.8992 3299.8992 1429.7516 -1403.2654 -3122.351 -3107.6477 -3093.2463 -3079.0466 -3065.149 -3051.2512 -3037.555 -3023.8586 -3010.4644 -2997.2717 -2983.9783 -2970.9868 -2957.8948 -2945.105 -2932.315 -2919.7266 -2907.0374 -2894.3481 -2250.2197 -1224.6094 66.16516 1256.131 2604.8125 3299.8992 3299.8992 3299.8992 3299.8992 3299.8992 3299.8992 3299.8992 3299.8992 3299.8992 3299.8992 3299.8992 3299.8992 3299.8992 3299.8992 3299.8992 1294.2993 -1292.2852 -3123.4587 -3108.7554 -3094.3542 -3080.2551 -3066.2566 -3052.359 -3038.6626 -3025.0671 -3011.6729 -2998.3794 -2985.1868 -2972.0947 -2959.1033 -2946.112 -2933.322 -2920.7336 -2908.0444 -2895.4558 -2315.3777 -1275.2655 -86.00464 1323.8068 2936.746 3299.8992 3299.8992 3299.8992 3299.8992 3299.8992 3299.8992 3299.8992 3299.8992 3299.8992 3299.8992 3299.8992 3299.8992 3299.8992 3299.8992 3299.8992 1625.7294 -751.9867 -2684.674 -2891.7297 -3036.2456 -3083.6792 -3069.6807 -3055.6824 -3041.986 -3028.6926 -3015.097 -3001.8035 -2988.4094 -2975.418 -2962.2253 -2949.4353 -2936.6455 -2912.8784 -2722.8423 -2486.6821 -2377.8167 -2141.2537 -1233.0688 -119.33899 1146.6614 3299.8992 3299.8992 3299.8992 3299.8992 3299.8992 3299.8992 3299.8992 3299.8992 3299.8992 3299.8992 3299.8992 3299.8992 3299.8992 3299.8992 2897.7722 -481.98853 -3097.7783 -3083.2764 -3069.0764 -3054.8767 -3040.979 -3027.2827 -3013.687 -3000.1921 -2986.8987 -2973.5046 -2960.614 -2947.4211 -2934.5305 -2921.7407 -2909.152 -2896.463 -2883.975 -2871.4873 -2700.7874 -1580.7129 -372.82104 875.85754 2108.7249 3299.8992 3299.8992 3299.8992 3299.8992 3299.8992 3299.8992 3299.8992 3299.8992 3299.8992 3299.8992 3299.8992 3299.8992 3299.8992 3299.8992 3299.8992 3299.8992 

-16.314697 -47.03064 -26.184082 2.3162842 40.786743 89.227295 103.326416 107.05261 124.4751 147.2351 152.1698 138.3728 160.62927 137.66785 98.291016 45.721436 -10.977173 -42.196655 -53.274536 -70.79773 -38.571167 -58.007812 -103.930664 -135.65369 -147.73865 -131.02112 -82.27844 -46.627808 -31.420898 -16.113281 -12.588501 -39.074707 -79.660034 -71.20056 -28.198242 1.3092041 14.703369 22.155762 34.94568 60.021973 51.361084 39.074707 29.608154 13.696289 44.41223 110.980225 111.18164 84.79614 71.90552 74.12109 102.72217 122.15881 145.52307 127.89917 143.4082 141.89758 144.41528 142.40112 79.96216 -16.71753 -10.977173 -6.0424805 -21.24939 -42.095947 -117.92908 -195.67566 -236.66382 -260.12878 -227.49939 -144.21387 -72.9126 -37.765503 -34.039307 6.9488525 28.601074 20.544434 25.479126 37.46338 62.74109 64.35242 64.35242 64.35242 64.35242 64.35242 64.35242 64.35242 64.35242 64.35242 64.35242 64.35242 64.35242 64.35242 64.35242 64.35242 64.35242 64.35242 64.35242 64.35242 64.35242 64.35242 -125.38147 -147.2351 -178.45459 -220.75195 -216.62292 -188.32397 -120.7489 -76.638794 -41.89453 -25.479126 -21.350098 -26.586914 -53.17383 -50.152588 -30.514526 -25.881958 -17.72461 -28.601074 18.127441 55.792236 46.829224 33.233643 26.78833 22.659302 35.95276 80.56641 76.23596 79.055786 104.937744 114.001465 126.38855 158.5144 187.82043 158.5144 140.7898 144.81812 168.28308 170.90149 119.33899 25.579834 -28.80249 -98.89526 -122.25952 -88.62305 -81.170654 -61.23047 -33.032227 -68.38074 -106.24695 -130.41687 -141.29333 -136.76147 -138.07068 -119.33899 -107.15332 -91.8457 -66.26587 -45.318604 -25.27771 -18.832397 -17.926025 -0.60424805 -2.4169922 -15.005493 -1.2084961 35.95276 33.132935 68.68286 112.39014 127.093506 144.01245 139.07776 135.45227 114.70642 115.81421 112.994385 93.35632 102.72217 64.65454 23.162842 46.627808 35.549927 -2.6184082 -23.565674 -16.113281 1.6113281 59.417725 63.446045 34.44214 -21.551514 -68.88428 -102.52075 -145.22095 -156.70166 -165.16113 -188.12256 -222.36328 -236.76453 -175.63477 -132.0282 
-92.04712 -69.89136 -68.984985 -92.248535 -94.3634 -119.036865 -73.81897 -28.500366 -14.099121 4.2297363 48.843384 79.45862 50.152588 61.431885 69.79065 65.56091 47.53418 33.636475 15.710449 27.191162 -19.537354 -45.721436 -59.820557 -64.151 -40.48462 -13.998413 -10.070801 -31.32019 -39.88037 -56.09436 -4.7332764 58.914185 116.11633 110.27527 49.749756 2.0141602 -59.417725 -66.76941 -60.324097 -65.56091 -45.721436 -33.33435 -32.32727 -32.32727 -31.924438 -60.72693 -21.853638 15.811157 13.394165 0.20141602 4.3304443 17.019653 6.2438965 50.253296 88.82446 113.90076 101.71509 66.26587 66.467285 97.58606 58.914185 36.95984 29.205322 2.1148682 4.1290283 16.21399 -21.954346 -52.267456 -57.806396 -50.454712 -27.493286 1.3092041 43.50586 6.9488525 -20.846558 0.60424805 -15.307617 -57.10144 -87.213135 -79.96216 -53.778076 -35.34851 -11.279297 10.876465 -16.113281 -64.151 -7.6538086 37.161255 23.062134 20.544434 32.629395 48.03772 54.483032 109.973145 127.79846 112.79297 72.40906 60.324097 64.85596 64.956665 6.3446045 -16.71753 -0.70495605 10.272217 44.613647 92.248535 37.664795 -21.853638 -64.956665 -68.984985 -45.52002 -37.060547 -33.33435 -105.74341 -148.24219 -131.42395 -93.55774 -52.468872 -57.20215 -64.35242 -49.95117 -37.261963 -27.493286 -5.1361084 -4.1290283 -18.530273 39.074707 88.42163 110.37598 136.45935 144.51599 136.05652 123.97156 166.26892 174.7284 169.693 116.72058 75.22888 78.85437 71.90552 4.9346924 -30.31311 -60.324097 -88.723755 -81.37207 -63.24463 -79.35791 -90.13367 -132.33032 -152.47192 -164.45618 -147.94006 -102.420044 -133.13599 -150.75989 -148.4436 -139.88342 -137.46643 -133.74023 -103.326416 -66.36658 -34.140015 -6.8481445 25.27771 20.141602 4.9346924 56.396484 61.935425 50.756836 68.58215 81.27136 75.83313 68.58215 98.19031 89.83154 90.43579 84.191895 72.40906 80.96924 77.545166 48.03772 46.92993 35.34851 30.212402 44.91577 77.142334 52.468872 54.281616 30.31311 30.31311 60.62622 42.095947 22.055054 -60.22339 -108.1604 -109.16748 -116.72058 -109.469604 -125.88501 -116.41846 
3137.9607 3125.5737 3111.1724 3096.9727 3082.672 3069.0764 3055.9844 3042.691 3028.7932 3015.097 3000.9978 2987.1 2973.2024 2959.506 2945.8098 2932.2144 2918.82 2905.426 2892.1326 -2170.2576 2901.6997 2919.8271 2937.854 2955.78 2973.1018 2990.5242 3007.6445 3024.5635 3041.281 3057.898 3074.3132 3090.5273 3106.7412 3122.754 3138.6658 -3288.1165 -3046.5178 -1559.8663 924.4995 1840.9424 1733.2855 2186.8743 2748.3215 2726.8706 3110.971 3097.9797 3085.2905 3071.8962 3058.3008 3044.2017 3030.1025 3016.104 3002.1057 2988.0066 2974.2095 2960.4126 2946.7163 2933.1206 2919.5251 2913.5833 2932.5164 2950.241 2967.9656 2985.8916 3003.1128 3020.1323 3036.8499 3053.5674 3070.0835 3086.499 3102.8137 3118.927 3134.9395 3150.7507 3166.5618 3182.2722 -2793.7407 -41.088867 2927.481 3172.9065 3159.5122 3146.2188 3131.6162 3116.51 3102.31 3088.7146 3075.5217 3061.9263 3048.0286 3034.03 3020.1323 3005.9326 2992.035 2978.2378 2964.5415 2950.8452 2937.2498 2923.8555 2910.26 2906.836 2925.6682 2943.4937 2961.7217 2978.842 2996.1638 3013.4856 3030.606 3047.4243 3064.041 3080.3557 3096.6704 3112.8845 3128.9978 3144.8088 3160.7207 3176.2297 -2607.5317 330.22156 3094.2534 3160.4187 3148.3337 3136.148 3121.344 3107.0435 3093.3472 3079.55 3066.2566 3052.6611 3038.7634 3024.8657 3010.968 2996.869 2982.9712 2969.174 2955.4778 2941.983 2928.3875 2915.094 2901.2969 2901.2969 2920.1294 2938.6597 2955.9814 2974.008 2991.3298 3008.2488 3025.0671 3041.7847 3058.4014 3074.9175 3091.2322 3107.4463 3123.4587 3139.4714 3155.2825 3170.993 -2542.4744 266.7755 3004.9255 3106.4392 3142.996 3131.5154 3116.7114 3102.31 3088.7146 3075.0183 3061.7249 3048.1292 3034.4329 3020.3337 3006.436 2992.4377 2978.6406 2964.743 2951.1475 2937.6526 2924.1577 2910.7634 2896.8657 2900.0884 2918.82 2937.2498 2955.1758 2972.3967 2989.618 3007.0403 3024.06 3040.8782 3057.495 3073.9104 3090.225 3106.4392 3122.5525 3138.4644 3154.3762 3169.9858 -2124.0325 874.2462 3168.8782 3148.8372 
313.50403 -2455.8655 -2443.982 -2432.5012 -2421.3225 -2409.8418 -2399.0662 -2388.2903 -2377.4138 -2366.7388 -2356.0637 215.31372 -1237.5 -2340.5547 -2329.9805 -2319.6074 -2309.3352 -2299.2644 -2289.093 -2279.1228 -2269.1528 -2259.6863 -2249.5146 -2239.9475 -2230.3801 -2220.7122 -2135.2112 -1515.9576 3299.8992 3299.8992 3299.8992 3299.8992 3299.8992 3299.8992 3299.8992 3299.8992 3299.8992 3299.8992 3299.8992 3299.8992 -302.9297 -2455.3618 -2443.579 -2432.0984 -2420.9197 -2409.5398 -2398.764 -2387.8875 -2377.1118 -2366.336 -2351.6326 386.2152 -1343.747 -2341.0583 -2330.5847 -2320.111 -2309.8389 -2299.6672 -2289.5964 -2279.6265 -2269.6562 -2260.089 -2250.0183 -2240.451 -2230.8838 -2221.2158 -2212.0513 -1859.5734 3299.8992 3299.8992 3299.8992 3299.8992 3299.8992 3299.8992 3299.8992 3299.8992 3299.8992 3299.8992 3299.8992 3299.8992 -921.07544 -2452.3406 -2440.5579 -2429.2786 -2417.9993 -2406.72 -2395.944 -2385.0676 -2374.292 -2363.617 -2225.4456 609.5856 -1261.5692 -2339.6484 -2329.1748 -2318.7012 -2308.5295 -2298.4587 -2288.1865 -2278.2166 -2268.3472 -2258.7798 -2248.709 -2239.1418 -2229.5745 -2219.9065 -2166.934 -1574.5697 3299.8992 3299.8992 3299.8992 3299.8992 3299.8992 3299.8992 3299.8992 3299.8992 3299.8992 3299.8992 3299.8992 3299.8992 -1729.5593 -2451.233 -2439.45 -2428.07 -2416.8914 -2406.015 -2394.8364 -2383.96 -2373.285 -2362.509 -2135.1104 652.3865 -1356.4362 -2339.1448 -2328.5706 -2318.2983 -2307.9253 -2297.754 -2287.683 -2277.713 -2267.743 -2257.7727 -2248.2056 -2238.6382 -2229.071 -2219.9065 -2151.123 -1511.7279 3299.8992 3299.8992 3299.8992 3299.8992 3299.8992 3299.8992 3299.8992 3299.8992 3299.8992 3299.8992 3299.8992 3232.727 -2459.2896 -2447.2046 -2435.9253 -2424.7466 -2413.4673 -2402.6917 -2391.513 -2380.536 -2369.9614 -2359.2864 -1847.0856 908.3862 -1213.7329 -2338.6414 -2327.9663 -2317.5933 -2307.321 -2297.1497 -2287.1794 -2277.1086 -2267.2393 -2257.1685 -2247.6013 -2238.1348 -2228.5674 -2219.3022 -2089.2883 -1281.7108 3299.8992 3299.8992 3299.8992 3299.8992 3299.8992 3299.8992 3299.8992 3299.8992 3299.8992 3299.8992 3299.8992 3107.7483 
347.64404 404.04053 239.68506 105.944824 -379.8706 -2744.696 3078.3416 3094.3542 3109.9639 3125.2715 3140.3777 3155.484 3170.288 3185.2935 3199.9968 3214.7002 3229.1016 3243.6035 3258.0046 -1412.027 3260.321 3246.3225 3232.3242 3218.7285 3204.428 3190.7317 3177.3376 3162.7349 3148.8372 3135.0403 3121.2432 3107.5469 3093.3472 3075.7231 2134.1033 1150.6897 480.4779 -0.30212402 -359.6283 -18.429565 321.35925 228.9093 71.7041 9.768677 -586.72485 -3205.435 3082.0679 3097.6775 3112.7837 3128.0913 3143.2983 3158.2031 3173.108 3188.0127 3202.716 3217.218 3231.9214 3246.222 3260.623 -804.9591 3260.2202 3246.222 3232.6262 3218.628 3205.133 3191.336 3177.3376 3162.9363 3149.5422 3135.6445 3121.8474 3108.0505 3094.052 3076.6296 2263.5132 1292.0837 603.8452 40.081787 -296.38367 47.43347 358.82263 167.88025 -61.935425 -272.21375 -986.83777 3069.0764 3084.5854 3100.5981 3116.0063 3131.2134 3146.4202 3161.4258 3176.3306 3191.034 3205.838 3220.3398 3234.8418 3249.2432 3263.5437 -91.64429 3260.321 3246.4233 3232.4248 3218.7285 3204.428 3190.7317 3177.3376 3162.7349 3148.8372 3135.0403 3121.1426 3107.2449 3093.2463 3074.3132 2152.2307 1166.4001 613.8153 80.06287 -109.87244 404.8462 630.73425 525.09155 329.3152 121.75598 -850.2777 3060.8184 3077.133 3092.8435 3107.9497 3123.3582 3138.4644 3153.5706 3168.4753 3183.2793 3197.9827 3212.8875 3227.188 3241.5894 3255.9905 421.463 3250.7537 3236.856 3223.2605 3209.7656 3195.5657 3181.7688 3168.3745 3153.772 3140.1763 3126.3794 3112.4817 3098.6846 3084.7869 3070.5872 2902.6062 2173.178 1503.3691 821.5759 599.21265 1179.0894 1362.3779 1223.8037 985.6293 924.3988 -229.61426 3161.1235 3041.7847 3057.2937 3072.702 3088.211 3103.5186 3118.7256 3133.731 3148.8372 3163.742 3178.4453 3193.048 3207.6506 -3237.2588 291.44897 3216.8152 3203.2195 3189.7246 3176.3306 3162.7349 3149.1394 3135.745 3121.4446 3108.0505 3094.4548 3080.8594 3067.163 3053.064 2212.7563 553.79333 -276.8463 -786.9324 -1461.3739 -1526.2299 -821.1731 
-2573.593 -3217.218 -3201.8096 -3186.099 -3170.691 -3155.484 -3140.4785 -3125.7751 -3110.971 -3096.5698 -3082.1685 -3067.868 -3053.6682 -3039.6697 -3025.772 -3011.975 -2998.3794 -2984.5825 -2971.1882 -2817.4072 -1420.285 600.72327 2853.662 3299.8992 3299.8992 3299.8992 3299.8992 3299.8992 3299.8992 3299.8992 3299.8992 3299.8992 3299.8992 3299.8992 3299.8992 3299.8992 3299.8992 3299.8992 3299.8992 3155.6853 -2995.1567 -3218.3257 -3202.5146 -3187.1062 -3171.8994 -3156.7932 -3141.7876 -3126.9836 -3112.2803 -3097.7783 -3083.2764 -3068.9758 -3054.8767 -3040.8782 -3026.88 -3013.0828 -2999.4873 -2985.791 -2972.2961 -2692.7307 -1282.8186 685.5194 2800.186 3299.8992 3299.8992 3299.8992 3299.8992 3299.8992 3299.8992 3299.8992 3299.8992 3299.8992 3299.8992 3299.8992 3299.8992 3299.8992 3299.8992 3299.8992 3299.8992 2717.6055 -3232.8276 -3216.7144 -3200.702 -3185.3943 -3170.1873 -3155.182 -3140.1763 -3125.3723 -3110.7695 -3096.167 -3081.8665 -3067.465 -3053.366 -3039.3677 -3025.47 -3011.5723 -2997.876 -2984.2803 -2970.9868 -2624.954 -1328.0365 763.3667 3000.8972 3299.8992 3299.8992 3299.8992 3299.8992 3299.8992 3299.8992 3299.8992 3299.8992 3299.8992 3299.8992 3299.8992 3299.8992 3299.8992 3299.8992 3299.8992 3299.8992 2127.658 -3228.195 -3212.1826 -3196.7742 -3181.2651 -3165.9575 -3150.8513 -3135.846 -3121.1426 -3106.4392 -3092.1387 -3077.6367 -3063.4368 -3049.237 -3035.138 -3021.3408 -3007.544 -2993.8477 -2980.3528 -2967.0593 -2585.2751 -1138.0005 1018.8629 3299.8992 3299.8992 3299.8992 3299.8992 3299.8992 3299.8992 3299.8992 3299.8992 3299.8992 3299.8992 3299.8992 3299.8992 3299.8992 3299.8992 3299.8992 3299.8992 3299.8992 1613.9465 -3225.0732 -3209.1614 -3193.753 -3178.1433 -3162.8357 -3147.7295 -3132.9253 -3118.1213 -3103.5186 -3089.1174 -3074.817 -3060.4155 -3046.4172 -3032.5195 -3018.521 -3004.724 -2991.0278 -2977.6335 -2964.2395 -2533.0078 -1181.607 981.80237 3285.5986 3299.8992 3299.8992 3299.8992 3299.8992 3299.8992 3299.8992 3299.8992 3299.8992 3299.8992 3299.8992 3299.8992 3299.8992 3299.8992 3299.8992 3299.8992 3299.8992 980.39246 
706.6681 948.87085 1044.0399 1197.9218 1093.689 -172.61353 -2503.601 3073.407 3090.4265 3106.9426 3123.3582 3139.7734 3155.5847 3171.5972 3187.6099 3203.119 3218.4265 3234.137 3249.2432 -1602.4658 3097.9797 3240.3809 3225.1738 3210.974 3196.4722 3181.9702 3167.3674 3152.765 3138.0615 3122.5525 3108.0505 3093.3472 3078.3416 2156.1584 369.9005 -369.6991 -596.59424 -601.3275 -492.26074 131.22253 742.3187 917.7521 924.3988 1083.8196 904.86145 -541.60767 -2808.6455 3074.2126 3091.1316 3107.6477 3124.063 3140.3777 3156.2896 3172.2014 3188.1133 3203.6223 3219.2322 3234.5398 3249.7466 -1173.7518 3252.7678 3238.0645 3222.8577 3208.5571 3194.1558 3179.6538 3165.0513 3150.5493 3135.745 3120.1355 3105.7341 3091.0308 3075.9246 1985.257 340.49377 -321.45996 -603.5431 -733.75854 -651.3794 140.48767 646.0419 753.1952 746.0449 895.3949 563.3606 -999.4263 -3192.9473 3082.0679 3098.9868 3115.3015 3131.7168 3148.0315 3164.0442 3179.7546 3195.5657 3211.1755 3226.4832 3241.8914 3257.199 -650.87585 3256.7961 3242.1936 3227.3894 3212.7869 3198.0835 3183.4807 3168.8782 3154.1748 3139.4714 3124.063 3109.4604 3094.757 3077.7373 2534.5183 1337.8052 849.8749 634.0576 556.2103 711.19995 1425.824 1934.198 1984.552 1978.9124 1899.4537 1362.5793 -469.70215 -2671.7834 3036.9507 3053.8696 3070.7886 3087.4053 3103.8208 3120.0347 3136.2488 3152.2612 3168.0725 3183.8835 3199.3926 -3140.68 -956.62537 3209.6648 3202.2124 3188.1133 3173.8127 3159.4116 3145.2117 3130.8105 3116.4092 3101.7058 3086.5996 3071.997 3057.495 2890.0176 640.4022 -934.4696 -1456.7413 -1710.6262 -1760.4767 -1498.4344 -573.3307 -169.18945 -34.744263 54.281616 372.72034 59.518433 -1646.1731 3174.7192 3108.0505 3124.4658 3140.7805 3156.7932 3172.8057 3188.4155 3204.0251 3219.4336 3234.8418 3250.1494 3265.3564 3280.4626 629.52576 3272.406 3257.5012 3242.7979 3227.9937 3213.2903 3198.6877 3183.9844 3169.281 3154.3762 3138.7664 3124.1638 3109.561 3089.923 1636.4044 409.27734 -123.87085 -311.38916 -349.85962 -31.018066 789.24866 
819.0582 -1781.3232 -3101.9072 -3087.4053 -3073.0042 -3058.905 -3045.0073 -3031.311 -3017.7153 -3004.4219 -2991.0278 -2977.7344 -2964.6423 -2951.651 -2938.7603 -2925.8696 -2913.1804 -2900.4912 -2888.0034 -2752.8533 -1745.7733 -662.35657 636.97815 1737.8174 3157.5989 3299.8992 3299.8992 3299.8992 3299.8992 3299.8992 3299.8992 3299.8992 3299.8992 3299.8992 3299.8992 3299.8992 3299.8992 3299.8992 3299.8992 3030.8074 269.99817 -2228.5674 -3105.9355 -3091.4336 -3077.234 -3063.1348 -3049.3376 -3035.6414 -3022.046 -3008.4502 -2995.0562 -2981.964 -2968.872 -2955.8806 -2942.8894 -2929.9988 -2917.3096 -2904.721 -2892.2332 -2579.3335 -1536.5021 -451.3733 746.1456 1893.9148 3299.8992 3299.8992 3299.8992 3299.8992 3299.8992 3299.8992 3299.8992 3299.8992 3299.8992 3299.8992 3299.8992 3299.8992 3299.8992 3299.8992 3299.8992 2757.6873 -111.28235 -2662.9211 -3110.0647 -3095.462 -3081.1614 -3067.163 -3053.2654 -3039.569 -3025.8728 -3012.378 -2999.0845 -2985.8916 -2973.001 -2959.8083 -2946.817 -2934.1277 -2921.237 -2908.6487 -2896.06 -2729.2876 -1877.3987 -793.3777 555.5054 1768.7347 3299.8992 3299.8992 3299.8992 3299.8992 3299.8992 3299.8992 3299.8992 3299.8992 3299.8992 3299.8992 3299.8992 3299.8992 3299.8992 3299.8992 3299.8992 2301.0771 -622.4762 -3114.4958 -3103.2166 -3089.0166 -3074.716 -3060.617 -3046.9207 -3033.2244 -3019.528 -3006.134 -2992.8406 -2979.7485 -2966.5557 -2953.665 -2940.7744 -2927.9846 -2915.2954 -2902.6062 -2890.1184 -2652.246 -1572.9584 -437.677 769.812 1920.8038 3299.8992 3299.8992 3299.8992 3299.8992 3299.8992 3299.8992 3299.8992 3299.8992 3299.8992 3299.8992 3299.8992 3299.8992 3299.8992 3299.8992 3299.8992 2053.4363 -760.44617 -3115.805 -3101.1016 -3086.5996 -3072.5005 -3058.5022 -3044.6045 -3031.0088 -3017.4133 -3004.1199 -2990.7256 -2977.533 -2964.441 -2951.4495 -2938.4583 -2925.769 -2913.1804 -2900.4912 -2888.1042 -2672.2869 -1774.173 -598.10486 627.00806 1808.0109 3299.8992 3299.8992 3299.8992 3299.8992 3299.8992 3299.8992 3299.8992 3299.8992 3299.8992 3299.8992 3299.8992 3299.8992 3299.8992 3299.8992 3299.8992 2030.777 

-143.4082 -139.682 -116.72058 -60.928345 19.033813 68.68286 45.620728 47.131348 67.8772 61.834717 46.829224 47.03064 105.54199 120.95032 104.03137 55.892944 24.169922 26.687622 11.883545 37.261963 71.7041 59.21631 58.914185 71.09985 63.74817 29.80957 25.378418 -32.730103 -61.431885 -76.23596 -89.63013 -117.526245 -168.98804 -160.22644 -162.2406 -173.92273 -139.88342 -50.05188 30.31311 36.758423 -12.487793 19.335938 62.539673 44.51294 51.763916 82.9834 64.55383 51.763916 36.254883 26.083374 66.56799 111.483765 124.4751 107.55615 84.79614 62.13684 31.420898 18.73169 -18.22815 -34.44214 -30.615234 -43.50586 -37.060547 -51.461792 -90.83862 -137.76855 -99.3988 -78.652954 -34.039307 9.768677 33.43506 66.76941 63.24463 78.25012 77.74658 79.055786 80.26428 86.10535 114.90784 122.86377 90.93933 13.595581 -77.142334 -72.509766 8.258057 78.45154 103.930664 126.89209 121.45386 73.31543 8.862305 -16.918945 -41.4917 -59.71985 -39.678955 2.4169922 0.20141602 16.012573 -3.1219482 26.78833 39.175415 19.335938 2.3162842 -2.4169922 -9.466553 -22.961426 -21.75293 -80.06287 -89.02588 -100.20447 -115.008545 -114.60571 -125.079346 -68.28003 -52.267456 -56.69861 -57.907104 -37.664795 -9.869385 -3.2226562 -4.0283203 2.4169922 4.7332764 -14.602661 -33.737183 -52.972412 -71.90552 -54.68445 -42.196655 -43.40515 -26.586914 33.535767 53.274536 41.693115 10.473633 -1.2084961 3.2226562 24.472046 30.81665 43.707275 32.226562 5.3375244 -31.723022 -82.88269 -125.48218 -138.77563 -92.55066 -70.09277 -27.392578 -31.32019 -63.64746 -73.516846 -73.71826 -45.01648 -20.74585 -15.106201 -23.968506 5.5389404 26.184082 10.977173 2.0141602 27.694702 56.69861 80.667114 116.31775 148.4436 141.69617 137.26501 134.94873 121.25244 112.28943 127.093506 87.81738 12.890625 -17.321777 -18.026733 -12.487793 -9.970093 -19.638062 36.758423 40.081787 7.3516846 25.78125 28.399658 -4.2297363 -0.70495605 29.003906 35.247803 61.834717 69.1864 46.224976 -0.50354004 -50.253296 -35.95276 -53.375244 -82.88269 -99.19739 -71.30127 -30.514526 -8.358765 
-127.79846 -138.17139 -110.37598 -88.11951 -95.87402 -98.39172 -27.896118 -5.1361084 20.645142 55.892944 75.73242 77.44446 76.84021 110.6781 107.85828 126.48926 120.7489 121.65527 155.59387 126.690674 77.545166 64.55383 65.56091 63.64746 100.40588 127.597046 68.481445 0.10070801 -78.85437 -110.87952 -113.90076 -109.57031 -75.4303 -102.21863 -109.77173 -105.74341 -92.04712 -93.65845 -125.28076 -99.90234 -58.914185 -33.233643 -23.968506 -31.018066 -61.834717 -81.27136 -25.076294 3.7261963 29.507446 73.516846 88.92517 74.82605 85.198975 121.9574 125.18005 114.60571 117.42554 122.36023 157.80945 125.48218 68.17932 44.311523 18.630981 -0.20141602 -11.178589 -33.83789 -88.723755 -85.90393 -92.55066 -83.78906 -46.728516 -23.162842 4.1290283 -44.51294 -71.30127 -78.45154 -98.39172 -116.015625 -125.28076 -94.56482 -58.20923 -38.067627 -13.293457 -21.551514 -61.23047 -79.76074 -28.601074 3.7261963 26.687622 51.763916 62.539673 35.751343 25.680542 62.036133 74.62463 67.17224 85.09827 98.0896 127.697754 79.35791 47.634888 35.95276 25.78125 17.623901 33.33435 33.33435 -15.811157 -16.012573 -34.94568 -38.571167 -26.687622 -22.155762 9.869385 -46.124268 -87.31384 -117.42554 -106.04553 -101.21155 -111.987305 -97.58606 -75.32959 -52.368164 -39.88037 -3.7261963 -3.1219482 -17.22107 -15.509033 -34.542847 -19.335938 26.687622 34.94568 -4.0283203 21.148682 94.86694 142.90466 147.73865 138.17139 129.91333 128.10059 40.38391 13.394165 22.457886 34.744263 62.539673 102.01721 77.44446 9.970093 -1.6113281 -20.443726 -2.2155762 37.161255 60.424805 63.848877 -2.9205322 -31.32019 -41.290283 -33.43506 -55.08728 -78.048706 -47.93701 18.630981 66.06445 59.1156 7.8552246 -52.267456 -55.792236 -5.3375244 -13.192749 -19.23523 -7.6538086 -19.23523 -77.948 -47.131348 11.380005 39.578247 46.92993 42.297363 52.770996 96.37756 33.535767 -6.6467285 -22.25647 -32.528687 -27.79541 -8.358765 -11.782837 -38.168335 -33.032227 -36.758423 -27.493286 -6.9488525 9.164429 -1.6113281 -59.71985 -82.88269 -83.28552 -85.702515 -98.49243 -109.973145 -79.660034 
3136.5508 3124.1638 3110.1653 3095.2605 3081.665 3068.1702 3055.1787 3041.5833 3027.7861 3013.687 2999.8901 2985.9924 2972.0947 2958.2976 2944.7021 2931.3079 2917.813 2904.419 2890.3198 2896.7651 2915.4968 2933.322 2951.0466 2968.9727 2986.2944 3003.4148 3020.1323 3036.8499 3053.4668 3069.983 3086.2976 3102.6123 3118.6248 3134.6375 3150.4485 3166.159 -2239.5447 565.979 3144.3054 2979.3457 3135.2417 3124.1638 3109.3596 3095.3613 3081.8665 3068.1702 3054.776 3041.281 3027.4841 3013.4856 2999.4873 2985.5896 2971.7925 2957.9956 2944.2993 2930.905 2917.4102 2904.016 2888.809 2898.6785 2917.3096 2935.739 2953.1616 2971.0876 2988.51 3005.429 3022.2473 3038.9648 3055.5815 3072.0977 3088.4124 3104.6265 3120.639 3136.5508 3152.362 3168.0725 -1769.7418 1237.3993 3163.5405 3144.8088 3131.8176 3119.8333 3105.13 3090.5273 3076.831 3063.3362 3050.2441 3036.7493 3022.7507 3008.853 2994.9553 2981.1584 2967.16 2953.5645 2939.9688 2926.4739 2912.979 2899.6855 2675.6104 2897.5708 2916.101 2933.8257 2952.0537 2969.174 2986.4958 3003.8176 3020.938 3037.6555 3054.373 3070.7886 3087.1033 3103.3171 3119.3298 3135.3423 3151.2542 3166.864 -1818.7866 1017.6544 3161.9292 3021.1394 3131.6162 3119.3298 3105.0293 3091.1316 3077.7373 3064.1418 3050.647 3036.9507 3023.1536 3009.1553 2995.1567 2981.3599 2967.4622 2953.8665 2940.1702 2926.6753 2913.3818 2899.9878 1918.4875 2900.4912 2919.1223 2937.5518 2954.773 2972.699 2990.0208 3006.8389 3023.8586 3040.5762 3057.0923 3073.5076 3089.7217 3105.9355 3122.0488 3137.9607 3153.8726 3169.4824 -1346.6675 1894.2169 3159.915 3142.694 3130.5083 3116.1072 3101.001 3087.1033 3073.5076 3059.8113 3046.4172 3032.721 3018.8232 3004.9255 2991.0278 2977.1301 2963.333 2949.6367 2936.0413 2922.5464 2909.253 2895.8586 831.0425 2899.3835 2917.9138 2936.2427 2953.665 2971.591 2988.9128 3005.8318 3022.6501 3039.3677 3055.8838 3072.299 3088.7146 3104.828 3120.9412 3136.7522 3152.664 3171.698 -1282.2144 1659.2651 3156.7932 3139.572 
-2460.8 -2448.6145 -2437.3352 -2425.955 -2414.978 -2404.1016 -2392.9229 -2381.9458 -2371.2708 -2360.5957 -1674.3713 465.271 -1849.4019 -2336.9292 -2326.4556 -2315.982 -2305.9111 -2295.7397 -2285.568 -2275.6987 -2265.8293 -2255.8594 -2246.292 -2236.7249 -2227.1575 -2217.8923 -2066.7297 -995.7001 3299.8992 3299.8992 3299.8992 3299.8992 3299.8992 3299.8992 3299.8992 3299.8992 3299.8992 3299.8992 3299.8992 2750.4363 -2459.793 -2447.708 -2436.4287 -2425.1494 -2413.971 -2403.195 -2392.0166 -2381.1401 -2370.3643 -2359.6892 -1300.3418 292.25464 -2346.0938 -2335.4187 -2324.945 -2314.7734 -2304.4006 -2294.3298 -2284.259 -2274.2888 -2264.5203 -2254.4495 -2244.882 -2235.4155 -2225.949 -2216.6838 -1962.497 -327.30103 3299.8992 3299.8992 3299.8992 3299.8992 3299.8992 3299.8992 3299.8992 3299.8992 3299.8992 3299.8992 3299.8992 2517.096 -2460.3972 -2448.3123 -2437.033 -2425.7537 -2414.6758 -2403.7993 -2392.6208 -2381.845 -2370.9685 -2360.2935 -1182.1106 -210.17761 -2344.3816 -2333.8074 -2323.3337 -2312.9607 -2302.7893 -2292.7185 -2282.6477 -2272.6775 -2262.808 -2252.9387 -2243.3716 -2233.8042 -2224.3376 -2215.1733 -1939.1327 200.61035 3299.8992 3299.8992 3299.8992 3299.8992 3299.8992 3299.8992 3299.8992 3299.8992 3299.8992 3299.8992 3299.8992 1849.0997 -2457.8796 -2445.8953 -2434.8174 -2423.4375 -2412.2588 -2401.3823 -2390.2039 -2379.428 -2368.753 -2358.078 -646.84753 -230.52063 -2344.4824 -2333.7065 -2323.3337 -2312.9607 -2302.7893 -2292.6177 -2282.6477 -2272.6775 -2262.808 -2252.8381 -2243.3716 -2233.905 -2224.3376 -2215.1733 -1973.6755 936.8866 3299.8992 3299.8992 3299.8992 3299.8992 3299.8992 3299.8992 3299.8992 3299.8992 3299.8992 3299.8992 3299.8992 1363.7878 -2457.4768 -2445.4924 -2434.314 -2422.9338 -2411.856 -2400.9795 -2389.9016 -2379.0251 -2368.35 -2357.675 -325.38757 -568.2953 -2343.173 -2332.5989 -2322.1252 -2311.853 -2301.6814 -2291.6106 -2281.5398 -2271.5698 -2261.7004 -2251.831 -2242.2637 -2232.797 -2223.3306 -2214.1663 -1786.1572 1806.2988 3299.8992 3299.8992 3299.8992 3299.8992 3299.8992 3299.8992 3299.8992 3299.8992 3299.8992 3299.8992 3299.8992 828.8269 
-626.70593 -676.9592 -798.5138 -787.0331 -1846.1792 3091.5344 3107.3455 3122.653 3137.4573 3152.5635 3167.4683 3182.2722 3197.0764 3211.5784 3226.0803 3240.6829 3255.0842 3268.881 3282.9802 2040.9485 3271.4995 3257.5012 3243.805 3230.0078 3215.7073 3201.8096 3188.3147 3173.7122 3159.613 3145.816 3132.019 3118.0205 3103.6194 3059.4084 2190.097 1351.9043 811.1023 305.6488 186.30981 745.5414 818.8568 662.7594 389.13574 283.19092 -1062.973 3066.6594 3082.3699 3098.1812 3113.6902 3129.0984 3144.2046 3159.0088 3174.0142 3188.919 3203.6223 3218.225 3232.727 3247.1282 3299.8992 2711.3616 3247.7324 3233.8347 3219.8364 3206.0393 3192.1416 3178.3447 3164.9504 3150.247 3136.5508 3122.653 3108.9568 3095.059 3080.96 2849.9358 1806.8024 877.36816 220.44983 -360.9375 -479.77295 159.11865 278.35693 290.5426 107.05261 -73.516846 -1580.5115 3068.4722 3084.7869 3100.296 3115.3015 3130.6091 3145.9167 3160.62 3175.6255 3190.2283 3204.9316 3219.4336 3233.9355 3248.4375 -3247.4304 2788.4033 3248.236 3234.5398 3220.8435 3206.845 3193.5515 3179.7546 3165.5547 3151.2542 3137.86 3123.9624 3110.3667 3096.167 3082.1685 2859.7046 1827.1454 1086.7401 407.16248 -57.806396 -89.93225 443.21594 505.95703 470.10498 283.99658 61.834717 -1652.6184 3060.9192 3076.4282 3092.34 3107.7483 3123.056 3138.162 3153.1677 3168.0725 3182.9773 3197.5798 3212.2832 3226.7852 3241.287 -2948.529 3252.2644 3238.3667 3224.5696 3210.6719 3196.6736 3183.3801 3169.583 3155.3833 3141.2842 3127.9907 3113.8916 3100.296 3086.499 3072.299 2542.7764 1651.1078 730.23376 83.688354 -459.93347 -401.92566 243.81409 365.46936 248.54736 44.41223 -238.37585 -2053.0334 3065.3503 3081.4636 3096.9727 3112.0789 3127.2856 3142.3918 3157.3975 3172.2014 3187.0056 3201.9104 3216.211 3230.713 3245.114 -2503.903 3252.9692 3239.0715 3225.2747 3211.7798 3197.9827 3184.2864 3170.691 3156.491 3142.2913 3128.7964 3115.1 3101.2024 3087.506 3073.0042 2599.0723 1722.2076 910.5011 341.40015 -84.39331 100.305176 504.64783 
-3218.8293 -3202.9175 -3187.1062 -3171.8994 -3156.8938 -3141.7876 -3126.9836 -3112.2803 -3097.6775 -3083.1755 -3068.9758 -3054.776 -3040.7776 -3026.779 -3012.8813 -2999.185 -2985.5896 -2972.0947 -2958.8013 -2249.716 -654.0985 1491.0828 3299.8992 3299.8992 3299.8992 3299.8992 3299.8992 3299.8992 3299.8992 3299.8992 3299.8992 3299.8992 3299.8992 3299.8992 3299.8992 3299.8992 3299.8992 3299.8992 3299.8992 601.62964 -3218.7285 -3202.9175 -3187.1062 -3171.7986 -3156.7932 -3141.687 -3126.7822 -3112.2803 -3097.577 -3083.1755 -3068.875 -3054.6753 -3040.5762 -3026.5776 -3012.8813 -2999.185 -2985.5896 -2972.1953 -2958.7004 -1930.2704 -334.14917 1841.6473 3299.8992 3299.8992 3299.8992 3299.8992 3299.8992 3299.8992 3299.8992 3299.8992 3299.8992 3299.8992 3299.8992 3299.8992 3299.8992 3299.8992 3299.8992 3299.8992 3299.8992 229.61426 -3221.6492 -3205.7373 -3190.4297 -3174.8198 -3159.4116 -3144.406 -3129.602 -3114.8987 -3100.296 -3085.8948 -3071.5942 -3057.3943 -3043.2952 -3029.2969 -3015.4998 -3001.703 -2988.1072 -2974.7131 -2961.3188 -1899.5544 -286.8164 1811.8378 3299.8992 3299.8992 3299.8992 3299.8992 3299.8992 3299.8992 3299.8992 3299.8992 3299.8992 3299.8992 3299.8992 3299.8992 3299.8992 3299.8992 3299.8992 3299.8992 3299.8992 -363.4552 -3221.6492 -3205.7373 -3190.631 -3174.9207 -3159.7136 -3144.6074 -3129.904 -3115.1 -3100.4973 -3086.2976 -3071.7957 -3057.5957 -3043.396 -3029.5989 -3015.7012 -3002.005 -2988.4094 -2974.9146 -2961.5203 -1933.7952 -109.57031 1940.9454 3299.8992 3299.8992 3299.8992 3299.8992 3299.8992 3299.8992 3299.8992 3299.8992 3299.8992 3299.8992 3299.8992 3299.8992 3299.8992 3299.8992 3299.8992 3299.8992 3299.8992 -895.7977 -3220.8435 -3204.9316 -3189.7246 -3174.0142 -3158.908 -3143.8018 -3128.9978 -3114.2944 -3099.6917 -3085.2905 -3071.0906 -3056.79 -3042.7917 -3028.7932 -3014.9963 -3001.3 -2987.6038 -2974.109 -2960.8154 -1721.2006 72.006226 2262.4053 3299.8992 3299.8992 3299.8992 3299.8992 3299.8992 3299.8992 3299.8992 3299.8992 3299.8992 3299.8992 3299.8992 3299.8992 3299.8992 3299.8992 3299.8992 3299.8992 3299.8992 -1695.9229 
1150.6897 1234.378 1212.5244 1267.1082 657.9254 -1387.3535 -3263.4429 3085.6934 3102.31 3118.8262 3135.2417 3151.355 3167.3674 3183.1787 3198.8892 3214.4988 3229.9072 3245.2148 3297.6836 870.72144 3251.2573 3236.4531 3221.347 3207.1472 3192.6453 3178.1433 3163.5405 3148.938 3134.1338 3118.5242 3104.0222 3089.5203 3040.7776 1394.5038 230.1178 -203.32947 -335.8612 -346.73767 -95.87402 668.7012 1048.6725 1140.4175 1108.7952 1090.1642 350.766 -1828.7567 3059.912 3076.0254 3092.9443 3109.259 3125.6743 3141.7876 3157.901 3173.8127 3189.5232 3205.133 3220.5413 3236.1511 -3222.8577 1073.9502 3240.8843 3226.181 3211.1755 3196.9756 3182.4736 3167.9717 3153.4697 3138.8672 3124.063 3108.554 3094.052 3079.4495 2959.506 1151.1932 86.40747 -372.51892 -628.7201 -701.6327 -425.89417 361.34033 648.15674 805.46265 874.54834 943.5333 193.15796 -2019.9005 3064.9475 3081.967 3098.7854 3114.9993 3131.4148 3147.528 3163.5405 3179.4524 3195.1628 3210.5713 3226.181 3241.388 -2966.455 1545.2637 3243.0999 3228.4973 3213.391 3199.0906 3184.6892 3170.288 3155.5847 3141.0828 3126.0771 3110.669 3096.167 3081.665 2827.8809 873.9441 -223.06824 -540.7013 -689.74915 -739.3982 -306.958 465.271 714.624 814.42566 976.9684 1028.3295 46.5271 -2250.5217 3071.4934 3088.4124 3105.13 3121.344 3137.6587 3153.772 3169.6838 3185.5957 3201.1047 3216.7144 3232.022 3247.3296 -2697.2625 1982.84 3246.524 3231.8206 3216.6138 3202.4138 3188.0127 3173.6113 3158.8074 3144.104 3129.2998 3113.7908 3099.2888 3084.6863 2756.5796 950.28076 132.93457 -289.2334 -401.62354 -451.97754 -147.73865 525.19226 728.421 839.60266 880.5908 817.95044 -254.0863 -2572.8882 3072.299 3089.218 3105.9355 3122.1497 3138.4644 3154.6782 3170.59 3186.4014 3201.9104 3217.4194 3232.9285 3248.236 -2338.037 2487.1855 3244.107 3229.4036 3214.801 3200.0977 3185.4949 3170.993 3156.2896 3141.687 3126.7822 3111.3738 3096.7712 3082.1685 2579.132 905.06287 146.22803 -290.4419 -467.58728 -520.3583 -74.020386 636.4746 
-646.344 -3012.277 -3097.3755 -3082.974 -3068.875 -3054.8767 -3041.1804 -3027.4841 -3013.7878 -3000.4944 -2987.201 -2974.008 -2960.916 -2947.9248 -2935.0342 -2922.2441 -2909.555 -2896.9666 -2884.4788 -2324.24 -1401.8555 -201.11389 1156.6315 2172.0703 3299.8992 3299.8992 3299.8992 3299.8992 3299.8992 3299.8992 3299.8992 3299.8992 3299.8992 3299.8992 3299.8992 3299.8992 3299.8992 3299.8992 3299.8992 1549.292 -1304.9744 -3110.8704 -3096.3684 -3082.0679 -3067.9688 -3053.9702 -3040.1733 -3026.5776 -3013.0828 -2999.588 -2986.3953 -2973.001 -2960.0098 -2947.1191 -2934.2285 -2921.5393 -2908.85 -2896.161 -2883.673 -2429.2786 -1490.0757 -301.51978 1018.15796 2195.2332 3299.8992 3299.8992 3299.8992 3299.8992 3299.8992 3299.8992 3299.8992 3299.8992 3299.8992 3299.8992 3299.8992 3299.8992 3299.8992 3299.8992 3299.8992 1703.6774 -988.4491 -3111.2732 -3096.7712 -3082.2693 -3068.1702 -3054.1716 -3040.4753 -3026.6785 -3013.1836 -2999.7893 -2986.4958 -2973.4038 -2960.3118 -2947.3206 -2934.43 -2921.64 -2909.0515 -2896.3623 -2883.8745 -2151.3245 -1113.9313 57.403564 1282.5165 2438.8457 3299.8992 3299.8992 3299.8992 3299.8992 3299.8992 3299.8992 3299.8992 3299.8992 3299.8992 3299.8992 3299.8992 3299.8992 3299.8992 3299.8992 3299.8992 1135.3821 -1422.6013 -3112.7837 -3098.1812 -3083.7798 -3069.6807 -3055.6824 -3041.986 -3028.2898 -3014.694 -3001.3 -2988.0066 -2974.9146 -2961.923 -2949.0325 -2936.1418 -2923.2512 -2910.6628 -2898.0742 -2885.385 -2285.266 -1208.4961 41.592407 1342.6392 2618.811 3299.8992 3299.8992 3299.8992 3299.8992 3299.8992 3299.8992 3299.8992 3299.8992 3299.8992 3299.8992 3299.8992 3299.8992 3299.8992 3299.8992 3299.8992 900.02747 -1769.4397 -3110.7695 -3096.167 -3081.967 -3067.868 -3053.8696 -3039.972 -3026.477 -3012.8813 -2999.6887 -2986.1938 -2973.2024 -2960.2112 -2947.2197 -2934.329 -2921.64 -2908.9507 -2896.2615 -2883.7737 -2071.2615 -990.46326 246.83533 1489.975 2746.3074 3299.8992 3299.8992 3299.8992 3299.8992 3299.8992 3299.8992 3299.8992 3299.8992 3299.8992 3299.8992 3299.8992 3299.8992 3299.8992 3299.8992 3299.8992 686.6272 

-16.21399 -32.93152 -58.007812 -45.117188 38.067627 86.8103 99.298096 113.29651 110.476685 82.88269 78.048706 103.125 82.88269 45.92285 16.818237 -10.574341 -82.07703 -176.54114 -255.09338 -182.18079 -122.76306 -91.64429 -83.08411 -90.5365 -88.92517 -62.13684 -36.053467 -29.104614 -20.24231 -19.839478 -15.005493 -20.74585 -54.0802 -51.461792 -4.0283203 57.302856 82.07703 115.512085 155.09033 172.61353 211.1847 242.30347 245.3247 251.26648 269.2932 173.92273 31.018066 -79.45862 -149.45068 -174.02344 -208.66699 -195.87708 -157.2052 -117.32483 -102.420044 -101.11084 -72.006226 -88.220215 -128.70483 -94.3634 -94.3634 -94.3634 -94.3634 -94.3634 -94.3634 -94.3634 -94.3634 -94.3634 -94.3634 -94.3634 -94.3634 -94.3634 -94.3634 -94.3634 -94.3634 -94.3634 -94.3634 -94.3634 -94.3634 -94.3634 -33.032227 -68.38074 -69.79065 12.487793 125.28076 142.80396 101.51367 74.2218 53.375244 49.749756 73.11401 96.47827 63.64746 30.715942 23.76709 26.989746 19.638062 -4.9346924 -44.0094 -39.37683 -39.37683 -39.37683 -39.37683 -39.37683 -39.37683 -39.37683 -39.37683 -39.37683 -39.37683 -39.37683 -39.37683 -39.37683 -39.37683 -39.37683 -39.37683 -39.37683 -39.37683 -39.37683 -39.37683 -39.37683 -22.659302 31.622314 78.25012 111.987305 171.60645 177.2461 164.05334 117.82837 57.20215 -25.881958 -50.656128 -4.4311523 -47.03064 -64.35242 -68.481445 -83.184814 -115.81421 -176.1383 -216.42151 -174.42627 -152.47192 -146.83228 -114.30359 -96.67969 -103.930664 -67.77649 -34.140015 15.911865 69.89136 101.61438 88.52234 40.88745 23.565674 17.523193 35.44922 56.295776 59.1156 64.85596 57.302856 22.055054 -28.80249 -70.79773 -100.00305 -72.006226 -19.335938 -30.514526 -48.641968 -55.389404 -40.585327 -17.72461 24.77417 60.62622 40.585327 25.479126 14.501953 17.523193 -0.40283203 -47.53418 -72.30835 -34.240723 4.1290283 1.6113281 0 -10.272217 -25.378418 5.2368164 13.494873 31.219482 31.219482 17.926025 -34.039307 -113.80005 -103.326416 -38.571167 -6.9488525 -0.80566406 42.700195 112.18872 146.53015 132.73315 109.16748 96.07544 66.467285 66.970825 141.79688 138.57422 116.61987 122.25952 131.02112 138.97705 135.55298 120.64819 64.05029 12.689209 -41.4917 -103.125 -142.90466 -179.96521 -185.20203 -113.29651 
-55.59082 -35.751343 -53.67737 -68.38074 -88.220215 -66.87012 -46.829224 -46.124268 -24.371338 29.910278 53.375244 30.111694 60.928345 108.462524 122.66235 126.79138 111.8866 84.2926 107.55615 48.94409 21.75293 15.509033 20.040894 31.118774 22.155762 -37.765503 -67.77649 -44.110107 -41.088867 -30.212402 -16.918945 -19.940186 -45.41931 -105.13916 -134.5459 -146.02661 -131.52466 -119.74182 -96.780396 -37.060547 -1.9134521 7.1502686 15.609741 20.343018 -5.8410645 25.579834 69.68994 76.94092 91.44287 108.56323 112.79297 81.170654 92.14783 96.17615 91.34216 85.198975 81.7749 69.38782 78.149414 -4.4311523 -46.124268 -43.50586 -22.357178 0.20141602 46.325684 28.80249 7.4523926 -21.75293 -6.8481445 39.88037 48.843384 17.120361 -51.663208 -122.46094 -107.05261 -67.77649 -47.43347 -53.475952 -60.22339 -51.05896 -48.03772 -29.104614 -20.846558 -39.678955 -65.3595 -11.883545 42.800903 56.5979 71.30127 73.516846 63.546753 37.86621 70.69702 118.73474 132.63245 107.455444 72.81189 70.59631 93.55774 59.417725 69.38782 85.90393 76.034546 94.06128 127.99988 72.61047 11.782837 -43.807983 -80.26428 -74.12109 -50.05188 -47.735596 -99.298096 -149.7528 -159.92432 -169.693 -153.98254 -148.3429 -140.68909 -90.83862 -74.82605 -65.86304 -61.73401 -69.89136 -88.92517 -26.28479 4.2297363 -37.664795 -66.467285 -60.22339 -53.979492 -41.89453 45.822144 86.709595 116.82129 137.0636 153.57971 165.26184 165.86609 113.80005 78.048706 66.56799 49.649048 61.431885 72.9126 31.018066 10.171509 4.3304443 3.1219482 11.883545 25.982666 37.46338 -31.219482 -92.248535 -121.15173 -134.5459 -104.837036 -72.30835 -39.88037 -12.487793 -4.0283203 -24.371338 -48.742676 -107.15332 -135.55298 -78.75366 -49.44763 -33.83789 -3.4240723 -5.5389404 -2.7191162 10.775757 75.531006 119.036865 136.45935 117.526245 93.45703 112.994385 122.36023 54.281616 21.652222 21.652222 30.111694 34.542847 44.0094 -3.0212402 -27.090454 -60.12268 -56.497192 -40.48462 -30.010986 -3.5247803 -46.42639 -84.2926 -89.83154 -77.84729 -59.317017 -66.36658 -47.131348 -19.335938 1.3092041 9.768677 27.694702 32.125854 -4.5318604 13.092041 29.406738 46.627808 69.1864 69.992065 69.58923 70.89844 91.44287 97.283936 97.18323 87.01172 57.806396 66.16516 42.297363 -46.92993 
3129.5012 3115.6035 3100.9001 3086.499 3073.1047 3059.7107 3046.4172 3032.721 3018.8232 3005.0261 2991.0278 2977.1301 2963.333 2949.6367 2936.1418 2922.647 2909.253 2895.8586 -744.8364 2902.4048 2920.935 2938.5588 2956.8877 2973.8066 2991.2292 3008.3496 3025.2686 3042.0867 3058.8042 3075.119 3091.4336 3107.6477 3123.6602 3139.572 3155.3833 3248.4375 -932.75757 2382.3486 3154.8796 3139.9749 3127.6885 3112.7837 3098.3826 3083.8806 3070.5872 3057.0923 3043.7988 3030.1025 3016.2048 3002.3071 2988.4094 2974.6123 2960.7146 2947.1191 2933.4229 2920.1294 2906.735 2893.2402 -2451.7363 2902.9082 2921.338 2938.861 2956.5857 2974.411 2991.632 3008.6516 3025.3691 3042.0867 3058.6028 3075.119 3091.333 3107.4463 3123.5596 3139.4714 3155.182 -3203.3203 -676.5564 2522.3328 3150.9521 3136.4502 3125.07 3110.8704 3095.5627 3082.1685 3068.875 3055.0781 3041.4824 3027.887 3013.9893 3000.0916 2986.093 2972.2961 2958.5999 2944.8027 2931.3079 2917.813 2904.6204 2891.1255 2884.7808 2903.7139 2922.1436 2940.4724 2958.197 2975.2166 2992.5383 3009.6587 3026.6785 3043.396 3059.912 3076.4282 3092.642 3108.8562 3124.8687 3140.68 3156.491 -3087.909 -419.04602 2752.4504 3150.4485 3136.148 3123.761 3109.1582 3094.757 3080.658 3067.2637 3053.6682 3040.274 3026.5776 3012.7808 2998.7822 2984.8845 2970.9868 2957.3914 2943.695 2930.2002 2916.7053 2903.4119 2889.917 2886.795 2905.6274 2923.9563 2941.681 2959.607 2976.6265 2993.9482 3011.1694 3028.0884 3044.9065 3061.5234 3077.7373 3094.052 3110.1653 3126.178 3142.1904 3157.901 -3006.0332 -238.77869 2774.8076 3146.823 3135.6445 3123.3582 3108.8562 3093.9514 3080.658 3067.566 3053.6682 3040.0725 3026.3762 3012.378 2998.5808 2984.4817 2970.7854 2956.9885 2943.3928 2929.898 2916.403 2903.009 2889.4133 2889.212 2907.9436 2926.2725 2944.5007 2961.7217 2979.547 2996.768 3013.687 3030.304 3046.9207 3063.5376 3079.8523 3095.9656 3112.1794 3128.1921 3144.0032 3159.8145 -2597.763 255.59692 2970.0806 3117.6177 3132.1196 3120.5383 3106.5398 3091.9373 3078.0396 3065.048 3051.2512 3037.9578 3024.1606 3010.3638 2996.3652 2982.5684 2968.6707 2954.9744 2941.3787 2927.8838 2914.4897 2901.0955 2887.1978 2890.5212 2909.3535 
-2456.9731 -2445.0896 -2433.8103 -2422.531 -2411.4531 -2400.6775 -2389.4988 -2378.6223 -2367.9473 -2357.373 149.7528 -946.9574 -2343.173 -2332.5989 -2322.1252 -2311.9536 -2301.6814 -2291.6106 -2281.5398 -2271.5698 -2261.801 -2251.831 -2242.3645 -2232.797 -2223.3306 -2214.1663 -1812.0392 2689.6086 3299.8992 3299.8992 3299.8992 3299.8992 3299.8992 3299.8992 3299.8992 3299.8992 3299.8992 3299.8992 3299.8992 523.78235 -2457.376 -2445.4924 -2434.2131 -2423.1353 -2411.856 -2400.6775 -2389.9016 -2379.126 -2368.35 -2357.675 388.93433 -1172.1405 -2343.7773 -2333.1023 -2322.7295 -2312.5579 -2302.2856 -2292.1143 -2282.144 -2272.174 -2262.3047 -2252.8381 -2242.868 -2233.3008 -2223.7334 -2214.1663 -1857.962 3299.8992 3299.8992 3299.8992 3299.8992 3299.8992 3299.8992 3299.8992 3299.8992 3299.8992 3299.8992 3299.8992 3299.8992 15.609741 -2456.5703 -2445.291 -2433.5083 -2422.3296 -2411.0503 -2399.9724 -2389.1968 -2378.5217 -2367.7458 -2336.325 538.88855 -1399.942 -2343.173 -2332.5989 -2322.2258 -2311.9536 -2301.7822 -2291.6106 -2281.5398 -2271.6704 -2261.801 -2252.234 -2242.3645 -2232.797 -2223.3306 -2129.4707 -1402.359 3299.8992 3299.8992 3299.8992 3299.8992 3299.8992 3299.8992 3299.8992 3299.8992 3299.8992 3299.8992 3299.8992 3299.8992 -848.6664 -2455.8655 -2444.5862 -2432.904 -2421.6248 -2410.5469 -2399.469 -2388.5925 -2377.9175 -2367.1416 -2265.4265 586.2213 -1646.5759 -2342.2668 -2331.6924 -2321.2188 -2310.9465 -2300.7751 -2290.7043 -2280.6335 -2270.7642 -2260.9954 -2251.4282 -2241.458 -2231.8909 -2222.525 -2187.9822 -1533.783 3299.8992 3299.8992 3299.8992 3299.8992 3299.8992 3299.8992 3299.8992 3299.8992 3299.8992 3299.8992 3299.8992 3299.8992 -1571.4478 -2453.3477 -2441.9678 -2430.2856 -2419.107 -2408.029 -2396.9512 -2386.1755 -2375.3997 -2364.8254 -2052.6306 600.72327 -1775.7843 -2340.1519 -2329.6782 -2319.2046 -2309.0332 -2298.761 -2288.6902 -2278.72 -2268.75 -2259.082 -2249.6155 -2239.6453 -2230.0781 -2220.7122 -2003.5858 -1263.5834 3299.8992 3299.8992 3299.8992 3299.8992 3299.8992 3299.8992 3299.8992 3299.8992 3299.8992 3299.8992 3299.8992 3299.8992 -2461.203 -2451.132 -2439.7522 -2428.1707 -2416.9922 -2406.015 -2394.7356 -2384.0605 -2373.285 -2362.6099 -1742.6514 1087.9486 -1093.2861 -2343.576 -2333.1023 -2322.528 -2312.155 -2302.0842 -2291.9128 -2281.842 -2271.8718 
516.8335 403.33557 221.96045 -157.50732 -2317.4927 3057.898 3073.3062 3089.218 3104.6265 3120.0347 3135.1409 3150.1465 3165.0513 3179.8552 3194.5586 3209.1614 3223.5625 3238.1653 -1837.4176 3242.4956 3228.6987 3215.0024 3201.004 3187.207 3173.8127 3160.1165 3146.0173 3131.7168 3118.4233 3104.828 3090.8293 3077.133 3062.0269 2373.4863 1520.3888 618.4479 11.984253 -435.46143 -218.23425 262.8479 207.25708 127.29492 103.427124 -418.13965 -2736.2366 3061.0198 3077.234 3092.743 3107.7483 3122.9553 3138.263 3153.067 3167.9717 3182.675 3197.3784 3212.1826 3226.4832 3240.8843 -1470.0348 3243.5027 3229.7058 3215.9087 3202.4138 3188.919 3174.7192 3161.1235 3147.528 3133.2275 3119.3298 3105.7341 3091.7358 3078.241 3059.6099 2103.5889 1311.8225 602.1332 102.62146 -291.6504 -115.91492 224.88098 106.8512 -52.770996 -194.06433 -704.0497 -3174.417 3068.2708 3084.1826 3099.6917 3114.6973 3129.904 3145.111 3160.0159 3174.7192 3189.4226 3204.126 3218.628 3233.13 3247.6318 -792.87415 3247.229 3233.432 3219.5342 3206.0393 3192.2424 3178.6467 3165.0513 3150.7507 3136.6516 3123.1567 3109.4604 3095.5627 3081.665 3063.2354 2258.7798 1397.3236 722.47925 178.45459 -254.18701 30.010986 264.0564 216.92505 81.37207 -85.80322 -903.0487 3053.8696 3069.882 3085.089 3101.001 3116.3086 3131.4148 3146.521 3161.4258 3176.3306 3191.034 3205.6365 3220.2393 3234.6404 3249.0417 -157.70874 3246.121 3232.2234 3218.527 3204.5288 3190.933 3176.9348 3163.1377 3149.6428 3135.2417 3121.2432 3107.6477 3093.6492 3079.8523 3014.2913 1912.143 1055.722 428.31116 -160.02502 -398.703 62.23755 362.54883 242.807 55.792236 -68.17932 -927.52075 3058.905 3075.119 3090.326 3105.9355 3121.4446 3136.6516 3151.657 3166.5618 3181.366 3195.868 3210.6719 3225.1738 3239.6758 3254.0771 348.85254 3249.0417 3235.2446 3221.4478 3207.4492 3193.5515 3180.0566 3166.4612 3152.0598 3137.7593 3124.3652 3110.669 3096.7712 3082.8735 3003.3142 2122.4211 1246.463 646.2433 48.742676 -108.26111 464.76746 631.94275 565.6769 350.26245 266.07056 -822.6837 3049.64 3065.6523 3081.8665 3097.174 3112.2803 3127.487 3142.5933 3157.5989 3172.4028 3187.0056 3202.011 3216.3115 3230.8135 3245.3154 1083.2153 3237.6616 
-3220.5413 -3204.6294 -3188.919 -3173.7122 -3158.7065 -3143.6003 -3128.7964 -3114.1936 -3099.591 -3085.089 -3070.8892 -3056.5886 -3042.5903 -3028.5918 -3014.795 -3001.0986 -2987.503 -2974.109 -2890.5212 -1493.2983 485.81543 2697.5647 3299.8992 3299.8992 3299.8992 3299.8992 3299.8992 3299.8992 3299.8992 3299.8992 3299.8992 3299.8992 3299.8992 3299.8992 3299.8992 3299.8992 3299.8992 3299.8992 3272.2046 -2809.7534 -3220.4407 -3204.6294 -3188.919 -3173.7122 -3158.8074 -3143.7012 -3128.897 -3114.2944 -3099.6917 -3085.2905 -3070.99 -3056.79 -3042.691 -3028.6926 -3014.8955 -3001.1992 -2987.6038 -2974.2095 -2919.8271 -1610.7239 496.49048 2724.1516 3299.8992 3299.8992 3299.8992 3299.8992 3299.8992 3299.8992 3299.8992 3299.8992 3299.8992 3299.8992 3299.8992 3299.8992 3299.8992 3299.8992 3299.8992 3299.8992 3155.5847 -2957.9956 -3219.1313 -3203.2195 -3188.214 -3172.6042 -3157.2966 -3142.3918 -3127.588 -3112.8845 -3098.2817 -3084.082 -3069.6807 -3055.481 -3041.5833 -3027.4841 -3013.687 -2999.9907 -2986.3953 -2972.9004 -2811.3647 -1629.3549 417.73682 2716.4978 3299.8992 3299.8992 3299.8992 3299.8992 3299.8992 3299.8992 3299.8992 3299.8992 3299.8992 3299.8992 3299.8992 3299.8992 3299.8992 3299.8992 3299.8992 3299.8992 2887.6006 -3231.4177 -3215.3044 -3199.594 -3184.085 -3168.6768 -3153.6711 -3138.8672 -3124.063 -3109.3596 -3094.8577 -3080.4565 -3066.156 -3052.057 -3038.0583 -3024.1606 -3010.263 -2996.6675 -2983.0718 -2969.6777 -2692.63 -1172.8455 1006.4758 3226.886 3299.8992 3299.8992 3299.8992 3299.8992 3299.8992 3299.8992 3299.8992 3299.8992 3299.8992 3299.8992 3299.8992 3299.8992 3299.8992 3299.8992 3299.8992 3299.8992 2399.3682 -3231.3171 -3215.3044 -3199.594 -3183.9844 -3168.8782 -3153.8726 -3138.8672 -3124.2644 -3109.561 -3095.059 -3080.4565 -3066.2566 -3052.1575 -3038.1592 -3024.2615 -3010.4644 -2996.869 -2983.1726 -2969.7783 -2571.5789 -1050.7874 1073.1445 3257.7026 3299.8992 3299.8992 3299.8992 3299.8992 3299.8992 3299.8992 3299.8992 3299.8992 3299.8992 3299.8992 3299.8992 3299.8992 3299.8992 3299.8992 3299.8992 3299.8992 1647.8851 -3228.3965 -3212.2832 -3196.7742 -3181.0637 -3165.9575 -3151.0527 -3135.9465 -3121.2432 -3106.6406 -3092.1387 -3077.7373 -3063.5376 -3049.4385 -3035.44 -3021.5422 -3007.7454 -2994.049 -2980.5542 -2967.0593 -2599.475 -1187.2467 
898.3154 1053.0029 1105.8746 992.88025 -153.57971 -2519.7144 3066.156 3083.1755 3099.893 3116.3086 3132.6233 3148.7366 3164.6484 3180.4595 3196.17 3211.7798 3227.188 3242.5964 -2049.0051 2725.9644 3236.6545 3221.9512 3207.4492 3192.7458 3178.244 3163.8428 3149.24 3134.5366 3119.5312 3104.1228 3089.7217 3075.0183 2384.0605 652.18506 -104.23279 -458.62427 -644.43054 -615.72876 -36.053467 642.21497 925.4059 1079.6906 1073.346 861.3556 -455.50232 -2773.1963 3067.0623 3084.082 3100.6987 3117.1143 3133.429 3149.5422 3165.3533 3181.2651 3196.9756 3212.5854 3227.893 3243.2007 -1545.9686 3245.9197 3233.6333 3218.93 3204.428 3189.8254 3175.2227 3160.8215 3146.3196 3131.4148 3116.7114 3101.2024 3086.801 3071.8962 2030.6763 303.53394 -290.94543 -562.95776 -673.938 -609.5856 -86.10535 495.4834 726.40686 924.90234 1014.5325 746.7499 -661.2488 -2916.403 3073.8098 3090.628 3107.144 3123.6602 3139.7734 3155.8867 3171.7986 3187.6099 3203.119 3218.8293 3234.0361 3249.4446 -1191.8793 3252.4658 3237.6616 3222.9583 3208.4563 3193.753 3179.251 3164.6484 3150.1465 3135.3423 3120.4375 3105.0293 3090.628 3075.5217 2088.8855 544.02466 -21.853638 -355.8014 -506.25916 -479.2694 108.05969 620.66345 809.39026 973.4436 1011.71265 707.37305 -874.54834 -3043.4966 3072.5005 3089.218 3105.9355 3122.2502 3138.565 3154.6782 3170.4895 3186.4014 3201.9104 3217.4194 3232.8276 3248.1353 -692.0654 3248.1353 3233.3313 3218.628 3203.7231 3189.5232 3175.122 3160.7207 3146.1182 3131.2134 3116.51 3100.9001 3086.3982 3068.4722 1649.6979 294.97375 -236.16028 -531.43616 -680.6854 -624.9939 102.923584 621.77124 759.4391 879.0802 999.4263 594.9829 -1097.2137 -3083.377 3077.536 3094.3542 3110.971 3127.0842 3143.399 3159.4116 3175.2227 3191.1345 3206.543 3222.052 3237.4602 3252.6672 -270.09888 3250.1494 3235.3455 3220.8435 3205.838 3191.4368 3177.0354 3162.5334 3147.931 3133.0261 3118.3228 3102.6123 3088.211 3069.58 1742.7521 432.7423 -106.75049 -459.83276 -542.2119 -351.57166 457.7179 839.30054 936.5845 1035.7819 1044.9463 628.6194 -1207.6904 -3184.9915 3072.0977 3088.8152 3105.5327 3121.7468 3138.0615 3154.074 3170.1873 3185.797 3201.4067 3216.9158 3232.2234 3247.6318 263.65356 3241.9922 
-1891.095 -3111.0718 -3096.469 -3082.2693 -3067.9688 -3054.1716 -3040.3748 -3026.779 -3013.2842 -2999.8901 -2986.5967 -2973.6052 -2960.5132 -2947.6226 -2934.8328 -2921.9421 -2909.3535 -2896.6643 -2848.2239 -1883.0383 -744.03076 481.38428 1666.4154 2985.5896 3299.8992 3299.8992 3299.8992 3299.8992 3299.8992 3299.8992 3299.8992 3299.8992 3299.8992 3299.8992 3299.8992 3299.8992 3299.8992 3299.8992 3181.2651 370.30334 -2233.905 -3112.3809 -3097.9797 -3083.7798 -3069.4792 -3055.5815 -3041.7847 -3028.0884 -3014.5935 -3001.4006 -2988.1072 -2974.9146 -2961.8225 -2948.932 -2936.0413 -2923.2512 -2910.562 -2897.9736 -2872.5952 -1960.8856 -816.5405 404.8462 1631.7719 3196.6736 3299.8992 3299.8992 3299.8992 3299.8992 3299.8992 3299.8992 3299.8992 3299.8992 3299.8992 3299.8992 3299.8992 3299.8992 3299.8992 3299.8992 3051.956 270.80383 -2236.1206 -3112.3809 -3097.879 -3083.5784 -3069.58 -3055.5815 -3041.6838 -3028.0884 -3014.5935 -3001.4006 -2988.0066 -2974.8137 -2961.8225 -2948.831 -2936.0413 -2923.2512 -2910.562 -2897.9736 -2711.8652 -1830.1666 -718.0481 415.31982 1638.7207 3217.218 3299.8992 3299.8992 3299.8992 3299.8992 3299.8992 3299.8992 3299.8992 3299.8992 3299.8992 3299.8992 3299.8992 3299.8992 3299.8992 3299.8992 2709.851 -169.49158 -2682.257 -3108.9568 -3094.8577 -3080.3557 -3066.3574 -3052.4597 -3038.7634 -3025.0671 -3011.6729 -2998.2788 -2984.9854 -2971.7925 -2958.8013 -2945.9106 -2932.9192 -2920.3308 -2907.5408 -2895.053 -2627.8748 -1604.0771 -424.18213 709.5886 1915.6677 3299.8992 3299.8992 3299.8992 3299.8992 3299.8992 3299.8992 3299.8992 3299.8992 3299.8992 3299.8992 3299.8992 3299.8992 3299.8992 3299.8992 3299.8992 2479.9346 -383.29468 -2863.5315 -3109.561 -3095.16 -3080.96 -3066.8608 -3053.064 -3039.2668 -3025.6714 -3012.1765 -2998.7822 -2985.5896 -2972.3967 -2959.4055 -2946.6155 -2933.7249 -2921.0356 -2908.3464 -2895.8586 -2352.2368 -1216.0492 -10.473633 1109.7015 2317.8955 3299.8992 3299.8992 3299.8992 3299.8992 3299.8992 3299.8992 3299.8992 3299.8992 3299.8992 3299.8992 3299.8992 3299.8992 3299.8992 3299.8992 3299.8992 2179.724 -646.2433 -3065.7532 -3115.3015 -3100.9001 -3086.7004 -3072.6013 -3058.6028 -3045.0073 -3031.311 -3017.9167 -3004.3213 -2991.2292 -2978.0364 -2964.9443 -2952.1545 -2939.163 -2926.4739 -2913.7847 -2901.1963 -2602.9998 -1634.1888 

-88.42163 -103.125 -110.6781 -127.093506 -135.15015 -94.86694 -87.41455 -64.85596 -40.786743 -36.657715 -47.735596 -71.80481 -52.670288 -15.005493 23.364258 50.656128 61.23047 77.041626 72.9126 60.62622 47.53418 30.413818 15.609741 25.680542 47.735596 22.155762 47.232056 78.95508 81.47278 105.23987 127.79846 129.5105 79.45862 69.38782 103.02429 92.65137 57.70569 0.30212402 -30.514526 -39.276123 -39.276123 -39.276123 -39.276123 -39.276123 -39.276123 -39.276123 -39.276123 -39.276123 -39.276123 -39.276123 -39.276123 -39.276123 -39.276123 -39.276123 -39.276123 -39.276123 -39.276123 -39.276123 -39.276123 -39.276123 7.8552246 -6.3446045 7.3516846 57.000732 109.3689 102.01721 105.441284 106.14624 96.47827 108.76465 132.22961 125.68359 92.44995 73.11401 28.29895 -8.056641 -34.039307 -88.32092 -92.248535 -68.07861 -52.972412 -32.83081 12.588501 44.0094 41.89453 74.92676 56.497192 61.935425 79.45862 85.09827 60.62622 -5.8410645 -67.07153 -142.60254 -196.88416 -195.97778 -151.86768 -102.923584 -86.60889 -64.85596 -26.687622 9.567261 51.159668 111.987305 156.09741 118.43262 96.67969 81.57349 25.076294 11.682129 26.083374 9.164429 -39.37683 -60.22339 -48.239136 -51.965332 -53.979492 -86.60889 -61.6333 -34.240723 -40.182495 -58.914185 -74.523926 -83.688354 -66.6687 -22.558594 -0.30212402 31.82373 72.10693 59.317017 37.664795 15.408325 35.95276 37.46338 29.507446 0.70495605 -9.164429 7.1502686 6.1431885 -1.9134521 -0.50354004 -8.660889 -30.31311 12.487793 61.6333 50.55542 49.95117 49.145508 30.413818 31.82373 66.56799 66.970825 31.219482 3.2226562 -19.73877 -27.29187 -7.3516846 -30.81665 -5.9417725 3.3233643 5.6396484 11.682129 12.185669 -12.286377 -22.961426 6.1431885 8.459473 -11.581421 -75.631714 -103.829956 -89.328 -94.56482 -60.12268 -26.385498 4.3304443 35.85205 57.70569 75.32959 72.509766 93.15491 111.38306 106.448364 95.87402 87.213135 34.94568 -44.815063 -56.799316 -76.33667 -105.944824 -93.0542 -30.917358 -15.710449 -44.0094 -12.588501 0.9063721 -7.4523926 -14.199829 -29.910278 -21.75293 -68.88428 
-101.61438 -103.72925 -92.34924 -65.05737 -48.742676 -84.695435 -62.74109 -53.375244 -16.21399 21.148682 65.86304 101.61438 71.30127 54.68445 23.565674 -4.6325684 -41.793823 -86.60889 -84.09119 -79.156494 -86.30676 -85.29968 -91.8457 -107.455444 -121.051025 -52.770996 -19.940186 -8.258057 12.689209 23.364258 25.27771 36.35559 80.667114 108.966064 114.60571 103.72925 82.177734 88.220215 63.546753 36.557007 33.535767 46.5271 55.18799 51.361084 36.657715 -29.104614 -52.166748 -57.70569 -28.701782 -2.8198242 12.084961 21.954346 -32.629395 -63.848877 -74.020386 -74.92676 -73.81897 -90.63721 -98.794556 -110.27527 -112.79297 -86.40747 -64.85596 -79.2572 -102.62146 -54.382324 -20.947266 -6.4453125 -6.2438965 -14.401245 -36.35559 15.307617 97.38464 123.16589 123.87085 98.59314 90.234375 120.84961 88.32092 25.177002 -5.6396484 -11.581421 -2.2155762 15.609741 31.521606 25.076294 57.302856 69.38782 57.70569 47.93701 20.74585 20.947266 -28.399658 -54.281616 -61.6333 -63.64746 -72.509766 -101.916504 -103.829956 -100.6073 -105.13916 -86.30676 -95.06836 -151.56555 -165.9668 -101.11084 -62.539673 -42.49878 -13.092041 9.768677 10.675049 45.92285 104.937744 160.83069 192.55371 211.88965 210.88257 232.43408 175.73547 108.966064 79.86145 69.89136 57.10144 33.132935 22.558594 -8.157349 -4.2297363 -11.279297 -6.3446045 25.076294 29.30603 30.514526 -40.38391 -51.159668 -73.91968 -89.83154 -105.54199 -121.75598 -98.99597 -78.85437 -77.44446 -88.52234 -92.04712 -112.28943 -92.85278 -27.493286 -13.696289 -6.3446045 22.055054 47.836304 33.9386 57.10144 92.34924 93.0542 88.62305 84.49402 66.36658 105.13916 79.055786 45.217896 38.974 36.154175 33.83789 33.636475 18.026733 -29.406738 -55.08728 -77.041626 -81.06995 -67.977905 -62.74109 -55.288696 -89.227295 -93.759155 -89.730835 -103.125 -90.737915 -92.752075 -63.546753 -51.663208 -44.311523 -51.461792 -67.77649 -123.065186 -134.44519 -97.38464 -85.09827 -37.765503 15.609741 36.35559 25.27771 59.61914 103.72925 85.5011 66.76941 74.12109 79.660034 138.57422 111.08093 114.4043 
2927.481 2945.0042 2963.031 2980.1514 2997.2717 3014.392 3031.4116 3048.1292 3064.5447 3080.96 3097.174 3113.2874 3129.2998 3145.111 3160.922 -2339.5476 488.33313 3125.3723 3055.9844 3130.5083 3118.927 3104.3242 3090.225 3076.2268 3063.2354 3049.4385 3036.145 3022.348 3008.4502 2994.5525 2980.6548 2966.858 2953.0608 2939.4653 2925.9705 2912.5762 2899.2827 2885.1836 2891.327 2910.0586 2928.186 2945.8098 2963.2324 2981.0576 2998.2788 3015.1978 3031.8145 3048.4314 3064.8467 3081.1614 3097.3755 3113.5894 3129.602 3145.413 3161.1235 -1795.3217 1197.7203 3155.5847 3136.6516 3125.473 3112.985 3098.4832 3083.8806 3070.4863 3057.495 3043.4966 3029.8003 3016.2048 3002.3071 2988.4094 2974.5117 2960.8154 2947.0183 2933.6243 2920.0286 2906.735 2893.4417 2875.8179 2888.6077 2907.4402 2925.5676 2943.695 2961.4197 2978.3386 2995.6604 3012.68 3029.6997 3046.3164 3062.8325 3079.248 3095.462 3111.5752 3127.588 3143.4998 3159.1094 -1980.6244 1179.4922 3156.491 3138.8672 3126.6814 3112.0789 3097.174 3083.1755 3069.1772 3056.0852 3042.4895 3028.894 3015.1978 3001.3 2987.3015 2973.6052 2959.7075 2946.112 2932.5164 2919.1223 2905.728 2892.5354 2686.1846 2890.4204 2909.0515 2927.179 2944.7021 2962.7288 2979.6477 2996.869 3014.0898 3031.0088 3047.525 3064.041 3080.4565 3096.6704 3112.7837 3128.7964 3144.7083 3160.4187 -1842.7551 1262.9791 3155.8867 3137.7593 3126.48 3112.1794 3097.3755 3083.2764 3069.3787 3056.3872 3042.5903 3029.0955 3015.1978 3001.5015 2987.6038 2973.706 2959.909 2946.2126 2932.6172 2919.1223 2905.9294 2892.636 1900.8636 2893.5425 2911.972 2930.0994 2947.6226 2965.0452 2982.9712 3000.0916 3016.809 3033.4258 3050.0427 3066.458 3082.974 3099.0874 3115.2007 3131.1125 3146.9238 3162.7349 -1609.7168 1535.0922 3153.5706 3137.2559 3124.1638 3111.978 3097.476 3082.974 3069.882 3056.79 3042.691 3028.9946 3015.097 3001.3 2987.3015 2973.5046 2959.7075 2946.112 2932.5164 2919.0215 2905.6274 2892.4346 861.7584 2895.8586 2914.389 
-2262.2039 -2252.6367 -2242.566 -2233.0994 -2223.7334 -2210.9436 -1559.1614 3299.8992 3299.8992 3299.8992 3299.8992 3299.8992 3299.8992 3299.8992 3299.8992 3299.8992 3299.8992 3299.8992 2967.2607 -2461.1023 -2449.3193 -2438.04 -2426.358 -2415.1794 -2404.2021 -2393.0237 -2382.3486 -2371.875 -2361.2 -1556.1401 1055.4199 -1210.7117 -2341.9646 -2331.3904 -2321.0173 -2310.745 -2300.5737 -2290.503 -2280.4321 -2270.5627 -2260.6934 -2251.2268 -2241.2566 -2231.79 -2222.223 -2062.9028 -893.58215 3299.8992 3299.8992 3299.8992 3299.8992 3299.8992 3299.8992 3299.8992 3299.8992 3299.8992 3299.8992 3299.8992 2703.8086 -2462.7136 -2450.83 -2439.5508 -2427.9692 -2416.7908 -2405.713 -2395.0378 -2383.96 -2373.285 -2362.6099 -1316.8579 560.13794 -1956.253 -2340.3533 -2329.779 -2319.406 -2309.1338 -2298.9624 -2288.8916 -2278.9214 -2268.9514 -2259.2834 -2249.2126 -2239.8467 -2230.2795 -2220.7122 -1978.3081 -367.68494 3299.8992 3299.8992 3299.8992 3299.8992 3299.8992 3299.8992 3299.8992 3299.8992 3299.8992 3299.8992 3299.8992 2410.2446 -2462.1094 -2450.3264 -2439.047 -2427.4658 -2416.287 -2405.31 -2394.5342 -2383.4563 -2372.6807 -2362.1062 -988.8519 308.1665 -2349.8198 -2339.0442 -2328.5706 -2318.2983 -2307.9253 -2297.754 -2287.683 -2277.713 -2267.8435 -2258.075 -2248.2056 -2238.6382 -2229.071 -2219.806 -1920.3003 234.04541 3299.8992 3299.8992 3299.8992 3299.8992 3299.8992 3299.8992 3299.8992 3299.8992 3299.8992 3299.8992 3299.8992 1981.8329 -2461.1023 -2449.2188 -2437.5366 -2426.4587 -2415.4814 -2404.2021 -2393.7285 -2382.55 -2371.7742 -2361.099 -820.56885 -380.77698 -2345.3887 -2334.7136 -2324.1394 -2313.8672 -2303.6956 -2293.6248 -2283.6548 -2273.6846 -2263.7146 -2253.9458 -2243.9758 -2234.7107 -2225.2441 -2215.7776 -1973.6755 937.39014 3299.8992 3299.8992 3299.8992 3299.8992 3299.8992 3299.8992 3299.8992 3299.8992 3299.8992 3299.8992 3299.8992 1573.2605 -2458.8867 -2447.2046 -2435.5225 -2424.4446 -2413.2659 -2402.188 -2391.513 -2380.536 -2369.76 -2359.085 -298.90137 -430.92957 -2345.0867 -2334.4116 -2324.0386 -2313.6658 -2303.4941 -2293.222 -2283.3525 -2273.3826 -2263.5132 
3223.6633 3210.0676 3196.3713 3182.8765 3168.7773 3155.081 3141.687 3127.185 3113.2874 3099.6917 3085.8948 3071.7957 2888.7085 1852.2217 920.97473 322.16492 -176.44043 -311.69128 312.19482 471.31348 250.46082 68.17932 -210.27832 -1411.0199 3055.2795 3071.292 3086.499 3102.2095 3117.517 3132.8247 3147.6287 3162.6343 3177.4382 3192.2424 3206.845 3221.2463 3235.8489 3250.1494 2066.4275 3238.7695 3224.9724 3211.2761 3197.2778 3183.783 3169.583 3155.8867 3142.4927 3127.89 3114.1936 3100.296 3086.7004 3072.6013 2855.6763 1846.3806 885.022 242.30347 -235.45532 -325.99182 327.50244 431.63452 279.66614 187.3169 19.638062 -1227.7313 3054.373 3070.3857 3086.3982 3101.8066 3116.9128 3131.8176 3147.0244 3161.9292 3176.7334 3191.4368 3206.3416 3220.642 3235.0432 3250.4517 2231.488 3237.1582 3223.361 3209.6648 3196.0693 3182.5745 3168.4753 3154.6782 3141.2842 3126.6814 3112.8845 3099.2888 3085.794 3071.4934 2934.9333 2010.434 991.67175 279.76685 -228.20435 -328.2074 113.09509 118.63403 -67.07153 -136.86218 -360.73608 -1880.5206 3062.0269 3077.9387 3093.045 3108.6548 3124.063 3139.1692 3154.1748 3169.0796 3183.783 3198.4863 3213.0889 3227.5908 3241.9922 -3216.11 3064.9475 3241.1865 3227.4902 3213.794 3199.594 3185.797 3172.4028 3158.606 3144.406 3130.1055 3116.6106 3102.9143 3089.1174 3074.9175 2657.382 1746.6797 785.8246 43.304443 -488.63525 -495.08057 129.91333 253.78418 77.041626 -45.41931 -407.16248 -2083.3464 3070.285 3086.1968 3102.008 3117.3157 3132.1196 3147.3267 3162.332 3177.0354 3191.9402 3206.4421 3221.045 3235.446 3249.948 -2940.0696 3260.7239 3246.8262 3232.9285 3219.2322 3205.435 3191.8396 3177.841 3163.9434 3150.4485 3135.846 3121.8474 3108.252 3094.3542 3080.1543 2692.8313 1730.2643 844.8395 104.23279 -380.27344 -291.34827 366.97998 483.19702 419.75098 303.1311 -92.95349 -1950.1099 3067.465 3083.377 3098.4832 3114.1936 3129.602 3144.6074 3159.7136 3174.3164 3189.1204 3203.9246 3218.527 3233.13 3247.531 -2506.421 3255.487 3241.287 
1021.58203 3299.8992 3299.8992 3299.8992 3299.8992 3299.8992 3299.8992 3299.8992 3299.8992 3299.8992 3299.8992 3299.8992 3299.8992 3299.8992 3299.8992 3299.8992 3299.8992 3299.8992 1123.9014 -3222.2534 -3206.3416 -3190.7317 -3175.6255 -3160.2173 -3145.2117 -3130.2063 -3115.503 -3100.9001 -3086.499 -3072.0977 -3057.898 -3043.7988 -3029.9011 -3015.9026 -3002.2063 -2988.6108 -2975.2166 -2961.8225 -2359.085 -867.4988 1334.079 3299.8992 3299.8992 3299.8992 3299.8992 3299.8992 3299.8992 3299.8992 3299.8992 3299.8992 3299.8992 3299.8992 3299.8992 3299.8992 3299.8992 3299.8992 3299.8992 3299.8992 634.7626 -3219.4336 -3203.3203 -3187.8113 -3172.9065 -3157.3975 -3142.3918 -3127.487 -3112.7837 -3098.1812 -3083.8806 -3069.58 -3055.3801 -3041.281 -3027.2827 -3013.4856 -2999.6887 -2985.9924 -2972.699 -2959.4055 -2121.6155 -414.81628 1681.4209 3299.8992 3299.8992 3299.8992 3299.8992 3299.8992 3299.8992 3299.8992 3299.8992 3299.8992 3299.8992 3299.8992 3299.8992 3299.8992 3299.8992 3299.8992 3299.8992 3299.8992 29.507446 -3219.3328 -3203.3203 -3187.8113 -3172.2014 -3157.196 -3142.2913 -3127.487 -3112.683 -3098.1812 -3083.7798 -3069.3787 -3055.2795 -3041.1804 -3027.2827 -3013.385 -2999.588 -2986.093 -2972.5981 -2959.4055 -1984.4513 -250.56152 1874.6796 3299.8992 3299.8992 3299.8992 3299.8992 3299.8992 3299.8992 3299.8992 3299.8992 3299.8992 3299.8992 3299.8992 3299.8992 3299.8992 3299.8992 3299.8992 3299.8992 3299.8992 -88.52234 -3221.1455 -3205.2336 -3189.624 -3174.0142 -3159.1094 -3144.0032 -3129.1992 -3114.4958 -3099.994 -3085.492 -3071.1914 -3057.0923 -3042.7917 -3028.894 -3015.097 -3001.4006 -2987.7043 -2974.3103 -2961.0168 -1686.4563 219.84558 2295.4375 3299.8992 3299.8992 3299.8992 3299.8992 3299.8992 3299.8992 3299.8992 3299.8992 3299.8992 3299.8992 3299.8992 3299.8992 3299.8992 3299.8992 3299.8992 3299.8992 3299.8992 -846.6522 -3224.9724 -3208.96 -3193.451 -3178.244 -3162.8357 -3147.7295 -3132.8247 -3118.222 -3103.5186 -3089.218 -3074.817 -3060.617 -3046.4172 -3032.4187 -3018.6218 -3004.9255 -2991.3298 -2977.835 -2964.441 -2092.9138 -224.47815 
3227.2888 3212.686 3197.5798 3183.3801 3168.9788 3154.3762 3139.9749 3125.07 3110.4675 3094.757 3080.4565 3057.6965 1362.3779 184.39636 -354.4922 -647.5525 -721.47217 -420.0531 415.1184 808.9874 927.72217 988.4491 976.8677 393.16406 -1679.8096 3105.13 3075.824 3092.642 3109.259 3125.473 3141.5862 3157.6995 3173.6113 3189.3218 3204.9316 3220.3398 3235.7483 3264.8528 633.8562 3243.2007 3228.4973 3213.8945 3199.1912 3184.6892 3169.9858 3155.484 3140.8813 3126.0771 3111.2732 3095.8647 3081.3628 3007.141 1232.7667 239.28223 -262.34436 -517.33704 -710.3943 -406.55823 406.1554 762.2589 901.5381 939.3036 955.719 320.755 -1807.608 3061.1206 3078.1401 3094.9585 3111.4746 3127.7893 3143.9026 3160.0159 3175.9277 3191.5374 3207.1472 3222.5554 3237.9639 -3222.7568 1050.6866 3242.7979 3228.0945 3213.4917 3199.0906 3184.2864 3169.8853 3155.2825 3140.579 3125.8757 3111.0718 3095.5627 3081.0608 2908.4473 1048.3704 57.403564 -437.5763 -609.5856 -619.45496 -375.64087 361.64246 700.02136 840.81116 1009.19495 1052.4994 318.94226 -1918.0847 3064.4438 3081.4636 3098.2817 3114.5964 3130.9111 3147.1252 3163.1377 3178.949 3194.76 3210.269 3225.6775 3241.0857 -2976.828 1624.6216 3242.5964 3227.7922 3213.1897 3198.6877 3184.085 3169.3816 3154.8796 3140.277 3125.473 3110.669 3095.16 3080.7585 2858.1938 984.11865 114.001465 -315.11536 -527.40784 -659.53674 -398.5016 375.74158 715.7318 919.0613 1094.696 1047.3633 109.26819 -2251.4282 3065.7532 3082.7727 3099.4902 3115.9058 3132.2205 3148.3337 3164.3462 3180.1575 3195.868 3211.5784 3226.886 3242.2942 -2731.3018 1922.818 3241.69 3226.9866 3212.384 3197.7812 3183.2793 3168.7773 3154.074 3139.572 3124.5667 3109.8633 3094.3542 3079.8523 2683.4656 903.9551 131.82678 -289.2334 -527.40784 -580.7831 -121.15173 572.62573 749.97253 812.3108 906.27136 784.01184 -297.69287 -2589.102 3069.4792 3086.2976 3102.9143 3119.4304 3135.745 3151.7578 3167.7703 3183.4807 3199.1912 3214.801 3230.2092 3245.5168 -2337.4329 2474.5972 3241.4885 
-413.20496 857.02515 1877.9022 3299.8992 3299.8992 3299.8992 3299.8992 3299.8992 3299.8992 3299.8992 3299.8992 3299.8992 3299.8992 3299.8992 3299.8992 3299.8992 3299.8992 3299.8992 2007.9163 -736.0748 -3123.9624 -3111.5752 -3097.0732 -3082.7727 -3068.875 -3054.8767 -3041.281 -3027.6855 -3014.1907 -3000.7964 -2987.503 -2974.411 -2961.4197 -2948.529 -2935.8398 -2922.9492 -2910.3606 -2897.7722 -2436.8315 -1426.0254 -226.08948 1002.85034 2075.2898 3299.8992 3299.8992 3299.8992 3299.8992 3299.8992 3299.8992 3299.8992 3299.8992 3299.8992 3299.8992 3299.8992 3299.8992 3299.8992 3299.8992 3299.8992 1678.0975 -1102.8534 -3122.9553 -3108.1511 -3093.75 -3079.55 -3065.6523 -3051.7546 -3038.0583 -3024.362 -3011.0686 -2997.7751 -2984.4817 -2971.289 -2958.3984 -2945.407 -2932.5164 -2919.8271 -2907.2388 -2894.751 -2346.0938 -1401.3519 -279.0619 871.12427 2177.71 3299.8992 3299.8992 3299.8992 3299.8992 3299.8992 3299.8992 3299.8992 3299.8992 3299.8992 3299.8992 3299.8992 3299.8992 3299.8992 3299.8992 3299.8992 1387.0514 -1326.4252 -3118.3228 -3103.6194 -3089.4194 -3075.2197 -3061.322 -3047.4243 -3033.8286 -3020.2332 -3006.7383 -2993.5454 -2980.252 -2967.0593 -2954.2693 -2941.4795 -2928.5889 -2915.8997 -2903.2104 -2890.7227 -2117.99 -1120.6787 0.60424805 1158.847 2467.9504 3299.8992 3299.8992 3299.8992 3299.8992 3299.8992 3299.8992 3299.8992 3299.8992 3299.8992 3299.8992 3299.8992 3299.8992 3299.8992 3299.8992 3299.8992 1538.1134 -1113.4277 -3121.8474 -3107.2449 -3092.743 -3078.7444 -3064.6453 -3050.8484 -3036.9507 -3023.355 -3009.961 -2996.768 -2983.5754 -2970.3826 -2957.3914 -2944.5007 -2931.7107 -2919.0215 -2906.433 -2893.9453 -2063.91 -992.3767 3.1219482 1185.0311 2563.8245 3299.8992 3299.8992 3299.8992 3299.8992 3299.8992 3299.8992 3299.8992 3299.8992 3299.8992 3299.8992 3299.8992 3299.8992 3299.8992 3299.8992 3299.8992 931.34766 -1736.5082 -3119.934 -3105.3313 -3091.0308 -3076.9316 -3062.9333 -3049.1362 -3035.3394 -3021.7437 -3008.2488 -2995.1567 -2981.964 -2968.872 -2955.78 -2943.0908 -2930.3008 -2917.511 -2904.9224 -2892.334 -2163.3086 -1105.7739 

-68.88428 -68.88428 -68.88428 -68.88428 -68.88428 -68.88428 -68.88428 -68.88428 -68.88428 -68.88428 -68.88428 -68.88428 -68.88428 -68.88428 -68.88428 -68.88428 -68.88428 -68.88428 -68.88428 -68.88428 53.475952 51.763916 45.92285 76.84021 76.84021 66.76941 97.98889 109.469604 105.54199 98.69385 107.35474 85.5011 63.64746 53.07312 42.90161 39.074707 29.80957 -23.565674 -2.4169922 5.0354004 -12.286377 -32.025146 -52.770996 -80.06287 -86.00464 -90.63721 -92.44995 -80.36499 -56.900024 -43.807983 -34.240723 -37.36267 -0.80566406 7.8552246 1.0070801 -8.157349 -8.258057 18.328857 27.79541 60.525513 82.78198 81.87561 87.11243 104.23279 93.255615 70.19348 41.4917 -3.8269043 4.5318604 74.92676 92.752075 21.148682 -24.874878 -55.288696 -59.317017 -60.021973 -53.878784 -83.99048 -67.474365 -82.177734 -107.55615 -83.184814 -47.53418 -42.90161 -53.475952 -60.424805 -59.014893 -49.346924 -38.974 -13.595581 -13.696289 -3.7261963 89.63013 132.43103 74.2218 1.8127441 -1.1077881 40.686035 33.233643 29.104614 48.339844 18.630981 -54.18091 -106.8512 -152.37122 -154.48608 -84.191895 -14.099121 29.608154 105.441284 182.88574 160.9314 118.43262 125.079346 116.11633 81.06995 29.910278 -39.678955 -53.475952 -83.38623 -122.561646 -174.92981 -259.32312 -287.52136 -247.23816 -171.40503 -75.027466 0.50354004 16.012573 -13.394165 -43.103027 -26.989746 5.3375244 4.6325684 5.3375244 20.24231 68.68286 87.31384 54.18091 20.040894 -3.2226562 -10.977173 16.21399 50.857544 12.084961 4.7332764 31.219482 54.58374 62.942505 89.227295 115.61279 107.05261 83.08411 75.531006 71.80481 65.05737 16.516113 -17.72461 11.380005 -5.7403564 -49.54834 -70.89844 -84.89685 -108.462524 -83.99048 -58.61206 -25.479126 -8.056641 -3.6254883 -18.127441 -59.21631 -66.56799 -23.666382 -5.1361084 6.6467285 16.314697 21.954346 9.265137 -9.265137 -10.372925 9.365845 28.29895 63.14392 110.27527 95.67261 74.82605 90.13367 86.50818 63.043213 50.354004 68.38074 60.12268 92.85278 122.66235 100.70801 40.182495 -35.650635 -95.06836 -72.30835 -21.047974 0.50354004 8.560181 -31.82373 -85.29968 -58.813477 -45.822144 -34.643555 -30.615234 -48.641968 -90.5365 -144.91882 -152.1698 -131.42395 -116.61987 -75.128174 -30.715942 8.258057 28.80249 32.226562 51.965332 
107.35474 87.51526 86.206055 83.38623 53.375244 4.0283203 -3.5247803 -15.509033 0.70495605 41.189575 62.841797 60.021973 0.10070801 -18.22815 -46.124268 -83.99048 -96.07544 -114.60571 -95.97473 -59.1156 -42.800903 -50.656128 -68.07861 -89.730835 -47.131348 12.387085 30.212402 34.84497 61.029053 73.11401 28.500366 27.493286 52.972412 42.90161 43.50586 47.232056 18.630981 42.49878 13.998413 7.0495605 3.8269043 0.10070801 23.968506 46.02356 24.27063 -3.3233643 -34.94568 -58.007812 -52.166748 -9.265137 28.80249 8.963013 -52.166748 -74.2218 -82.47986 -74.2218 -62.438965 -53.878784 -32.730103 -10.574341 -16.012573 -23.162842 -36.35559 -49.246216 9.466553 67.27295 74.62463 78.95508 84.191895 64.25171 59.317017 96.57898 141.79688 140.99121 102.01721 53.778076 34.542847 75.128174 57.70569 27.896118 -15.408325 -64.151 -90.63721 -101.01013 -143.10608 -156.70166 -141.69617 -117.022705 -108.86536 -80.96924 -45.721436 -56.799316 -125.079346 -141.99829 -125.7843 -119.036865 -121.051025 -129.71191 -87.31384 -29.608154 -6.9488525 4.8339844 -4.4311523 -42.800903 -12.789917 27.191162 18.22815 3.0212402 17.926025 56.295776 67.27295 116.519165 158.61511 148.14148 118.13049 117.12341 140.68909 185.00061 152.1698 131.02112 112.18872 84.695435 48.03772 15.307617 -48.54126 -83.48694 -107.85828 -104.73633 -61.431885 -13.293457 24.77417 2.2155762 -49.649048 -79.2572 -87.01172 -84.695435 -93.45703 -90.737915 -34.140015 -0.70495605 1.5106201 5.2368164 -16.012573 -48.138428 13.696289 47.131348 43.90869 44.0094 39.175415 26.184082 22.055054 58.61206 71.30127 44.815063 8.963013 -1.4099121 32.42798 57.302856 0.70495605 -3.5247803 14.703369 10.775757 35.44922 92.55066 75.22888 53.274536 15.609741 8.560181 17.120361 40.182495 52.166748 2.1148682 -73.11401 -110.6781 -131.22253 -171.60645 -218.43567 -199.9054 -126.48926 -50.253296 -18.429565 -17.321777 -35.751343 -51.461792 -8.963013 24.572754 -11.782837 -40.182495 -56.5979 -74.32251 -95.37048 -26.184082 8.358765 24.673462 36.154175 59.014893 107.55615 109.77173 61.73401 41.592407 49.649048 75.531006 128.50342 161.93848 91.94641 54.885864 27.896118 28.29895 49.346924 68.88428 94.56482 59.71985 25.881958 0.80566406 -37.46338 -71.90552 -108.36182 -102.822876 -80.26428 -66.970825 
2932.5164 2950.5432 2967.6636 2985.3882 3002.5085 3019.3267 3036.0442 3052.5603 3068.9758 3085.2905 3101.5044 3117.6177 3133.5295 3149.3408 3165.0513 -1454.2236 1591.2872 3154.779 3138.263 3126.6814 3113.388 3099.0874 3085.089 3071.292 3058.2 3044.2017 3030.8074 3016.9097 3003.1128 2989.215 2975.418 2961.5203 2947.824 2934.329 2920.8342 2907.4402 2894.046 -538.1836 2900.3906 2918.82 2936.847 2954.1687 2972.0947 2989.0137 3006.134 3023.1536 3040.1733 3056.6895 3073.1047 3089.4194 3105.6335 3121.646 3137.5579 3153.3691 3273.1108 -821.77734 2275.4973 3151.7578 3136.853 3124.2644 3110.669 3095.7642 3081.5642 3068.573 3055.481 3041.281 3027.5847 3013.7878 2999.7893 2985.9924 2972.1953 2958.3984 2944.6013 2931.2073 2917.7124 2904.318 2890.924 -2321.9238 2900.2898 2918.6187 2936.746 2954.773 2971.7925 2989.517 3006.5369 3023.2544 3040.0725 3056.488 3072.9033 3089.1174 3105.3313 3121.344 3137.3564 3153.2683 -3219.3328 -603.4424 2834.8296 3149.4414 3134.3352 3122.0488 3107.3455 3092.9443 3078.9458 3065.3503 3052.1575 3038.2598 3024.6643 3010.8672 2996.9695 2983.1726 2969.3755 2955.5786 2941.983 2928.488 2914.9932 2901.6997 2888.3057 2881.558 2900.592 2918.921 2936.9475 2954.2693 2972.1953 2989.1143 3006.2346 3023.1536 3040.0725 3056.5886 3073.1047 3089.4194 3105.5327 3121.646 3137.5579 3153.2683 -3150.7507 -543.6218 2763.327 3147.1252 3133.3281 3121.4446 3106.9426 3092.0378 3078.3416 3064.8467 3051.654 3037.6555 3024.06 3010.263 2996.466 2982.4675 2968.7712 2955.075 2941.278 2927.9846 2914.389 2901.1963 2887.802 2883.7737 2902.7068 2921.0356 2939.0625 2956.3843 2974.2095 2991.1284 3008.1482 3025.2686 3042.0867 3058.6028 3075.0183 3091.333 3107.4463 3123.4587 3139.3706 3155.081 -3036.6484 -269.89746 2580.844 3132.5225 3133.2275 3121.5454 3107.4463 3092.8435 3079.3486 3065.8538 3052.5603 3038.562 3025.0671 3011.1694 2997.171 2983.4746 2969.577 2955.8806 2942.1843 2928.7903 2915.2954 2902.002 2888.4062 2887.6006 2906.433 2924.8625 2942.688 2960.0098 2977.3315 2995.0562 3012.0757 3028.6926 3045.3093 3061.7249 3078.241 3094.3542 3110.568 3126.5808 3142.2913 3158.2031 -2520.0164 378.25928 3162.6343 3144.0032 3131.1125 3118.0205 
-2253.7444 -2243.7744 -2234.4084 -2224.942 -2215.5762 -1948.4985 1640.7349 3299.8992 3299.8992 3299.8992 3299.8992 3299.8992 3299.8992 3299.8992 3299.8992 3299.8992 3299.8992 3299.8992 1318.9728 -2459.3901 -2447.708 -2436.026 -2424.948 -2413.7695 -2402.7922 -2392.0166 -2381.0393 -2370.2637 -2359.6892 55.08728 -924.2981 -2344.4824 -2333.908 -2323.5352 -2313.263 -2302.9907 -2292.92 -2282.9497 -2272.879 -2263.0095 -2253.3416 -2243.4722 -2234.1064 -2224.539 -2215.0725 -1598.4375 2813.0767 3299.8992 3299.8992 3299.8992 3299.8992 3299.8992 3299.8992 3299.8992 3299.8992 3299.8992 3299.8992 3299.8992 603.5431 -2459.2896 -2447.6074 -2435.9253 -2424.8474 -2413.7695 -2402.6917 -2391.9158 -2380.9387 -2370.2637 -2359.5886 407.66602 -1131.4545 -2345.4895 -2334.915 -2324.5422 -2314.1692 -2303.9978 -2293.8262 -2283.8562 -2273.886 -2264.0166 -2254.248 -2244.3787 -2235.0127 -2225.5461 -2216.0796 -1892.807 3046.4172 3299.8992 3299.8992 3299.8992 3299.8992 3299.8992 3299.8992 3299.8992 3299.8992 3299.8992 3299.8992 3299.8992 -96.47827 -2455.966 -2444.3848 -2432.7026 -2421.7253 -2410.5469 -2399.5696 -2388.8945 -2377.9175 -2367.041 -2341.3604 471.21277 -1478.1921 -2341.7632 -2331.189 -2320.816 -2310.443 -2300.3723 -2290.3015 -2280.13 -2270.2605 -2260.492 -2250.7231 -2240.8538 -2231.488 -2222.0215 -2210.8428 -1694.3115 3299.8992 3299.8992 3299.8992 3299.8992 3299.8992 3299.8992 3299.8992 3299.8992 3299.8992 3299.8992 3299.8992 3299.8992 -934.671 -2453.549 -2441.867 -2430.3862 -2419.3083 -2408.2305 -2397.1526 -2386.679 -2375.5005 -2364.926 -2211.6484 744.93713 -1540.8325 -2341.3604 -2330.6853 -2320.413 -2310.0403 -2299.9695 -2289.7979 -2279.727 -2269.8577 -2260.089 -2250.3203 -2240.5518 -2231.0852 -2221.7192 -2104.898 -1555.838 3299.8992 3299.8992 3299.8992 3299.8992 3299.8992 3299.8992 3299.8992 3299.8992 3299.8992 3299.8992 3299.8992 3299.8992 -1266.0004 -2453.8513 -2442.2698 -2431.192 -2419.7112 -2408.6333 -2397.6562 -2386.9812 -2376.004 -2365.2283 -1973.877 915.5365 -1675.0763 -2343.274 -2332.5989 -2322.2258 -2311.9536 -2301.7822 -2291.7114 -2281.6406 -2271.6704 -2262.0024 -2252.133 -2242.163 -2232.797 -2223.4314 -2214.0654 -1810.5286 3299.8992 3299.8992 3299.8992 3299.8992 3299.8992 3299.8992 3299.8992 3299.8992 3299.8992 3299.8992 3299.8992 3299.8992 -1771.756 -2452.7434 
3227.6917 3213.8945 3199.9968 3186.4014 3172.2014 3158.5051 3145.0103 3130.307 3116.51 3102.713 3088.8152 3074.5146 2571.881 1644.3604 697.9065 14.602661 -484.40552 -299.10278 233.23975 192.75513 44.613647 -77.44446 -549.06006 -2611.862 3073.709 3089.3188 3105.2307 3120.5383 3135.3423 3150.348 3165.3533 3180.1575 3194.8608 3209.7656 3224.1667 3238.568 3252.9692 -2089.6912 3258.609 3244.7112 3230.8135 3217.0166 3203.421 3189.4226 3176.0283 3162.2314 3147.931 3133.5295 3120.1355 3106.3384 3092.5415 3077.9387 2354.8552 1457.4463 674.2401 170.90149 -265.96985 -107.15332 328.2074 276.14136 137.96997 103.52783 -462.24976 -2741.8762 3074.5146 3090.225 3105.4321 3120.9412 3136.2488 3151.355 3166.2598 3181.0637 3195.767 3210.4705 3224.8718 3239.3738 3253.775 -1492.8955 3256.5947 3242.697 3228.9001 3215.103 3201.004 3187.4084 3173.3093 3159.5122 3145.9167 3131.4148 3117.517 3103.72 3089.8223 3072.1985 2327.765 1454.425 559.6344 -70.999146 -440.2954 -150.55847 198.19336 206.55212 16.516113 -84.59473 -703.44543 -3167.0654 3079.0466 3094.757 3110.568 3125.8757 3140.68 3155.6853 3170.8923 3185.3943 3200.0977 3214.7002 3229.303 3243.704 3258.0046 -879.48303 3258.0046 3244.4092 3230.31 3216.513 3202.8167 3188.919 3175.424 3161.6272 3147.3267 3132.9253 3119.4304 3105.7341 3091.635 3073.709 2324.24 1423.3063 699.71924 93.85986 -318.53943 14.904785 318.64014 254.48914 66.970825 -45.822144 -743.72864 3095.7642 3078.3416 3094.1528 3109.1582 3124.5667 3139.9749 3154.9805 3169.9858 3184.79 3199.4934 3213.9954 3228.598 3243.0999 3257.4004 -339.6881 3255.1848 3241.388 3227.6917 3213.794 3199.6948 3185.6963 3172.3022 3158.5051 3144.2046 3129.8035 3116.4092 3102.5115 3088.7146 3069.882 2255.96 1476.2787 745.8435 170.49866 -247.7417 83.99048 328.50952 136.86218 30.111694 -41.088867 -1002.95105 3061.322 3077.133 3092.642 3108.554 3123.761 3138.4644 3153.6711 3168.4753 3183.2793 3198.184 3212.5854 3227.188 3241.69 3255.9905 300.81482 3251.1565 3237.3596 3223.5625 3209.7656 3196.0693 3182.4736 3168.3745 3154.5776 3141.0828 3126.3794 3112.5823 3098.7854 3084.7869 3057.6965 1973.6755 1104.0619 367.78564 -181.073 -395.37964 -68.58215 100.10376 6.4453125 
2005.6 3299.8992 3299.8992 3299.8992 3299.8992 3299.8992 3299.8992 3299.8992 3299.8992 3299.8992 3299.8992 3299.8992 3299.8992 3299.8992 3299.8992 3299.8992 3299.8992 3299.8992 -1556.6437 -3220.1384 -3204.428 -3188.7175 -3173.8127 -3158.4045 -3143.2983 -3128.3936 -3113.7908 -3099.1882 -3084.7869 -3070.4863 -3056.3872 -3042.1875 -3028.2898 -3014.4927 -3000.7964 -2987.201 -2973.706 -2956.787 -1666.8182 336.16333 2514.2761 3299.8992 3299.8992 3299.8992 3299.8992 3299.8992 3299.8992 3299.8992 3299.8992 3299.8992 3299.8992 3299.8992 3299.8992 3299.8992 3299.8992 3299.8992 3299.8992 3299.8992 -2125.241 -3220.5413 -3204.6294 -3189.0198 -3173.6113 -3158.7065 -3143.7012 -3128.897 -3114.1936 -3099.591 -3085.1897 -3070.99 -3056.8909 -3042.691 -3028.7932 -3014.8955 -3001.1992 -2987.6038 -2974.109 -2784.1736 -1230.4504 814.52637 2889.212 3299.8992 3299.8992 3299.8992 3299.8992 3299.8992 3299.8992 3299.8992 3299.8992 3299.8992 3299.8992 3299.8992 3299.8992 3299.8992 3299.8992 3299.8992 3299.8992 3162.2314 -2870.4802 -3223.361 -3207.55 -3192.041 -3176.4312 -3161.4258 -3146.521 -3131.7168 -3117.0134 -3102.5115 -3088.0095 -3073.709 -3059.5093 -3045.4102 -3031.311 -3017.514 -3003.8176 -2990.3228 -2976.7273 -2886.2915 -1413.1348 697.50366 2882.4646 3299.8992 3299.8992 3299.8992 3299.8992 3299.8992 3299.8992 3299.8992 3299.8992 3299.8992 3299.8992 3299.8992 3299.8992 3299.8992 3299.8992 3299.8992 3299.8992 2948.831 -3238.0645 -3222.052 -3206.1401 -3190.7317 -3175.525 -3160.2173 -3145.2117 -3130.307 -3115.6035 -3101.001 -3086.5996 -3072.1985 -3057.9985 -3044.0002 -3030.1025 -3016.2048 -3002.6091 -2988.9128 -2975.5188 -2671.582 -1290.976 929.6356 3138.3635 3299.8992 3299.8992 3299.8992 3299.8992 3299.8992 3299.8992 3299.8992 3299.8992 3299.8992 3299.8992 3299.8992 3299.8992 3299.8992 3299.8992 3299.8992 3299.8992 2484.4666 -3236.554 -3220.3398 -3204.5288 -3189.1204 -3174.115 -3158.7065 -3143.7012 -3128.7964 -3114.1936 -3099.6917 -3085.2905 -3070.8892 -3056.79 -3042.691 -3028.6926 -3014.8955 -3001.1992 -2987.6038 -2974.2095 -2491.3147 -958.74023 1225.2136 3299.8992 3299.8992 3299.8992 3299.8992 3299.8992 3299.8992 3299.8992 3299.8992 3299.8992 3299.8992 3299.8992 3299.8992 3299.8992 3299.8992 3299.8992 3299.8992 3299.8992 1903.7842 -3236.1511 -3219.937 
3226.7852 3212.1826 3197.177 3182.8765 3168.4753 3153.9734 3139.3706 3124.3652 3109.561 3094.052 3079.7515 2617.0989 821.67664 30.31311 -313.40332 -528.3142 -591.86096 -64.05029 577.86255 854.60815 1049.3774 1082.6111 764.3738 -337.97607 -2663.9282 3068.4722 3085.2905 3102.008 3118.5242 3134.738 3150.9521 3166.7632 3182.4736 3198.285 3213.794 3229.303 3244.6106 -2002.0752 2819.0186 3238.1653 3223.462 3208.8591 3193.753 3179.6538 3165.3533 3150.5493 3135.846 3121.0417 3106.3384 3090.7288 3076.126 2288.388 481.18286 -186.51123 -561.2457 -778.2715 -802.1393 -277.24915 437.17346 676.05286 824.29504 946.8567 821.77734 -404.44336 -2646.2036 3076.2268 3093.3472 3109.8633 3126.2786 3142.2913 3158.5051 3174.3164 3190.2283 3205.6365 3221.1455 3236.6545 3251.9622 -1657.9559 3135.745 3243.2007 3228.296 3213.794 3198.587 3184.3872 3169.9858 3155.484 3140.68 3125.6743 3111.0718 3095.462 3080.7585 2289.7979 524.2859 -68.28003 -405.14832 -423.7793 -493.77136 63.14392 707.37305 942.42554 1002.6489 1162.7747 962.76855 -418.6432 -2800.3875 3070.7886 3087.7075 3104.425 3120.8403 3137.0544 3153.067 3169.1802 3184.9915 3200.5005 3216.0095 3231.5186 3246.7253 -1151.8982 3249.646 3234.8418 3220.2393 3205.6365 3190.5303 3176.4312 3161.9292 3147.4272 3132.8247 3117.819 3103.0151 3087.506 3072.702 1940.6433 297.49146 -348.65112 -727.61536 -876.05896 -794.18335 -113.497925 445.53223 645.73975 756.8207 896.3013 659.0332 -802.5421 -2973.3032 3081.7656 3098.584 3115.2007 3131.314 3147.4272 3163.6414 3179.5532 3195.1628 3210.7727 3226.2817 3241.5894 3256.7961 -947.56165 3258.4075 3243.5027 3228.9001 3214.2974 3199.1912 3184.9915 3170.3887 3155.9875 3141.0828 3126.0771 3111.3738 3095.7642 3079.4495 1793.0054 293.26172 -211.99036 -502.43225 -649.46594 -575.54626 65.86304 647.4518 845.343 1020.2728 1152.4017 685.318 -949.8779 -3125.7751 3082.974 3099.6917 3116.3086 3132.5225 3148.7366 3164.8499 3180.661 3196.3713 3211.8804 3227.4902 3242.7979 3258.0046 -304.84314 3255.487 3240.7837 3226.0803 3211.377 3196.7742 3182.0708 3167.5688 3152.9663 3138.162 3123.2573 3108.3525 3092.9443 3074.2126 1579.7058 172.71423 -326.09253 -570.10803 -567.89246 -344.6228 435.36072 881.6986 1022.7905 
100.70801 1296.6156 2690.1123 3299.8992 3299.8992 3299.8992 3299.8992 3299.8992 3299.8992 3299.8992 3299.8992 3299.8992 3299.8992 3299.8992 3299.8992 3299.8992 3299.8992 3299.8992 527.50854 -2088.3818 -3114.8987 -3100.3967 -3085.9954 -3072.0977 -3058.0994 -3044.3022 -3030.606 -3017.0105 -3003.6162 -2990.4236 -2977.2307 -2964.1387 -2951.248 -2938.3574 -2925.5676 -2912.8784 -2900.2898 -2863.0278 -1964.209 -893.985 172.51282 1360.968 2814.8894 3299.8992 3299.8992 3299.8992 3299.8992 3299.8992 3299.8992 3299.8992 3299.8992 3299.8992 3299.8992 3299.8992 3299.8992 3299.8992 3299.8992 3175.3235 433.8501 -2129.4707 -3112.5823 -3098.0803 -3083.8806 -3069.7815 -3055.783 -3042.0867 -3028.3904 -3014.795 -3001.602 -2988.208 -2975.116 -2962.1245 -2949.0325 -2936.2427 -2923.4526 -2910.7634 -2898.2756 -2786.3892 -1853.4302 -774.646 374.23096 1594.9127 3142.694 3299.8992 3299.8992 3299.8992 3299.8992 3299.8992 3299.8992 3299.8992 3299.8992 3299.8992 3299.8992 3299.8992 3299.8992 3299.8992 3299.8992 2888.1042 21.047974 -2494.0337 -3110.3667 -3095.8647 -3081.5642 -3067.465 -3053.5674 -3039.871 -3026.3762 -3012.8813 -2999.4873 -2986.1938 -2973.001 -2959.909 -2946.9177 -2934.2285 -2921.4385 -2908.6487 -2896.3623 -2760.0037 -1762.5916 -692.6697 461.14197 1628.952 3270.7947 3299.8992 3299.8992 3299.8992 3299.8992 3299.8992 3299.8992 3299.8992 3299.8992 3299.8992 3299.8992 3299.8992 3299.8992 3299.8992 3299.8992 2865.9485 116.015625 -2386.9812 -3110.8704 -3096.2676 -3082.0679 -3068.1702 -3054.1716 -3040.4753 -3026.779 -3013.385 -2999.9907 -2986.798 -2973.706 -2960.4126 -2947.522 -2934.732 -2921.9421 -2909.3535 -2896.6643 -2654.0588 -1769.0369 -685.01587 431.93665 1554.4281 3299.8992 3299.8992 3299.8992 3299.8992 3299.8992 3299.8992 3299.8992 3299.8992 3299.8992 3299.8992 3299.8992 3299.8992 3299.8992 3299.8992 3299.8992 2651.1382 -137.76855 -2638.2476 -3108.8562 -3094.1528 -3079.953 -3065.8538 -3051.7546 -3038.1592 -3024.463 -3011.0686 -2997.7751 -2984.683 -2971.591 -2958.3984 -2945.5078 -2932.7178 -2919.928 -2907.3394 -2894.751 -2663.626 -1682.5287 -457.51648 780.58777 1761.0809 3299.8992 3299.8992 3299.8992 3299.8992 3299.8992 3299.8992 3299.8992 3299.8992 3299.8992 3299.8992 3299.8992 3299.8992 3299.8992 3299.8992 3299.8992 2482.6538 -191.2445 -2736.8408 

66.467285 73.61755 87.31384 110.87952 72.71118 49.749756 60.827637 85.198975 117.72766 158.5144 174.92981 128.60413 104.23279 89.02588 62.438965 18.630981 -24.975586 -31.118774 -10.574341 -2.1148682 -53.67737 -95.269775 -91.34216 -111.08093 -119.540405 -129.91333 -107.75757 -34.44214 4.6325684 -40.182495 -122.25952 -144.11316 -133.84094 -116.21704 -110.980225 -118.63403 -60.22339 3.8269043 34.542847 44.91577 35.046387 12.084961 40.585327 111.08093 91.64429 43.50586 51.763916 58.10852 61.532593 60.525513 59.21631 38.269043 0.10070801 -39.578247 -39.47754 -30.81665 -47.131348 -25.177002 27.29187 28.903198 7.6538086 -16.012573 -68.58215 -86.206055 -28.097534 -8.157349 -12.689209 -27.191162 -44.110107 -59.1156 -90.234375 -62.942505 -43.40515 -11.682129 19.23523 45.318604 104.333496 132.63245 144.31458 123.97156 92.55066 55.892944 66.6687 96.98181 84.2926 93.255615 98.69385 39.678955 -46.124268 -82.9834 -42.297363 -34.542847 -16.616821 -10.272217 -10.070801 -16.012573 -46.5271 -44.210815 -25.27771 -15.106201 -32.226562 -49.649048 -50.454712 -52.166748 -36.85913 -56.19507 -31.219482 12.487793 18.328857 -14.703369 -49.44763 -19.033813 13.796997 25.78125 10.876465 -49.145508 -62.036133 -72.006226 -52.871704 -26.586914 8.157349 59.921265 118.533325 150.25635 128.60413 136.76147 137.66785 93.759155 41.89453 31.018066 30.010986 10.070801 28.198242 28.198242 16.71753 -10.775757 -65.460205 -75.531006 -52.770996 -29.80957 4.3304443 21.954346 5.8410645 -24.77417 -7.5531006 -16.012573 -40.182495 -27.493286 -0.10070801 5.4382324 -26.28479 -29.608154 -59.417725 -84.09119 -39.578247 39.074707 60.928345 -37.86621 -112.994385 -21.551514 76.23596 92.65137 104.837036 111.18164 58.410645 12.689209 -23.968506 -31.622314 -20.544434 26.78833 11.883545 -84.191895 -135.15015 -153.07617 -101.71509 -55.490112 -79.76074 -67.37366 -80.96924 -100.6073 -96.57898 -99.3988 -104.837036 -77.24304 -32.125854 -32.83081 -5.8410645 28.903198 28.399658 4.3304443 -26.28479 14.703369 50.958252 60.021973 58.10852 49.346924 61.331177 34.84497 3.2226562 -27.493286 
-47.634888 -12.588501 -38.47046 -83.184814 -55.490112 -52.06604 -39.074707 -17.019653 -24.975586 -49.0448 -71.80481 -34.039307 1.6113281 26.989746 67.8772 107.455444 155.79529 156.29883 121.15173 109.973145 81.27136 55.792236 54.281616 52.972412 2.4169922 -21.350098 -59.417725 -60.021973 -39.578247 -2.8198242 21.652222 -41.592407 -84.2926 -88.92517 -88.82446 -68.78357 -97.787476 -99.801636 -93.759155 -90.83862 -77.645874 -56.799316 -69.08569 -94.86694 -44.815063 -17.321777 -7.0495605 3.5247803 5.4382324 -1.8127441 -1.5106201 53.57666 94.56482 151.26343 153.17688 121.9574 126.9928 101.11084 49.44763 46.42639 45.41931 36.95984 62.841797 83.08411 21.853638 -4.7332764 -50.454712 -56.900024 -38.87329 -8.459473 20.343018 -35.751343 -100.305176 -142.099 -160.83069 -144.31458 -121.9574 -48.843384 13.897705 39.88037 35.751343 19.436646 -17.523193 -42.49878 0.70495605 4.3304443 -13.595581 -7.4523926 34.744263 52.468872 55.59082 60.12268 44.311523 35.247803 14.199829 14.703369 63.14392 76.43738 52.670288 49.850464 42.700195 6.0424805 -30.615234 -54.281616 -126.38855 -143.20679 -147.2351 -118.2312 -50.656128 -17.22107 -12.286377 -83.184814 -103.829956 -83.88977 -30.514526 21.148682 37.261963 83.184814 84.89685 65.15808 67.474365 93.96057 73.61755 51.361084 78.95508 48.138428 22.76001 22.961426 -5.2368164 -54.885864 -44.714355 4.7332764 33.233643 63.74817 75.531006 77.645874 112.994385 96.8811 83.58765 84.79614 70.29419 43.807983 27.593994 8.761597 -68.07861 -96.8811 -111.08093 -95.97473 -63.848877 -37.765503 -34.140015 -79.156494 -86.206055 -90.234375 -100.70801 -109.87244 -127.99988 -94.96765 -57.000732 -42.196655 -47.332764 -51.763916 -90.13367 -84.09119 -6.8481445 30.715942 51.965332 73.91968 95.773315 82.07703 103.930664 150.35706 157.80945 139.48059 98.0896 64.25171 78.652954 24.27063 9.365845 31.32019 38.269043 23.364258 12.588501 -42.700195 -101.51367 -101.11084 -87.11243 -38.772583 24.874878 55.892944 48.54126 -27.392578 -56.69861 -57.907104 -39.276123 -32.629395 -54.483032 -48.138428 -77.24304 -81.47278 
3103.418 3089.0166 3075.2197 3061.9263 3048.532 3034.5337 3020.938 3007.141 2993.2434 2979.4463 2965.6494 2951.8523 2938.3574 2924.8625 2911.3677 2898.0742 2884.378 2886.5935 2905.5266 2923.755 2941.7815 2959.0027 2976.9287 2993.6462 3010.7666 3027.6855 3044.5037 3061.0198 3077.3345 3093.6492 3109.7625 3125.8757 3141.687 3157.498 -2282.849 716.13464 3157.2966 3114.5964 3125.473 3114.2944 3099.6917 3085.089 3071.7957 3058.4014 3045.108 3031.1096 3017.514 3003.717 2989.92 2976.0222 2962.2253 2948.529 2934.9333 2921.5393 2908.2458 2894.751 2880.8533 2888.1042 2906.836 2925.1648 2942.8894 2960.3118 2977.4321 2995.1567 3012.1765 3028.894 3045.3093 3061.9263 3078.241 3094.4548 3110.669 3126.5808 3142.3918 3158.4045 -1410.4156 1363.5864 3149.0386 3061.624 3119.1284 3107.0435 3092.642 3078.4424 3064.4438 3051.8555 3038.6626 3024.362 3010.8672 2996.869 2983.2732 2969.4763 2955.5786 2941.983 2928.488 2915.094 2901.6997 2888.4062 2874.2065 2882.5652 2901.2969 2919.5251 2937.5518 2955.4778 2972.9004 2989.7185 3006.8389 3023.8586 3040.6768 3057.1929 3073.6084 3089.923 3106.0364 3122.0488 3137.9607 3153.6711 -1430.0537 1403.9703 3143.9026 2992.8406 3113.8916 3102.5115 3088.3118 3073.9104 3060.8184 3047.525 3034.2314 3020.2332 3006.6375 2993.042 2979.1443 2965.3472 2951.5503 2937.9546 2924.4597 2910.9648 2897.7722 2884.5793 2711.0596 2882.0618 2900.7935 2919.1223 2936.9475 2954.2693 2971.994 2988.9128 3005.9326 3022.9521 3039.6697 3056.2866 3072.702 3088.916 3105.0293 3121.1426 3137.0544 3159.1094 -1199.5331 1524.4171 3141.989 3102.008 3113.086 3099.6917 3085.2905 3070.8892 3057.6965 3044.403 3031.0088 3017.0105 3003.5156 2989.7185 2975.9216 2962.1245 2948.529 2934.732 2921.338 2907.843 2894.5496 2881.3567 2085.562 2881.961 2900.592 2918.82 2936.746 2953.9673 2971.1882 2989.0137 3005.9326 3022.6501 3039.2668 3055.6824 3072.0977 3088.3118 3104.5256 3120.5383 3136.3494 3170.0867 -1230.7526 1557.3486 3140.4785 2968.0664 3111.1724 3098.3826 
-2441.2627 -2430.1848 -2418.6035 -2407.5256 -2396.6492 -2385.5713 -2374.8962 -2364.2212 -1886.3617 779.9835 -1833.1879 -2341.3604 -2330.7861 -2320.413 -2310.1409 -2299.8687 -2289.7979 -2279.828 -2269.8577 -2260.089 -2250.3203 -2240.8538 -2231.1858 -2221.7192 -2208.9294 -1449.5911 3299.8992 3299.8992 3299.8992 3299.8992 3299.8992 3299.8992 3299.8992 3299.8992 3299.8992 3299.8992 3299.8992 3289.627 -2462.915 -2450.9307 -2439.45 -2428.2715 -2416.8914 -2405.8135 -2394.937 -2383.8591 -2373.0835 -2362.6099 -1465.9058 1172.5433 -1638.5193 -2343.7773 -2333.2031 -2322.83 -2312.5579 -2302.3865 -2292.1143 -2282.144 -2272.174 -2262.4053 -2252.536 -2243.1702 -2233.4014 -2223.9348 -2214.4683 -233.44116 3299.8992 3299.8992 3299.8992 3299.8992 3299.8992 3299.8992 3299.8992 3299.8992 3299.8992 3299.8992 3299.8992 2506.8237 -2464.627 -2452.8442 -2441.3635 -2430.1848 -2418.805 -2407.727 -2396.7498 -2385.7727 -2375.0977 -2364.5232 -1011.2091 1379.2969 -1590.8844 -2348.41 -2337.7349 -2327.2612 -2316.989 -2306.8176 -2296.4446 -2286.4746 -2276.5044 -2266.635 -2256.8665 -2247.4 -2237.5305 -2227.9631 -1697.0306 -100.305176 3299.8992 3299.8992 3299.8992 3299.8992 3299.8992 3299.8992 3299.8992 3299.8992 3299.8992 3299.8992 3299.8992 2294.8333 -2466.5405 -2454.657 -2443.1763 -2432.0984 -2420.819 -2409.6404 -2398.8647 -2387.686 -2377.011 -2366.4368 -1111.7157 571.71936 -2207.4187 -2344.583 -2334.0088 -2323.6357 -2313.263 -2303.0913 -2293.0205 -2282.9497 -2272.9797 -2263.211 -2253.543 -2244.0764 -2234.207 -2224.7405 -2102.0781 -13.192749 3299.8992 3299.8992 3299.8992 3299.8992 3299.8992 3299.8992 3299.8992 3299.8992 3299.8992 3299.8992 3299.8992 1774.173 -2461.5051 -2449.823 -2438.3423 -2427.2644 -2415.8843 -2404.8064 -2393.93 -2382.852 -2372.3784 -2361.6028 -823.18726 166.0675 -2348.7122 -2338.037 -2327.5635 -2317.2913 -2307.019 -2296.9482 -2286.7766 -2276.7058 -2266.9373 -2256.967 -2247.4 -2238.034 -2228.2654 -2218.7988 -1937.32 722.37854 3299.8992 3299.8992 3299.8992 3299.8992 3299.8992 3299.8992 3299.8992 3299.8992 3299.8992 3299.8992 3299.8992 1407.7972 -2459.3901 -2447.708 
-86.50818 -164.25476 -1171.8384 3068.9758 3085.1897 3100.9001 3115.805 3131.314 3146.6216 3161.6272 3176.532 3191.2354 3205.9387 3220.4407 3234.8418 3249.4446 3263.745 1126.117 3255.789 3241.8914 3228.0945 3214.2974 3200.0977 3186.3005 3172.8057 3158.908 3144.7083 3130.2063 3116.7114 3102.9143 3089.0166 2939.4653 1963.3026 1209.3018 531.53687 -3.9276123 -211.08398 273.22083 453.48816 288.62915 65.05737 -175.33264 -1291.4795 3066.9617 3082.5713 3098.1812 3114.093 3129.2998 3144.0032 3159.0088 3173.9136 3188.7175 3203.421 3218.0237 3232.5256 3246.9268 3261.1267 2115.6738 3249.7466 3235.8489 3222.1526 3208.3557 3194.76 3181.1646 3166.9646 3153.067 3139.4714 3124.768 3110.971 3097.0732 3082.8735 2688.2996 1343.6462 550.5707 5.2368164 -372.82104 -348.349 221.15479 419.44885 316.8274 97.283936 44.815063 -674.4415 3067.7673 3084.082 3099.6917 3114.7979 3130.4077 3145.6145 3160.62 3175.525 3190.2283 3204.9316 3219.635 3234.137 3248.538 3262.9395 2175.595 3250.955 3237.0574 3223.2605 3209.5642 3195.5657 3181.668 3168.0725 3154.1748 3139.8743 3125.473 3112.0789 3098.2817 3084.2834 2815.796 1670.5444 849.8749 191.04309 -231.22559 -167.47742 432.4402 565.8783 459.53064 303.53394 124.37439 -1397.4243 3064.8467 3080.3557 3095.9656 3111.7766 3126.9836 3141.7876 3156.8938 3171.7986 3186.6028 3201.2053 3215.808 3230.4106 3244.9126 -3227.3894 2912.979 3244.5098 3230.713 3216.8152 3203.119 3189.4226 3175.827 3161.7278 3147.931 3134.3352 3119.7327 3105.835 3092.1387 3078.0396 2744.998 1606.9977 769.5099 111.8866 -334.14917 -256.10046 295.27588 338.88245 177.04468 99.49951 -62.539673 -1723.3154 3066.9617 3083.2764 3098.7854 3113.6902 3129.2998 3144.6074 3159.5122 3174.5178 3189.2212 3203.9246 3218.4265 3233.029 3247.4304 -2965.2466 3258.307 3244.4092 3230.612 3216.8152 3203.018 3189.0198 3175.0212 3161.5264 3147.83 3133.429 3119.1284 3105.6335 3091.9373 3077.7373 2575.1038 1391.4825 528.81775 -32.83081 -342.81006 -182.58362 345.7306 341.70227 201.3153 
-3204.2266 -3188.8184 -3173.7122 -3158.4045 -3143.1975 -3128.4941 -3113.7908 -3099.2888 -3084.8877 -3070.6877 -3056.5886 -3042.4895 -3028.3904 -3014.694 -3000.8972 -2987.3015 -2973.8066 -2562.616 -1166.9037 1001.1383 3209.262 3299.8992 3299.8992 3299.8992 3299.8992 3299.8992 3299.8992 3299.8992 3299.8992 3299.8992 3299.8992 3299.8992 3299.8992 3299.8992 3299.8992 3299.8992 3299.8992 1240.7227 -3229.2021 -3213.0889 -3197.4792 -3182.0708 -3166.5618 -3151.657 -3136.7522 -3122.1497 -3107.4463 -3093.045 -3078.6438 -3064.3433 -3050.2441 -3036.2456 -3022.4487 -3008.551 -2994.9553 -2981.3599 -2967.9656 -2790.216 -909.2926 1406.7902 3299.8992 3299.8992 3299.8992 3299.8992 3299.8992 3299.8992 3299.8992 3299.8992 3299.8992 3299.8992 3299.8992 3299.8992 3299.8992 3299.8992 3299.8992 3299.8992 3299.8992 638.4888 -3223.8647 -3207.852 -3192.1416 -3176.834 -3161.9292 -3146.6216 -3131.6162 -3117.0134 -3102.411 -3087.808 -3073.6084 -3059.4084 -3045.3093 -3031.2102 -3017.4133 -3003.8176 -2990.1213 -2976.6265 -2963.2324 -2369.0552 -736.27625 1491.7877 3299.8992 3299.8992 3299.8992 3299.8992 3299.8992 3299.8992 3299.8992 3299.8992 3299.8992 3299.8992 3299.8992 3299.8992 3299.8992 3299.8992 3299.8992 3299.8992 3299.8992 29.80957 -3219.635 -3203.7231 -3188.214 -3172.705 -3158.1023 -3142.7947 -3127.7893 -3112.985 -3098.4832 -3084.082 -3069.882 -3055.6824 -3041.4824 -3027.5847 -3013.687 -3000.0916 -2986.3953 -2972.9004 -2959.607 -2206.0088 -482.49207 1749.9023 3299.8992 3299.8992 3299.8992 3299.8992 3299.8992 3299.8992 3299.8992 3299.8992 3299.8992 3299.8992 3299.8992 3299.8992 3299.8992 3299.8992 3299.8992 3299.8992 3299.8992 -370.30334 -3217.4194 -3201.6082 -3186.099 -3170.691 -3155.5847 -3140.579 -3125.8757 -3111.1724 -3096.5698 -3082.2693 -3067.868 -3053.7688 -3039.6697 -3025.6714 -3011.8743 -2998.178 -2984.5825 -2971.1882 -2957.8948 -1983.2428 -141.29333 2151.0222 3299.8992 3299.8992 3299.8992 3299.8992 3299.8992 3299.8992 3299.8992 3299.8992 3299.8992 3299.8992 3299.8992 3299.8992 3299.8992 3299.8992 3299.8992 3299.8992 3299.8992 -1343.1427 -3216.8152 -3201.004 
995.49866 1010.0006 544.2261 -1256.131 -3213.0889 3081.1614 3097.9797 3114.4958 3130.8105 3146.9238 3163.037 3178.8481 3194.5586 3210.269 3225.5767 3240.985 3256.192 208.36487 3250.955 3236.0503 3221.4478 3206.7444 3192.1416 3177.7405 3163.1377 3148.5352 3133.6304 3118.8262 3103.9214 3088.5132 3068.573 1452.5116 270.3003 -212.89673 -485.5133 -656.6162 -453.38745 340.59448 756.015 855.1117 919.76624 1042.63 448.75488 -1547.4792 3236.856 3081.2622 3098.0803 3114.4958 3130.8105 3147.0244 3163.1377 3178.949 3194.6594 3210.269 3225.6775 3240.985 -3280.966 1186.8439 3245.5168 3230.8135 3216.211 3201.6082 3187.3076 3172.6042 3158.1023 3143.2983 3128.4941 3113.4888 3098.6846 3083.1755 2911.569 950.5829 -282.9895 -680.3833 -834.26514 -789.34937 -366.57715 514.2151 934.5703 1015.1367 1038.2996 1171.2341 992.67883 -949.8779 -3155.2825 3075.824 3092.642 3109.3596 3125.6743 3141.8884 3157.901 3173.8127 3189.624 3205.3345 3220.7427 3236.1511 -3231.3171 996.60645 3241.388 3226.6846 3211.9812 3197.3784 3182.4736 3168.3745 3153.772 3139.3706 3124.5667 3109.7625 3094.8577 3079.3486 2874.3071 944.2383 -209.37195 -649.76807 -817.6483 -822.7844 -394.7754 454.39453 871.12427 938.69934 954.00696 1016.54663 238.8794 -1950.1099 3067.0623 3083.9812 3100.6987 3117.3157 3133.5295 3149.5422 3165.6555 3181.4666 3197.177 3212.8875 3228.195 3243.5027 -2941.681 1661.4807 3244.812 3230.0078 3215.4053 3200.9033 3185.797 3171.4966 3157.0952 3142.3918 3127.6885 3112.7837 3097.879 3082.4707 2835.9375 932.65686 -165.9668 -576.55334 -740.10315 -731.8451 -336.66687 472.9248 820.46814 976.8677 980.6946 1027.2217 113.69934 -2132.8948 3070.4863 3087.3047 3103.9214 3120.639 3136.853 3152.8655 3168.8782 3184.6892 3200.3997 3215.808 3231.3171 3246.7253 -2765.9453 1808.7158 3246.6248 3231.9214 3217.218 3202.5146 3187.6099 3173.3093 3158.908 3144.2046 3129.4006 3114.395 3099.6917 3084.1826 2778.2317 906.3721 -104.53491 -532.64465 -760.44617 -757.62634 -264.2578 516.8335 734.96704 803.04565 
-3109.4604 -3095.059 -3080.7585 -3066.7603 -3052.8625 -3039.0654 -3025.5706 -3012.0757 -2998.7822 -2985.5896 -2972.2961 -2959.204 -2946.2126 -2933.4229 -2920.6328 -2908.0444 -2895.4558 -2497.1558 -1497.7295 -347.2412 761.1511 1928.4576 3299.8992 3299.8992 3299.8992 3299.8992 3299.8992 3299.8992 3299.8992 3299.8992 3299.8992 3299.8992 3299.8992 3299.8992 3299.8992 3299.8992 3299.8992 2192.212 -534.5581 -3079.55 -3109.6619 -3095.16 -3080.96 -3066.8608 -3052.9631 -3039.2668 -3025.6714 -3012.277 -2998.883 -2985.5896 -2972.4976 -2959.506 -2946.515 -2933.7249 -2920.935 -2908.2458 -2895.758 -2679.135 -1583.5327 -381.88477 700.827 1748.996 3299.8992 3299.8992 3299.8992 3299.8992 3299.8992 3299.8992 3299.8992 3299.8992 3299.8992 3299.8992 3299.8992 3299.8992 3299.8992 3299.8992 3299.8992 1555.6366 -1240.0177 -3114.395 -3099.6917 -3085.391 -3071.0906 -3057.1929 -3043.396 -3029.8003 -3016.2048 -3002.9114 -2989.618 -2976.3245 -2963.2324 -2950.241 -2937.4512 -2924.5605 -2911.7705 -2899.2827 -2886.8958 -2489.3005 -1532.373 -293.66455 959.3445 2203.9946 3299.8992 3299.8992 3299.8992 3299.8992 3299.8992 3299.8992 3299.8992 3299.8992 3299.8992 3299.8992 3299.8992 3299.8992 3299.8992 3299.8992 3299.8992 1313.736 -1342.8406 -3109.8633 -3095.2605 -3080.96 -3066.7603 -3052.9631 -3039.1663 -3025.47 -3011.975 -2998.5808 -2985.2874 -2972.1953 -2959.204 -2946.0112 -2933.1206 -2920.4314 -2907.9436 -2895.2544 -2882.666 -2447.1038 -1401.0498 -144.81812 1141.1224 2327.5635 3299.8992 3299.8992 3299.8992 3299.8992 3299.8992 3299.8992 3299.8992 3299.8992 3299.8992 3299.8992 3299.8992 3299.8992 3299.8992 3299.8992 3299.8992 1310.2112 -1309.5062 -3108.9568 -3094.2534 -3079.8523 -3065.7532 -3051.8555 -3038.0583 -3024.463 -3010.968 -2997.5737 -2984.2803 -2971.289 -2957.9956 -2945.105 -2932.315 -2919.4243 -2906.735 -2894.3481 -2881.558 -1908.316 -862.26196 303.83606 1478.6957 2567.6514 3299.8992 3299.8992 3299.8992 3299.8992 3299.8992 3299.8992 3299.8992 3299.8992 3299.8992 3299.8992 3299.8992 3299.8992 3299.8992 3299.8992 3299.8992 814.0228 -1832.4829 -3111.2732 

