22.860718 36.657715 36.758423 17.120361 -10.876465 -20.544434 -7.9559326 23.867798 51.965332 68.984985 86.709595 109.06677 150.25635 185.10132 198.6969 204.73938 167.77954 82.47986 0.50354004 -45.92285 -111.987305 -182.98645 -235.05249 -261.13586 -255.89905 -218.03284 -148.4436 -87.61597 -46.124268 -22.659302 -0.30212402 4.6325684 -6.3446045 -2.3162842 3.8269043 13.796997 38.36975 56.5979 58.20923 65.460205 55.892944 55.288696 36.4563 26.385498 21.853638 2.1148682 -22.659302 -41.189575 -27.593994 -4.1290283 11.581421 34.84497 19.839478 -1.3092041 -12.689209 -49.95117 -71.09985 -61.532593 -47.93701 -29.608154 -10.070801 -8.056641 -8.157349 -13.494873 -5.3375244 0.9063721 14.199829 32.025146 21.047974 14.904785 19.537354 26.184082 30.917358 10.977173 -1.8127441 -9.970093 2.4169922 -7.5531006 -13.696289 -0.30212402 27.191162 33.233643 28.701782 36.95984 49.749756 42.49878 31.521606 32.42798 19.940186 15.206909 9.063721 -3.1219482 6.6467285 -15.307617 -33.9386 -34.240723 -21.954346 -9.466553 10.473633 10.070801 -4.0283203 -4.6325684 -8.258057 -8.660889 5.8410645 31.118774 43.707275 41.89453 15.005493 -13.595581 -23.062134 -52.670288 -82.9834 -59.317017 -11.883545 -32.730103 -43.00232 -24.673462 -1.1077881 17.321777 41.189575 65.66162 68.68286 39.37683 4.8339844 -12.991333 7.3516846 14.804077 13.696289 23.364258 14.401245 6.6467285 6.9488525 17.422485 17.825317 24.472046 -4.2297363 -8.963013 -16.616821 -5.4382324 2.1148682 -1.5106201 -19.033813 -48.239136 -58.410645 -62.64038 -45.52002 -34.542847 -33.9386 -32.226562 -9.265137 0 5.2368164 -1.7120361 -2.2155762 7.8552246 20.343018 44.0094 53.67737 44.41223 48.843384 42.90161 28.29895 20.24231 0.70495605 -37.060547 -49.54834 -52.166748 -41.39099 -24.77417 -25.78125 -27.191162 -15.408325 -3.2226562 11.077881 36.557007 55.993652 68.07861 81.97632 106.8512 113.29651 95.87402 72.61047 55.892944 38.974 41.088867 48.44055 15.307617 -55.490112 -97.88818 -106.54907 -126.589966 -139.5813 -118.93616 -108.76465 -95.5719 -75.73242 -49.95117 -42.599487 -23.062134 
13.192749 23.464966 20.040894 32.025146 21.652222 19.033813 7.1502686 6.2438965 -1.1077881 -6.5460205 -8.358765 -13.494873 49.0448 125.88501 209.06982 265.3656 273.42224 289.63623 281.5796 261.23657 240.69214 222.86682 166.77246 80.76782 -20.343018 -77.948 -120.14465 -175.13123 -227.39868 -263.55286 -254.28772 -247.8424 -232.03125 -205.64575 -176.64185 -154.88892 -143.60962 -126.086426 -106.14624 -83.184814 -83.88977 -77.948 -60.22339 -28.701782 -14.501953 -31.924438 -30.111694 -29.708862 -36.557007 -25.78125 -36.4563 -62.438965 -53.274536 -54.0802 -24.472046 -19.638062 -6.4453125 3.4240723 -7.6538086 -19.335938 -25.982666 -19.033813 -13.192749 -16.516113 -5.5389404 4.9346924 14.904785 35.147095 33.535767 34.240723 28.097534 26.889038 24.874878 12.689209 -2.2155762 -3.1219482 10.675049 13.092041 20.443726 42.297363 36.85913 49.145508 49.850464 70.999146 82.177734 95.5719 109.3689 114.90784 112.89368 103.829956 87.61597 75.93384 74.92676 79.96216 90.33508 64.35242 39.98108 9.164429 -7.4523926 -11.682129 -25.579834 -41.088867 -59.61914 -49.749756 -23.867798 -15.509033 -5.3375244 5.6396484 11.581421 -2.4169922 -39.88037 -100.6073 -130.01404 -107.85828 -110.6781 -109.26819 -96.276855 -56.69861 -23.162842 -5.4382324 -4.6325684 -2.3162842 -2.3162842 5.2368164 -12.286377 -21.75293 -11.380005 -0.10070801 8.258057 5.3375244 2.6184082 -11.480713 8.358765 19.839478 28.601074 38.47046 18.127441 51.05896 52.871704 56.799316 64.05029 63.345337 36.053467 11.178589 7.1502686 -10.070801 -29.003906 -41.99524 -35.650635 -29.003906 -3.8269043 -8.963013 2.7191162 -4.0283203 -12.487793 -15.710449 -28.198242 -19.638062 -9.063721 -6.6467285 -11.682129 -10.070801 -34.542847 -22.155762 -30.715942 -25.881958 -17.623901 -2.8198242 12.387085 25.177002 23.76709 3.7261963 16.818237 13.796997 30.413818 62.23755 79.055786 95.47119 76.43738 94.262695 81.7749 79.96216 69.08569 79.35791 83.88977 87.41455 73.11401 52.770996 -0.10070801 -56.5979 -74.12109 -81.170654 -79.660034 -77.645874 -66.6687 -60.72693 -60.827637 -61.23047 -56.799316 -58.007812 
-3069.1772 -3054.9773 -3040.7776 -2698.068 -204.84009 2726.6692 3299.8992 3299.8992 3299.8992 3299.8992 3299.8992 3299.8992 3299.8992 3299.8992 3299.8992 3299.8992 3299.8992 3299.8992 3299.8992 3299.8992 3299.8992 3299.8992 3290.7349 2940.9758 3282.9802 3299.6978 -3283.786 -3267.4712 -3251.1565 -3235.0432 -3219.1313 -3203.3203 -3187.7104 -3172.2014 -3156.8938 -3141.7876 -3126.6814 -3111.7766 -3097.0732 -3082.3699 -3067.7673 -3053.064 -3039.2668 -2650.131 73.61755 3046.7192 3299.8992 3299.8992 3299.8992 3299.8992 3299.8992 3299.8992 3299.8992 3299.8992 3299.8992 3299.8992 3299.8992 3299.8992 3299.8992 3299.8992 3299.8992 3299.8992 3290.0298 2702.902 3282.7788 3299.8992 -3283.383 -3267.0684 -3250.7537 -3234.6404 -3218.7285 -3202.9175 -3187.3076 -3171.8994 -3156.491 -3141.2842 -3126.178 -3111.3738 -3096.5698 -3081.967 -3067.3645 -3053.366 -3038.6626 -2571.3774 198.29407 3136.6516 3299.8992 3299.8992 3299.8992 3299.8992 3299.8992 3299.8992 3299.8992 3299.8992 3299.8992 3299.8992 3299.8992 3299.8992 3299.8992 3299.8992 3299.8992 3299.8992 3288.6199 2115.9758 3284.6924 3299.8992 -3282.2754 -3265.7593 -3249.5452 -3233.5327 -3217.6208 -3201.8096 -3186.2 -3170.691 -3155.484 -3140.277 -3125.2715 -3110.3667 -3095.5627 -3080.96 -3066.458 -3051.654 -3037.9578 -2418.9055 276.7456 3131.7168 3299.8992 3299.8992 3299.8992 3299.8992 3299.8992 3299.8992 3299.8992 3299.8992 3299.8992 3299.8992 3299.8992 3299.8992 3299.8992 3299.8992 3299.8992 3299.8992 3289.224 1582.5256 3286.4043 3299.8992 -3279.959 -3263.4429 -3247.229 -3231.2163 -3215.4053 -3199.4934 -3183.8835 -3168.4753 -3153.1677 -3137.9607 -3122.9553 -3108.1511 -3093.3472 -3078.7444 -3064.3433 -3050.1433 -3035.6414 -2175.3936 599.11194 3299.8992 3299.8992 3299.8992 3299.8992 3299.8992 3299.8992 3299.8992 3299.8992 3299.8992 3299.8992 3299.8992 3299.8992 3299.8992 3299.8992 3299.8992 3299.8992 3299.8992 3287.3108 938.59863 3286.5051 3299.8992 -3279.8584 -3263.3423 -3247.1282 -3231.1157 -3215.2039 -3199.4934 -3183.8835 -3168.3745 -3153.067 -3137.9607 -3122.9553 -3108.0505 -3093.3472 -3078.6438 
-3123.9624 -3109.9639 -3096.469 -1792.9047 665.0757 2875.1128 3299.8992 3299.8992 3299.8992 3299.8992 3299.8992 3299.8992 3299.8992 3299.8992 3299.8992 3299.8992 3299.8992 3299.8992 3299.8992 3293.1519 3278.3477 3263.745 3248.4375 2666.1438 3240.985 3256.5947 3272.6074 3288.1165 3299.8992 -3281.4697 -3266.464 -3251.4587 -3236.6545 -3221.9512 -3207.3486 -3192.9473 -3178.6467 -3164.3462 -3150.247 -3136.2488 -3122.351 -3108.3525 -3094.9585 -1546.2708 899.3225 3081.967 3299.8992 3299.8992 3299.8992 3299.8992 3299.8992 3299.8992 3299.8992 3299.8992 3299.8992 3299.8992 3299.8992 3299.8992 3299.8992 3292.044 3277.1392 3262.1338 3247.229 2267.2393 3241.9922 3258.206 3273.6145 3289.1235 3299.8992 -3280.4626 -3265.457 -3250.4517 -3235.6475 -3220.944 -3206.4421 -3191.9402 -3177.539 -3163.44 -3149.4414 -3135.3423 -3121.4446 -3107.9497 -3093.9514 -1714.9567 812.81433 3098.6846 3299.8992 3299.8992 3299.8992 3299.8992 3299.8992 3299.8992 3299.8992 3299.8992 3299.8992 3299.8992 3299.8992 3299.8992 3299.8992 3293.9575 3279.0527 3263.8457 3249.0417 1550.9033 3246.4233 3262.5366 3278.0457 3293.3533 3299.8992 -3276.132 -3260.9253 -3246.222 -3231.3171 -3216.8152 -3202.2124 -3187.8113 -3173.41 -3159.3108 -3145.2117 -3131.2134 -3117.517 -3104.0222 -3089.7217 -1015.64026 1397.3236 3299.8992 3299.8992 3299.8992 3299.8992 3299.8992 3299.8992 3299.8992 3299.8992 3299.8992 3299.8992 3299.8992 3299.8992 3299.8992 3299.8992 3290.8354 3276.0315 3260.8245 3245.9197 1242.0319 3244.5098 3260.623 3276.0315 3291.4397 3299.8992 -3278.0457 -3263.04 -3248.0347 -3233.3313 -3218.628 -3204.126 -3189.624 -3175.424 -3161.2244 -3147.1252 -3133.2275 -3119.3298 -3105.835 -3058.6028 -860.0464 1661.1786 3299.8992 3299.8992 3299.8992 3299.8992 3299.8992 3299.8992 3299.8992 3299.8992 3299.8992 3299.8992 3299.8992 3299.8992 3299.8992 3299.8992 3286.4043 3271.6003 3256.4941 3241.69 273.0194 3243.2007 3259.314 3274.7222 3290.2312 3299.8992 -3279.3547 -3264.2485 -3249.3438 -3234.6404 -3219.937 -3205.3345 -3190.933 -3176.6326 -3162.4329 -3148.3337 -3134.436 
3148.4343 3134.0332 2655.9722 856.1188 -826.91345 -2145.6848 3247.1282 3151.9592 3167.3674 3182.8765 3198.4863 3213.693 3228.9001 3244.107 3259.2131 3274.2188 3289.0227 3299.8992 -3281.4697 -3266.867 -3252.4658 -3238.0645 -3223.5625 -2108.8257 3299.8992 3299.8992 3299.8992 3299.8992 3299.8992 3299.8992 3292.9504 3278.0457 3263.3423 3248.538 3233.6333 3218.628 3203.7231 3189.2212 3174.5178 3160.0159 3145.514 3131.2134 2795.755 939.3036 -875.6561 -2289.1936 3134.0332 3149.945 3165.3533 3180.7617 3196.2708 3211.5784 3226.886 3241.9922 3257.0984 3272.1038 3287.0085 3299.8992 -3283.5845 -3269.0825 -3254.3792 -3239.978 -3225.5767 -1764.4043 3299.8992 3299.8992 3299.8992 3299.8992 3299.8992 3299.8992 3289.5264 3274.6216 3259.8174 3245.0134 3230.0078 3215.2039 3200.5005 3185.8977 3171.1943 3156.7932 3142.3918 3125.8757 2468.6553 580.48096 -1103.7598 -2538.8489 3135.443 3151.657 3167.3674 3182.9773 3198.285 3213.794 3228.9001 3243.9055 3259.0117 3273.9165 3289.1235 3299.8992 -3281.5703 -3266.9678 -3252.4658 -3238.0645 -3224.0662 -1263.382 3299.8992 3299.8992 3299.8992 3299.8992 3299.8992 3299.8992 3288.6199 3273.816 3258.9111 3244.0063 3229.1016 3214.2974 3199.594 3184.8906 3170.288 3155.8867 3141.4856 3125.7751 2472.2808 532.84607 -1176.9745 -2562.5151 3136.2488 3152.0598 3167.4683 3182.9773 3198.3855 3213.693 3228.9001 3244.107 3259.1125 3274.118 3289.0227 3299.8992 -3281.5703 -3267.0684 -3252.4658 -3238.1653 -3223.764 -876.8646 3299.8992 3299.8992 3299.8992 3299.8992 3299.8992 3299.8992 3287.8142 3272.708 3257.904 3243.0999 3228.195 3213.391 3198.7883 3183.9844 3169.3816 3154.9805 3140.579 3122.8545 2160.9924 226.79443 -1496.9238 -2969.6777 3140.8813 3156.9946 3172.705 3188.3147 3203.6223 3219.0308 3234.2375 3249.2432 3264.3494 3279.2542 3294.058 -3291.1377 -3276.535 -3261.9324 -3247.4304 -3233.13 -3219.0308 -313.60474 3299.8992 3299.8992 3299.8992 3299.8992 3299.8992 3299.8992 3289.8284 3274.9236 3260.1196 3245.2148 3230.31 3215.5059 3200.8025 3186.099 3171.4966 3156.8938 
-2950.3418 -2936.9475 -2923.755 -2907.9436 -1689.3768 -157.91016 1213.7329 2605.5176 3299.8992 3299.8992 3299.8992 3299.8992 3299.8992 3299.8992 3299.8992 3299.8992 3299.8992 3299.8992 3299.8992 3299.8992 3299.8992 3299.8992 3299.8992 3299.8992 -1777.1942 -3163.8428 -3148.3337 -3133.1267 -3118.0205 -3103.1157 -3088.211 -3073.6084 -3059.0056 -3044.806 -3030.5054 -3016.4062 -3002.4077 -2988.51 -2974.6123 -2960.916 -2947.4211 -2933.9263 -2920.935 -2617.7031 -1285.9406 179.05884 1591.5894 2907.4402 3299.8992 3299.8992 3299.8992 3299.8992 3299.8992 3299.8992 3299.8992 3299.8992 3299.8992 3299.8992 3299.8992 3299.8992 3299.8992 3299.8992 3299.8992 3299.8992 -2284.6619 -3166.4612 -3150.9521 -3135.6445 -3120.639 -3105.6335 -3090.9302 -3076.2268 -3061.7249 -3047.3235 -3033.023 -3018.9238 -3004.8247 -2990.927 -2977.1301 -2963.5344 -2949.8381 -2936.3433 -2922.8484 -2551.7395 -957.83386 540.3992 1878.5065 3141.0828 3299.8992 3299.8992 3299.8992 3299.8992 3299.8992 3299.8992 3299.8992 3299.8992 3299.8992 3299.8992 3299.8992 3299.8992 3299.8992 3299.8992 3299.8992 3179.956 -2700.2837 -3171.7986 -3156.3904 -3141.1833 -3125.9766 -3110.971 -3096.2676 -3081.5642 -3067.0623 -3052.5603 -3038.3606 -3024.1606 -3010.1624 -2996.1638 -2982.367 -2968.5698 -2954.9744 -2941.4795 -2927.8838 -2577.118 -1424.1119 -17.22107 1402.359 2704.4128 3299.8992 3299.8992 3299.8992 3299.8992 3299.8992 3299.8992 3299.8992 3299.8992 3299.8992 3299.8992 3299.8992 3299.8992 3299.8992 3299.8992 3299.8992 3024.6643 -3062.5305 -3166.6626 -3151.1536 -3136.0474 -3120.9412 -3105.9355 -3091.2322 -3076.6296 -3062.0269 -3047.7263 -3033.3252 -3019.226 -3005.127 -2991.3298 -2977.4321 -2963.7358 -2950.241 -2936.6455 -2923.4526 -2536.9353 -1036.084 451.07117 1756.4484 3023.4558 3299.8992 3299.8992 3299.8992 3299.8992 3299.8992 3299.8992 3299.8992 3299.8992 3299.8992 3299.8992 3299.8992 3299.8992 3299.8992 3299.8992 3299.8992 2744.998 -3182.1716 -3166.3604 -3150.8513 -3135.6445 -3120.7397 -3105.7341 -3090.9302 -3076.2268 -3061.8254 -3047.4243 -3033.1238 -3019.0247 -3005.0261 -2991.0278 -2977.2307 -2963.5344 
3094.1528 3075.2197 2323.0315 795.7947 -534.3567 -1483.5297 -2265.5273 3273.715 3106.7412 3123.4587 3139.9749 3156.5918 3172.8057 3188.919 3205.0322 3221.045 3236.9568 3252.8687 3268.6797 3284.491 3299.8992 -3284.491 -3269.6868 -2120.3064 3299.8992 3299.8992 3299.8992 3292.3462 3277.0386 3261.026 3246.0205 3230.8135 3215.6067 3200.0977 3184.6892 3169.281 3153.8726 3138.6658 3123.5596 3108.6548 3093.75 3074.817 2315.0757 873.64197 -515.12146 -1588.4674 -2430.3862 3112.0789 3108.1511 3124.6672 3141.2842 3157.901 3174.2156 3190.4297 3206.3416 3222.354 3238.1653 3254.3792 3269.8882 3285.6995 3299.8992 -3283.383 -3268.3777 -1841.748 3299.8992 3299.8992 3299.8992 3291.5405 3276.3335 3260.4216 3245.4163 3230.0078 3214.9016 3199.3926 3183.9844 3168.576 3153.1677 3137.9607 3123.056 3107.9497 3092.9443 3019.8303 1909.1217 505.4535 -647.9553 -1589.7766 -2392.52 3102.713 3111.978 3128.595 3145.2117 3161.6272 3177.942 3194.1558 3210.1685 3226.181 3242.0928 3257.904 3273.6145 3289.325 3299.8992 -3279.7576 -3264.2485 -1449.8932 3299.8992 3299.8992 3299.8992 3292.749 3277.542 3261.6301 3246.524 3231.4177 3216.0095 3200.3997 3185.1929 3169.6838 3154.2754 3139.1692 3124.063 3109.0576 3094.052 3020.8374 1895.224 389.74 -811.4044 -1797.4365 -2602.295 3099.994 3116.6106 3133.3281 3149.8442 3166.2598 3182.5745 3198.6877 3214.801 3230.713 3246.524 3262.3352 3278.1462 3293.6553 -3290.8354 -3275.4272 -3259.8174 -1211.0138 3299.8992 3299.8992 3299.8992 3295.7703 3280.3618 3264.45 3249.3438 3234.137 3218.8293 3203.3203 3187.8113 3172.3022 3156.9946 3141.687 3126.6814 3111.7766 3096.7712 3072.4 1921.0052 373.3246 -895.7977 -1874.5789 -2678.7322 3103.72 3120.5383 3137.155 3153.8726 3170.1873 3186.502 3202.4138 3218.4265 3234.5398 3250.3508 3266.2627 3281.9731 3297.4822 -3287.21 -3271.6003 -3256.897 -761.9568 3299.8992 3299.8992 3299.8992 3296.6765 3281.369 3265.457 3250.3508 3235.0432 3219.635 3204.2266 3188.7175 3173.2085 3157.901 3142.694 3127.487 3112.683 
-2017.8864 -1788.5742 -1609.1125 -1175.4639 -720.6665 -449.25842 -263.9557 -102.11792 189.53247 950.885 2390.0024 3299.8992 3299.8992 3299.8992 3299.8992 3299.8992 3299.8992 3299.8992 3299.8992 3299.8992 3299.8992 3299.8992 3299.8992 2314.4714 -76.33667 -1625.528 -2841.6777 -3110.971 -3096.167 -3081.5642 -3067.0623 -3052.6611 -3038.3606 -3024.362 -3010.3638 -2996.466 -2982.8704 -2813.1775 -2375.1982 -1976.294 -1875.7874 -1760.376 -1608.1055 -1283.6243 -852.09045 -396.68884 -94.16199 83.99048 300.81482 1137.1948 2568.8599 3208.3557 3299.8992 3299.8992 3299.8992 3299.8992 3299.8992 3299.8992 3299.8992 3299.8992 3299.8992 3299.8992 3299.8992 2081.2317 -105.944824 -1553.8239 -2783.267 -3107.3455 -3092.5415 -3077.9387 -3063.4368 -3048.9348 -3034.735 -3020.7366 -3006.7383 -2993.042 -2979.3457 -2965.448 -2686.084 -2338.339 -2030.5756 -1619.284 -1368.924 -964.98413 -573.7335 -319.94934 -77.84729 92.85278 371.0083 1334.1797 2622.638 3280.1604 3299.8992 3299.8992 3299.8992 3299.8992 3299.8992 3299.8992 3299.8992 3299.8992 3299.8992 3299.8992 3299.8992 1926.7456 -280.97534 -1854.9408 -3114.7979 -3101.8066 -3087.0024 -3072.299 -3057.9985 -3043.698 -3029.4983 -3015.4998 -3001.5015 -2987.8052 -2974.109 -2926.9775 -2555.7678 -2125.0396 -1850.5096 -1502.6642 -1023.4955 -684.2102 -301.51978 -68.984985 175.73547 287.9242 451.07117 1327.1301 2687.393 3206.3416 3299.8992 3299.8992 3299.8992 3299.8992 3299.8992 3299.8992 3299.8992 3299.8992 3299.8992 3299.8992 3299.8992 2031.1798 -103.829956 -1646.0724 -2976.123 -3109.8633 -3095.16 -3080.4565 -3066.0552 -3051.7546 -3037.555 -3023.5564 -3009.4573 -2995.6604 -2981.8633 -2899.9878 -2500.3784 -2142.2607 -1719.7906 -1332.6691 -979.3854 -501.9287 -253.38135 -71.502686 10.574341 181.47583 404.24194 1295.0043 2638.3484 3299.8992 3299.8992 3299.8992 3299.8992 3299.8992 3299.8992 3299.8992 3299.8992 3299.8992 3299.8992 3299.8992 3299.8992 1607.8033 -500.21667 -2045.7825 -3127.185 -3112.0789 -3097.2747 -3082.672 -3068.0693 -3053.8696 -3039.6697 -3025.5706 -3011.7737 -2997.9766 -2984.1797 -2745.401 -2252.8381 -1939.7369 

16.516113 4.3304443 -25.78125 -28.399658 -0.50354004 38.36975 60.424805 74.42322 80.4657 76.7395 43.40515 9.869385 -12.387085 -47.332764 -54.483032 -56.396484 -65.460205 -52.670288 -41.693115 -32.32727 -17.825317 -10.272217 -8.963013 -7.0495605 -5.0354004 -1.7120361 6.3446045 17.825317 20.846558 22.055054 23.464966 17.623901 19.436646 13.494873 -8.459473 -43.103027 -59.518433 -54.281616 -43.203735 -20.443726 2.9205322 8.459473 15.609741 50.958252 60.72693 44.815063 26.586914 0.20141602 -34.44214 -52.166748 -48.239136 -24.472046 -19.436646 -24.472046 -16.818237 -5.9417725 -6.8481445 -19.134521 -9.365845 13.796997 23.26355 31.622314 59.21631 58.813477 57.70569 40.786743 29.708862 22.659302 15.710449 20.343018 4.1290283 -18.832397 -14.199829 23.162842 12.991333 1.8127441 -28.80249 -44.41223 -44.714355 -45.117188 -38.269043 -43.103027 -51.763916 -38.571167 -43.50586 -36.053467 -11.380005 8.761597 16.918945 20.24231 21.047974 25.479126 14.199829 22.357178 18.429565 2.4169922 0.30212402 -13.092041 -8.761597 -8.761597 -0.9063721 4.8339844 15.005493 1.5106201 4.5318604 4.2297363 -7.8552246 2.7191162 -5.4382324 -12.789917 -32.528687 -47.43347 -57.504272 -44.41223 -35.247803 -28.601074 -13.595581 11.682129 31.118774 59.21631 91.744995 94.86694 86.206055 94.766235 110.980225 104.937744 75.32959 29.406738 -28.198242 -61.23047 -73.516846 -80.26428 -48.03772 -21.24939 -37.86621 -40.283203 -24.975586 -19.23523 -13.696289 -4.6325684 -0.9063721 13.494873 59.1156 105.441284 112.994385 69.58923 -5.4382324 -59.518433 -67.27295 -78.35083 -98.89526 -114.10217 -92.34924 -80.86853 -62.74109 -49.95117 -27.090454 -1.0070801 17.623901 36.254883 37.060547 41.99524 86.40747 110.476685 97.68677 49.0448 -0.9063721 -24.169922 -44.613647 -70.3949 -65.963745 -56.497192 -38.671875 
15.911865 1.6113281 -8.862305 8.459473 19.335938 39.98108 30.81665 25.076294 14.602661 4.4311523 -6.0424805 -3.6254883 3.3233643 -6.3446045 -18.73169 -59.921265 -41.088867 -51.461792 -55.288696 -55.389404 -45.620728 -32.42798 -15.509033 -16.616821 -14.904785 0.20141602 -14.501953 -5.6396484 -10.977173 -5.8410645 -2.9205322 7.4523926 40.98816 53.274536 61.73401 67.977905 76.034546 89.52942 108.966064 136.45935 134.5459 111.987305 93.85986 74.42322 29.205322 -2.7191162 -31.118774 -47.03064 -70.29419 -95.06836 -110.07385 -102.21863 -92.248535 -110.07385 -88.11951 -76.135254 -55.69153 -53.67737 -48.54126 -24.77417 -11.782837 10.272217 22.659302 18.630981 17.926025 9.164429 3.1219482 7.4523926 17.019653 23.062134 8.358765 0.30212402 -26.486206 -40.081787 -65.963745 -69.992065 -56.69861 -26.586914 -14.804077 -5.1361084 4.6325684 3.7261963 2.6184082 3.3233643 -5.1361084 -21.24939 -27.090454 -18.328857 -10.775757 -8.157349 -2.4169922 16.616821 14.904785 -20.141602 18.026733 28.198242 38.974 44.815063 50.756836 41.39099 33.737183 42.49878 48.641968 28.500366 16.314697 2.8198242 -12.185669 2.7191162 7.1502686 27.694702 23.565674 22.357178 11.279297 -5.2368164 -18.73169 -26.989746 -26.989746 -10.070801 2.8198242 12.789917 14.099121 36.758423 49.0448 71.20056 73.41614 78.149414 81.87561 86.709595 68.984985 55.08728 35.046387 26.083374 25.076294 42.599487 23.464966 6.3446045 39.074707 64.75525 55.892944 35.147095 8.157349 -0.80566406 -26.989746 -69.28711 -82.78198 -96.780396 -129.91333 -149.45068 -164.95972 -143.3075 -126.28784 -113.1958 -99.298096 -64.05029 -41.89453 -30.917358 -23.464966 -14.804077 -1.1077881 9.970093 30.413818 43.40515 64.65454 61.73401 64.151 54.785156 35.85205 36.85913 43.707275 41.693115 36.758423 58.511353 80.76782 
-3263.745 -3247.531 -3231.4177 -3215.6067 -3199.8962 -3184.2864 -3168.8782 -3153.5706 -3138.3635 -3123.3582 -3108.4534 -3093.6492 -3079.1472 -3064.6453 -3049.942 -3036.0442 -1738.7238 1087.8479 3299.8992 3299.8992 3299.8992 3299.8992 3299.8992 3299.8992 3299.8992 3299.8992 3299.8992 3299.8992 3299.8992 3299.8992 3299.8992 3299.8992 3299.8992 3299.8992 3298.7915 3282.5774 -651.7822 3286.1023 3299.8992 -3280.2612 -3263.8457 -3247.6318 -3231.6191 -3215.7073 -3199.9968 -3184.4878 -3168.9788 -3153.6711 -3138.4644 -3123.5596 -3108.6548 -3093.8506 -3079.248 -3064.746 -3050.647 -3036.0442 -1790.5884 1077.5757 3299.8992 3299.8992 3299.8992 3299.8992 3299.8992 3299.8992 3299.8992 3299.8992 3299.8992 3299.8992 3299.8992 3299.8992 3299.8992 3299.8992 3299.8992 3299.8992 3298.3887 3282.376 -1435.6934 3287.915 3299.8992 -3278.4485 -3262.1338 -3245.9197 -3229.8064 -3213.9954 -3198.3855 -3182.776 -3167.2668 -3151.9592 -3136.853 -3121.7468 -3107.0435 -3092.2393 -3077.6367 -3063.1348 -3049.1362 -3035.037 -1424.0112 1460.3668 3299.8992 3299.8992 3299.8992 3299.8992 3299.8992 3299.8992 3299.8992 3299.8992 3299.8992 3299.8992 3299.8992 3299.8992 3299.8992 3299.8992 3299.8992 3299.8992 3296.173 3279.8584 -2494.7388 3287.915 3299.8992 -3278.4485 -3262.1338 -3245.9197 -3229.8064 -3213.9954 -3198.285 -3182.776 -3167.166 -3151.9592 -3136.853 -3121.8474 -3107.0435 -3092.2393 -3077.6367 -3063.1348 -3049.1362 -3034.5337 -1435.0891 1420.285 3299.8992 3299.8992 3299.8992 3299.8992 3299.8992 3299.8992 3299.8992 3299.8992 3299.8992 3299.8992 3299.8992 3299.8992 3299.8992 3299.8992 3299.8992 3299.8992 3296.2737 3280.0598 3277.6428 3290.1306 -3293.051 -3276.4343 -3260.0188 -3243.805 -3227.7922 -3211.9812 -3196.2708 -3180.7617 -3165.2527 -3150.0457 -3134.9395 -3119.8333 -3105.13 -3090.4265 -3075.7231 
3289.1235 3299.8992 -3280.3618 -3265.3564 -3250.4517 -3235.5469 -3220.8435 -3206.3416 -3192.041 -3177.6396 -3163.44 -3149.3408 -3135.3423 -3121.646 -3108.0505 -2997.7751 -641.3086 1742.3492 3299.8992 3299.8992 3299.8992 3299.8992 3299.8992 3299.8992 3299.8992 3299.8992 3299.8992 3299.8992 3299.8992 3299.8992 3299.8992 3297.583 3282.7788 3267.7734 3252.6672 3237.7625 -1298.529 3243.805 3259.314 3275.2258 3290.634 3299.8992 -3278.952 -3263.8457 -3249.0417 -3234.2375 -3219.635 -3205.0322 -3190.631 -3176.3306 -3162.1306 -3148.1323 -3134.1338 -3120.236 -3106.2378 -2814.5874 -243.81409 2201.5776 3299.8992 3299.8992 3299.8992 3299.8992 3299.8992 3299.8992 3299.8992 3299.8992 3299.8992 3299.8992 3299.8992 3299.8992 3299.8992 3294.461 3279.5562 3264.6514 3250.1494 3234.7412 -1499.4415 3241.388 3256.897 3272.8088 3288.3179 3299.8992 -3281.369 -3266.3635 -3251.4587 -3236.6545 -3221.9512 -3207.3486 -3192.9473 -3178.6467 -3164.447 -3150.4485 -3136.3494 -3122.4517 -3108.554 -2990.7256 -768.80493 1680.4138 3299.8992 3299.8992 3299.8992 3299.8992 3299.8992 3299.8992 3299.8992 3299.8992 3299.8992 3299.8992 3299.8992 3299.8992 3299.8992 3297.6836 3282.7788 3267.874 3253.2715 3237.7625 -2417.7979 3246.8262 3262.3352 3278.247 3293.6553 3299.8992 -3276.0315 -3261.026 -3246.121 -3231.3171 -3216.6138 -3202.2124 -3187.8113 -3173.6113 -3159.3108 -3145.2117 -3131.314 -3117.517 -3103.5186 -2651.6418 -108.966064 2232.3943 3299.8992 3299.8992 3299.8992 3299.8992 3299.8992 3299.8992 3299.8992 3299.8992 3299.8992 3299.8992 3299.8992 3299.8992 3299.8992 3295.7703 3280.8655 3265.9607 3251.358 3235.7483 -3025.5706 3246.3225 3261.8315 3277.6428 3293.051 3299.8992 -3276.535 -3261.5295 -3246.6248 -3231.8206 -3217.218 -3202.716 -3188.3147 -3174.115 -3159.915 -3145.7153 -3131.8176 
3299.8992 3299.8992 3299.8992 3288.0156 3273.1108 3258.307 3243.402 3228.598 3213.794 3198.9897 3184.2864 3169.6838 3155.182 3140.8813 3123.2573 2145.1812 88.92517 -1589.7766 -2919.5251 3142.3918 3158.4045 3174.3164 3189.624 3205.133 3220.3398 3235.6475 3250.7537 3265.7593 3280.664 3295.5688 -3289.7278 -3275.125 -3260.623 -3246.121 -3231.8206 -3217.8223 377.65503 3299.8992 3299.8992 3299.8992 3299.8992 3299.8992 3299.8992 3288.0156 3273.1108 3258.307 3243.402 3228.598 3213.693 3198.9897 3184.2864 3169.7844 3155.2825 3141.1833 3122.1497 1923.2208 -87.91809 -1786.9629 -3090.1245 3146.2188 3161.9292 3177.3376 3192.8467 3208.1543 3223.462 3238.7695 3253.6743 3268.7805 3283.6853 3298.4893 -3286.8071 -3272.2046 -3257.6018 -3243.2007 -3228.9001 -3214.5996 971.42944 3299.8992 3299.8992 3299.8992 3299.8992 3299.8992 3299.8992 3289.1235 3274.2188 3259.4146 3244.5098 3229.605 3214.801 3200.0977 3185.2935 3170.691 3156.3904 3141.7876 3123.9624 2036.5173 5.5389404 -1573.764 -2886.6943 3144.104 3160.2173 3175.9277 3191.5374 3206.845 3222.1526 3237.3596 3252.4658 3267.4712 3282.4768 3297.2808 -3288.1165 -3273.5137 -3258.9111 -3244.4092 -3230.1086 -3216.11 1381.9153 3299.8992 3299.8992 3299.8992 3299.8992 3299.8992 3299.8992 3286.3037 3271.399 3256.5947 3241.69 3226.7852 3212.0818 3197.2778 3182.5745 3168.0725 3153.5706 3139.1692 3090.7288 1535.1929 -431.3324 -1935.4065 -3203.5217 3149.1394 3164.8499 3180.0566 3195.465 3210.8733 3226.181 3241.287 3256.4941 3271.399 3286.3037 3299.8992 -3284.1887 -3269.5862 -3255.0842 -3240.3809 -3226.3823 -3211.9812 1820.2972 3299.8992 3299.8992 3299.8992 3299.8992 3299.8992 3299.8992 3288.4185 3273.5137 3258.609 3243.805 3228.6987 3213.9954 3199.292 3184.5886 3170.0867 3155.484 
-3133.1267 -3118.0205 -3103.1157 -3088.4124 -3073.8098 -3059.3079 -3044.9065 -3030.606 -3016.5068 -3002.5085 -2988.7114 -2974.8137 -2961.2183 -2947.6226 -2934.1277 -2920.6328 -2437.5366 -1004.6631 495.88623 1752.2186 2935.739 3299.8992 3299.8992 3299.8992 3299.8992 3299.8992 3299.8992 3299.8992 3299.8992 3299.8992 3299.8992 3299.8992 3299.8992 3299.8992 3299.8992 3299.8992 2171.2646 -3176.532 -3160.8215 -3145.413 -3130.2063 -3115.1 -3100.1953 -3085.492 -3070.8892 -3056.5886 -3042.0867 -3027.887 -3013.7878 -2999.7893 -2985.8916 -2972.0947 -2958.3984 -2944.9036 -2931.5093 -2917.9138 -2156.7627 -753.79944 693.57605 1984.6527 3146.1182 3299.8992 3299.8992 3299.8992 3299.8992 3299.8992 3299.8992 3299.8992 3299.8992 3299.8992 3299.8992 3299.8992 3299.8992 3299.8992 3299.8992 3299.8992 1907.5104 -3177.942 -3162.1306 -3146.7224 -3131.5154 -3116.6106 -3101.5044 -3086.801 -3072.299 -3057.6965 -3043.396 -3029.196 -3014.9963 -3001.0986 -2987.201 -2973.4038 -2959.8083 -2946.2126 -2932.8186 -2919.7266 -2251.9316 -853.50037 549.3622 1859.372 3088.211 3299.8992 3299.8992 3299.8992 3299.8992 3299.8992 3299.8992 3299.8992 3299.8992 3299.8992 3299.8992 3299.8992 3299.8992 3299.8992 3299.8992 3299.8992 1330.4535 -3173.6113 -3158.0017 -3142.4927 -3127.3865 -3112.3809 -3097.476 -3082.8735 -3068.2708 -3053.6682 -3039.4683 -3025.2686 -3011.0686 -2997.171 -2983.374 -2969.577 -2955.9814 -2942.3857 -2928.9917 -2916.0002 -1757.6569 -254.0863 1119.0674 2352.4382 3299.8992 3299.8992 3299.8992 3299.8992 3299.8992 3299.8992 3299.8992 3299.8992 3299.8992 3299.8992 3299.8992 3299.8992 3299.8992 3299.8992 3299.8992 3299.8992 970.7245 -3178.7476 -3163.037 -3147.7295 -3132.7239 -3117.517 -3102.6123 -3087.909 -3073.3062 -3058.905 -3044.6045 -3030.2031 -3016.104 -3002.1057 -2988.208 -2974.411 -2960.8154 
3294.3604 3279.0527 3263.04 3248.0347 3232.6262 3217.3186 3201.9104 3186.502 3170.993 3155.5847 3140.277 3125.3723 3110.3667 3095.3613 3053.4668 1901.6693 357.61414 -780.28564 -1743.6584 -2538.2446 3105.7341 3117.4163 3133.9324 3150.4485 3166.864 3183.2793 3199.292 3215.4053 3231.3171 3247.1282 3263.2415 3278.7505 3294.2595 -3290.1306 -3274.7222 -3259.8174 -224.57886 3299.8992 3299.8992 3299.8992 3291.1377 3275.83 3259.8174 3244.7112 3229.5044 3214.096 3198.7883 3183.1787 3167.7703 3152.4626 3137.2559 3122.2502 3107.2449 3092.0378 2971.0876 1739.9323 200.50964 -950.885 -1851.6174 -2665.1367 3101.303 3118.0205 3134.738 3151.2542 3167.7703 3183.9844 3200.0977 3216.11 3232.1228 3248.0347 3263.8457 3279.5562 3295.166 -3289.4255 -3274.118 -3258.609 398.40088 3299.8992 3299.8992 3299.8992 3288.6199 3273.3123 3257.2998 3242.395 3226.9866 3211.7798 3196.17 3180.7617 3165.454 3150.0457 3134.8389 3119.8333 3104.9285 3086.801 2840.6707 1546.2708 110.87952 -1037.9974 -1933.1909 -2788.202 3102.5115 3119.3298 3136.0474 3152.5635 3168.9788 3185.1929 3201.3062 3217.3186 3233.2305 3249.1423 3264.9536 3280.664 3296.173 -3288.3179 -3272.9094 -3257.2998 634.8633 3299.8992 3299.8992 3299.8992 3288.217 3272.9094 3256.9976 3241.8914 3226.7852 3211.377 3195.9685 3180.359 3164.9504 3149.6428 3134.5366 3119.4304 3104.727 3088.211 2904.5195 1551.5076 78.95508 -949.2737 -1940.9454 -2827.2766 3102.1086 3118.7256 3135.3423 3151.7578 3168.274 3184.4878 3200.601 3216.7144 3232.727 3248.538 3264.3494 3279.8584 3295.5688 -3288.922 -3273.6145 -3258.0046 980.5939 3299.8992 3299.8992 3299.8992 3285.901 3270.4924 3254.6814 3239.5752 3224.469 3209.0605 3193.5515 3178.1433 3162.8357 3147.4272 3132.2205 3117.2148 3102.31 
-3115.7043 -3101.1016 -3086.2976 -3071.8962 -3057.495 -3043.2952 -3029.2969 -3015.3992 -3001.5015 -2987.6038 -2762.622 -2353.4453 -1993.6157 -1740.4358 -1509.613 -1165.6952 -822.7844 -421.96655 -137.0636 73.91968 258.11462 560.44006 1589.6759 2818.9177 3299.8992 3299.8992 3299.8992 3299.8992 3299.8992 3299.8992 3299.8992 3299.8992 3299.8992 3299.8992 3299.8992 3299.8992 1393.4967 -632.9498 -2048.3 -3132.019 -3116.9128 -3102.1086 -3087.808 -3073.1047 -3058.7036 -3044.6045 -3030.5054 -3016.5068 -3002.6091 -2988.8123 -2894.9524 -2497.2563 -2135.1104 -1780.4169 -1468.927 -1147.0642 -827.01416 -477.25525 -228.8086 -68.984985 137.0636 696.4966 1799.9542 2990.1213 3299.8992 3299.8992 3299.8992 3299.8992 3299.8992 3299.8992 3299.8992 3299.8992 3299.8992 3299.8992 3299.8992 3299.8992 1279.6967 -769.6106 -2202.887 -3130.307 -3115.1 -3100.296 -3085.794 -3071.292 -3057.0923 -3042.7917 -3028.6926 -3014.795 -3000.9978 -2987.201 -2811.5662 -2434.0117 -2109.43 -1759.7717 -1276.9775 -940.4114 -568.89954 -419.54956 -214.60876 104.937744 355.9021 772.83325 1880.5206 3085.089 3299.8992 3299.8992 3299.8992 3299.8992 3299.8992 3299.8992 3299.8992 3299.8992 3299.8992 3299.8992 3299.8992 3298.1873 1187.851 -750.8789 -2183.551 -3134.9395 -3119.934 -3104.9285 -3090.4265 -3075.9246 -3061.624 -3047.3235 -3033.4258 -3019.4275 -3005.5298 -2991.7327 -2881.256 -2489.7034 -2069.4487 -1786.7615 -1548.4863 -1298.3276 -887.7411 -548.5565 -308.46863 44.714355 260.63232 595.8893 1790.8905 2901.599 3299.8992 3299.8992 3299.8992 3299.8992 3299.8992 3299.8992 3299.8992 3299.8992 3299.8992 3299.8992 3299.8992 3110.568 941.41846 -972.53723 -2388.2903 -3126.6814 -3111.676 -3096.9727 -3082.3699 -3067.868 -3053.6682 -3039.569 -3025.47 -3011.4714 -2997.6746 -2983.8774 -2842.7856 -2395.3398 -2023.2239 

-20.343018 9.768677 1.5106201 -5.9417725 1.1077881 14.300537 22.860718 36.85913 52.468872 58.410645 39.678955 19.134521 17.22107 3.9276123 -13.092041 -17.623901 -22.357178 -17.422485 -10.977173 -11.581421 -17.825317 -19.033813 -48.742676 -58.71277 -66.87012 -81.37207 -73.21472 -47.332764 -11.380005 29.608154 67.07153 46.92993 23.76709 0.20141602 -3.8269043 -1.0070801 -15.307617 -16.71753 -15.408325 7.4523926 51.663208 73.91968 75.93384 68.78357 76.33667 67.17224 53.878784 26.78833 -3.5247803 -45.217896 -82.177734 -63.546753 -35.34851 -20.443726 -4.6325684 -1.2084961 8.459473 1.2084961 -1.9134521 -3.3233643 -28.097534 -12.487793 -30.917358 -23.76709 -6.1431885 -12.487793 -6.8481445 -6.4453125 -20.846558 -33.33435 -15.609741 8.459473 0 14.401245 23.76709 9.567261 -1.0070801 -0.20141602 9.970093 35.046387 53.878784 72.10693 86.30676 89.02588 98.89526 96.47827 99.3988 67.57507 16.314697 -33.636475 -77.142334 -81.7749 -83.78906 -60.827637 -36.154175 -17.72461 15.206909 23.565674 43.606567 65.66162 65.66162 65.66162 65.66162 65.66162 65.66162 65.66162 65.66162 65.66162 65.66162 65.66162 65.66162 65.66162 65.66162 65.66162 65.66162 65.66162 65.66162 65.66162 65.66162 65.66162 -30.111694 -24.472046 -11.682129 0.10070801 -40.88745 -39.276123 -42.095947 -40.182495 -33.535767 -25.479126 -24.169922 -17.926025 18.73169 44.210815 51.864624 22.155762 -4.3304443 -15.106201 -0.20141602 0.50354004 11.279297 -4.0283203 -21.853638 -20.74585 2.6184082 19.23523 15.307617 16.113281 4.3304443 3.8269043 -3.3233643 -9.869385 20.74585 19.73877 10.675049 6.7474365 16.818237 10.574341 1.1077881 -20.74585 -38.671875 -44.51294 -42.196655 -28.701782 -22.457886 -27.392578 -27.493286 -18.73169 -5.6396484 -1.4099121 0.30212402 15.408325 22.357178 20.544434 26.28479 12.387085 21.954346 14.602661 10.372925 -9.567261 -29.80957 -23.76709 -32.629395 -9.365845 13.494873 21.148682 15.509033 6.6467285 -1.9134521 27.29187 55.792236 45.318604 4.7332764 -25.479126 -52.972412 -57.403564 -66.87012 -65.3595 -60.021973 -67.37366 -53.475952 1.2084961 68.07861 106.24695 128.70483 137.46643 126.18713 90.83862 28.601074 -20.141602 -42.196655 -37.060547 -9.365845 1.7120361 -8.660889 -21.853638 -14.199829 -14.804077 -6.0424805 -9.265137 
50.756836 54.986572 46.124268 42.700195 25.479126 2.2155762 -22.76001 -23.162842 -22.357178 -29.80957 -60.72693 -83.78906 -93.15491 -100.00305 -85.29968 -70.495605 -50.857544 -51.159668 -30.81665 -21.853638 -9.265137 7.5531006 13.192749 2.2155762 4.8339844 15.307617 31.32019 60.324097 83.99048 95.47119 104.333496 84.39331 68.984985 54.0802 51.864624 48.44055 11.984253 -2.5177002 -2.3162842 5.8410645 15.911865 -0.30212402 -48.843384 -53.57666 -53.878784 -31.924438 -23.867798 -31.118774 -24.673462 -21.450806 -27.593994 -45.620728 -41.793823 -77.948 -94.3634 -98.99597 -86.709595 -70.3949 -44.613647 -29.507446 -48.339844 -1.2084961 -2.6184082 -4.4311523 -14.300537 -28.399658 -32.93152 -27.090454 -21.652222 -11.984253 -1.4099121 15.710449 -6.0424805 -11.077881 -2.7191162 10.171509 27.593994 28.903198 32.125854 19.839478 12.387085 9.768677 14.602661 14.904785 13.796997 22.961426 23.565674 34.240723 37.86621 37.664795 25.076294 21.350098 29.30603 37.161255 64.151 65.86304 114.80713 141.69617 164.7583 163.85193 181.77795 187.82043 196.07849 202.82593 208.56628 181.87866 124.77722 68.38074 4.9346924 -53.878784 -87.51526 -93.45703 -101.312256 -129.5105 -169.7937 -179.66309 -171.80786 -166.47034 -166.36963 -144.7174 -105.84412 -80.26428 -61.6333 -57.302856 -59.417725 -69.28711 -77.84729 -108.1604 -124.575806 -122.66235 -108.966064 -76.638794 -49.749756 -30.917358 -6.6467285 -28.198242 -38.974 -40.786743 -28.500366 -15.005493 -1.3092041 -5.1361084 -12.487793 -12.890625 -7.2509766 -9.164429 -7.0495605 -1.2084961 -2.6184082 7.3516846 19.73877 23.062134 45.217896 37.46338 32.125854 25.982666 13.494873 10.070801 15.408325 16.314697 21.450806 19.033813 23.464966 17.523193 4.7332764 10.876465 16.918945 23.76709 28.701782 28.701782 28.097534 27.29187 17.120361 4.4311523 0 -1.5106201 -1.6113281 0.60424805 4.3304443 -11.883545 -5.3375244 -3.5247803 -4.5318604 11.782837 29.30603 29.910278 41.99524 66.26587 97.18323 158.71582 210.98328 252.07214 265.3656 280.67322 274.2279 258.21533 214.40735 190.23743 159.42078 98.794556 44.613647 15.408325 0 -53.878784 -91.8457 -109.16748 -131.12183 -171.20361 -192.65442 -210.27832 -228.8086 -246.93604 -228.8086 -191.1438 -144.21387 -137.76855 -102.72217 -95.773315 -88.220215 -104.333496 
-3061.322 -3047.223 -3033.2244 -1234.378 1619.989 3299.8992 3299.8992 3299.8992 3299.8992 3299.8992 3299.8992 3299.8992 3299.8992 3299.8992 3299.8992 3299.8992 3299.8992 3299.8992 3299.8992 3299.8992 3299.8992 3296.0723 3279.0527 3274.823 3292.044 -3291.4397 -3275.125 -3258.8103 -3242.697 -3226.6846 -3210.7727 -3195.0623 -3179.5532 -3164.2456 -3148.938 -3133.731 -3118.8262 -3103.9214 -3089.218 -3074.716 -3060.315 -3045.5107 -3031.311 -894.68994 2084.7563 3299.8992 3299.8992 3299.8992 3299.8992 3299.8992 3299.8992 3299.8992 3299.8992 3299.8992 3299.8992 3299.8992 3299.8992 3299.8992 3299.8992 3299.8992 3299.8992 3293.051 3276.7363 3274.118 3291.1377 -3291.8425 -3275.3264 -3258.9111 -3242.8984 -3226.7852 -3210.974 -3195.2637 -3179.7546 -3164.3462 -3149.1394 -3134.0332 -3119.0276 -3104.2236 -3089.4194 -3074.817 -3060.4155 -3046.4172 -3031.613 -823.6908 2102.481 3299.8992 3299.8992 3299.8992 3299.8992 3299.8992 3299.8992 3299.8992 3299.8992 3299.8992 3299.8992 3299.8992 3299.8992 3299.8992 3299.8992 3299.8992 3299.8992 3292.1448 3275.2258 3275.5278 3292.4468 -3290.9363 -3274.6216 -3258.307 -3242.0928 -3226.181 -3210.3699 -3194.5586 -3179.1504 -3163.742 -3148.3337 -3133.3281 -3118.3228 -3103.5186 -3088.8152 -3074.3132 -3059.7107 -3045.2087 -2974.9146 -757.72705 2103.5889 3299.8992 3299.8992 3299.8992 3299.8992 3299.8992 3299.8992 3299.8992 3299.8992 3299.8992 3299.8992 3299.8992 3299.8992 3299.8992 3299.8992 3299.8992 3299.8992 3292.6482 3275.125 3278.0457 3295.0652 -3288.4185 -3272.0032 -3255.6885 -3239.6758 -3223.5625 -3207.953 -3192.1416 -3176.6326 -3161.2244 -3146.1182 -3131.012 -3116.1072 -3101.303 -3086.5996 -3071.997 -3057.5957 -3042.9932 -2913.1804 -337.67395 2523.239 3299.8992 3299.8992 3299.8992 3299.8992 3299.8992 3299.8992 3299.8992 3299.8992 3299.8992 3299.8992 3299.8992 3299.8992 3299.8992 3299.8992 3299.8992 3299.8992 3290.634 3269.284 3278.1462 3295.0652 -3288.1165 -3271.4995 -3255.1848 -3238.971 -3223.1597 -3207.2478 -3191.6382 -3176.0283 -3160.7207 -3145.413 -3130.307 -3115.402 -3100.6987 -3085.9954 -3071.4934 -3056.9915 -3042.8923 -2726.77 -235.1532 2607.431 3299.8992 3299.8992 3299.8992 3299.8992 3299.8992 3299.8992 3299.8992 3299.8992 3299.8992 3299.8992 3299.8992 3299.8992 3299.8992 3299.8992 3299.8992 
-3117.92 -3104.0222 -2915.6982 -663.7665 1793.9117 3299.8992 3299.8992 3299.8992 3299.8992 3299.8992 3299.8992 3299.8992 3299.8992 3299.8992 3299.8992 3299.8992 3299.8992 3299.8992 3299.8992 3285.6995 3270.6938 3256.0913 3240.3809 3237.7625 3253.6743 3269.7876 3285.0952 3299.8992 -3284.2896 -3269.1833 -3254.1777 -3239.3738 -3224.6704 -3209.967 -3195.6665 -3181.2651 -3166.9646 -3152.8655 -3138.8672 -3124.9695 -3111.1724 -3097.7783 -2371.17 283.59375 2794.7478 3299.8992 3299.8992 3299.8992 3299.8992 3299.8992 3299.8992 3299.8992 3299.8992 3299.8992 3299.8992 3299.8992 3299.8992 3299.8992 3296.576 3281.6711 3266.867 3251.6602 3236.3525 3235.2446 3251.358 3267.2698 3282.5774 3297.9858 -3286.7065 -3271.701 -3256.6956 -3241.7908 -3227.188 -3212.4846 -3198.0835 -3183.783 -3169.4824 -3155.182 -3141.2842 -3127.2856 -3113.5894 -3100.0945 -2259.6863 324.07837 2545.2942 3299.8992 3299.8992 3299.8992 3299.8992 3299.8992 3299.8992 3299.8992 3299.8992 3299.8992 3299.8992 3299.8992 3299.8992 3299.8992 3294.7632 3279.8584 3264.9536 3249.8474 3234.2375 3235.0432 3251.1565 3266.9678 3282.4768 3297.6836 -3287.0085 -3271.8018 -3256.897 -3242.0928 -3227.3894 -3212.7869 -3198.285 -3183.9844 -3169.6838 -3155.5847 -3141.4856 -3127.588 -3113.7908 -3100.296 -2426.6602 199.09973 2430.487 3299.8992 3299.8992 3299.8992 3299.8992 3299.8992 3299.8992 3299.8992 3299.8992 3299.8992 3299.8992 3299.8992 3299.8992 3299.8992 3296.0723 3281.1675 3266.3635 3251.2573 3229.7058 3238.7695 3254.782 3270.6938 3286.1023 3299.8992 -3283.383 -3268.2769 -3253.2715 -3238.4673 -3223.764 -3209.262 -3194.8608 -3180.4595 -3166.159 -3152.0598 -3138.0615 -3124.1638 -3110.3667 -3096.9727 -1857.3578 869.81506 3160.5193 3299.8992 3299.8992 3299.8992 3299.8992 3299.8992 3299.8992 3299.8992 3299.8992 3299.8992 3299.8992 3299.8992 3299.8992 3299.8992 3291.641 3276.8372 3262.033 3246.9268 3107.3455 3236.6545 3252.6672 3268.4783 3283.8867 3299.1943 -3285.498 -3270.4924 -3255.5876 -3240.6829 -3225.9795 -3211.377 -3196.9756 -3182.5745 -3168.274 -3154.1748 -3140.1763 -3126.178 -3112.4817 -3099.0874 -2218.4966 190.94238 2474.7986 3299.8992 3299.8992 3299.8992 3299.8992 3299.8992 3299.8992 3299.8992 3299.8992 3299.8992 3299.8992 3299.8992 3299.8992 3299.8992 3296.475 3281.6711 
3141.1833 3116.9128 1741.4429 -43.90869 -1580.0079 -2880.4504 3145.3125 3161.325 3177.0354 3192.6453 3207.953 3223.1597 3238.4673 3253.5735 3268.579 3283.484 3298.3887 -3286.908 -3272.3052 -3257.8032 -3243.3013 -3229.0007 -3215.0024 2444.1833 3299.8992 3299.8992 3299.8992 3299.8992 3299.8992 3298.2878 3283.484 3268.7805 3253.8757 3238.971 3224.0662 3209.3628 3194.6594 3179.956 3165.3533 3150.9521 3136.7522 3114.7979 1616.3635 -364.16016 -1892.0013 -3181.1646 3145.413 3161.325 3176.532 3192.041 3207.3486 3222.5554 3237.863 3252.9692 3267.874 3282.8796 3297.6836 -3287.6128 -3272.8088 -3258.4075 -3244.0063 -3229.7058 -3215.4053 3007.846 3299.8992 3299.8992 3299.8992 3299.8992 3299.8992 3295.6694 3280.966 3266.162 3251.358 3236.4531 3221.5483 3206.7444 3192.1416 3177.3376 3162.8357 3148.5352 3134.1338 3026.2756 1364.5935 -519.4519 -1985.8612 -3272.9094 3145.9167 3161.9292 3177.6396 3193.1487 3208.5571 3223.764 3239.0715 3254.0771 3269.0825 3283.9873 3298.7915 -3286.6057 -3271.9023 -3257.2998 -3242.9993 -3228.6987 -3114.7979 3299.8992 3299.8992 3299.8992 3299.8992 3299.8992 3299.8992 3295.0652 3280.0598 3265.3564 3250.4517 3235.6475 3220.7427 3206.0393 3191.336 3176.6326 3162.1306 3147.7295 3133.3281 2955.4778 1212.2223 -686.02295 -2163.1072 3136.7522 3147.7295 3163.8428 3179.5532 3194.9614 3210.3699 3225.6775 3240.7837 3255.789 3270.7947 3285.6995 3299.8992 -3284.6924 -3270.1904 -3255.6885 -3241.1865 -3226.9866 -2934.6313 3299.8992 3299.8992 3299.8992 3299.8992 3299.8992 3299.8992 3294.461 3279.657 3264.8528 3250.0488 3235.2446 3220.3398 3205.536 3190.8325 3176.2297 3161.6272 3147.2258 3132.8247 2962.2253 1171.8384 -711.30066 -2153.0364 3156.7932 3148.4343 3163.9434 3179.3518 3194.8608 3210.1685 3225.3752 3240.5823 3255.5876 3270.5933 3285.498 3299.8992 -3284.9944 -3270.291 -3255.789 -3241.4885 -3227.188 -2716.2964 3299.8992 3299.8992 3299.8992 3299.8992 3299.8992 3299.8992 3293.1519 3278.4485 3263.745 3248.7395 3234.0361 3219.0308 3204.3274 3189.7246 3175.0212 3160.5193 3146.2188 3131.7168 2863.33 1018.05725 -875.5554 -2294.3298 3133.5295 3149.0386 3165.0513 3180.7617 3196.17 3211.5784 3226.886 3241.9922 3256.9976 3271.9023 3286.908 3299.8992 -3283.5845 -3268.982 -3254.3792 
-2947.2197 -2933.7249 -2920.23 -2262.909 -887.7411 668.19763 2101.4739 3160.1165 3299.8992 3299.8992 3299.8992 3299.8992 3299.8992 3299.8992 3299.8992 3299.8992 3299.8992 3299.8992 3299.8992 3299.8992 3299.8992 3299.8992 3299.8992 687.6343 -3173.108 -3157.3975 -3142.0898 -3126.9836 -3111.8774 -3097.174 -3082.3699 -3067.7673 -3053.2654 -3039.0654 -3024.765 -3010.6658 -2996.768 -2982.9712 -2966.0522 -2854.6692 -2734.6252 -2550.4302 -2353.949 -1222.3938 320.45288 1538.617 2656.375 3299.8992 3299.8992 3299.8992 3299.8992 3299.8992 3299.8992 3299.8992 3299.8992 3299.8992 3299.8992 3299.8992 3299.8992 3299.8992 3299.8992 3299.8992 3299.8992 -1362.8815 -3174.6184 -3158.8074 -3143.6003 -3128.4941 -3113.5894 -3098.6846 -3083.9812 -3069.3787 -3054.9773 -3040.6768 -3026.477 -3012.4785 -2998.4802 -2984.5825 -2970.9868 -2957.19 -2943.695 -2930.3008 -2917.3096 -2195.7366 -619.9585 999.22485 2560.9038 3299.8992 3299.8992 3299.8992 3299.8992 3299.8992 3299.8992 3299.8992 3299.8992 3299.8992 3299.8992 3299.8992 3299.8992 3299.8992 3299.8992 3299.8992 3299.8992 283.79517 -3174.8198 -3159.2102 -3143.8018 -3128.595 -3113.5894 -3098.6846 -3083.9812 -3069.3787 -3054.9773 -3040.7776 -3026.477 -3012.378 -2998.3794 -2984.5825 -2970.7854 -2957.19 -2943.5942 -2930.2002 -2803.308 -1496.4203 -85.09827 1226.3214 2578.8298 3299.8992 3299.8992 3299.8992 3299.8992 3299.8992 3299.8992 3299.8992 3299.8992 3299.8992 3299.8992 3299.8992 3299.8992 3299.8992 3299.8992 3299.8992 3299.8992 -435.66284 -3178.0425 -3162.5334 -3147.1252 -3132.019 -3116.9128 -3102.1086 -3087.4053 -3072.8027 -3058.3008 -3044.0002 -3029.8003 -3015.7012 -3001.703 -2987.8052 -2974.008 -2960.4126 -2946.817 -2933.322 -2917.3096 -1747.9889 -268.38684 1193.692 2460.5986 3299.8992 3299.8992 3299.8992 3299.8992 3299.8992 3299.8992 3299.8992 3299.8992 3299.8992 3299.8992 3299.8992 3299.8992 3299.8992 3299.8992 3299.8992 3299.8992 -1218.3655 -3174.0142 -3158.5051 -3143.1975 -3127.9907 -3113.086 -3098.2817 -3083.5784 -3068.9758 -3054.4739 -3040.274 -3026.0742 -3011.975 -2998.0774 -2984.1797 -2970.3826 -2956.787 -2943.2922 -2929.7974 -2746.8108 -1477.185 -71.90552 1301.1475 2627.8748 3299.8992 3299.8992 3299.8992 3299.8992 3299.8992 3299.8992 3299.8992 3299.8992 3299.8992 3299.8992 3299.8992 3299.8992 3299.8992 
3083.9812 2683.1633 1306.0822 -85.5011 -1206.3812 -2107.6172 -2831.607 3104.5256 3121.344 3137.9607 3154.3762 3170.8923 3187.0056 3203.2195 3219.1313 3235.2446 3251.056 3266.7664 3282.5774 3298.1873 -3286.5051 -3271.0967 -3256.0913 1341.33 3299.8992 3299.8992 3299.8992 3286.5051 3271.298 3255.1848 3240.1794 3225.0732 3209.6648 3194.2566 3178.7476 3163.339 3148.1323 3132.8247 3117.819 3103.0151 3085.794 2713.1743 1304.4708 -102.21863 -1229.242 -2074.3835 -2942.2852 3105.7341 3122.351 3138.9678 3155.3833 3171.8994 3188.0127 3204.126 3220.1384 3236.0503 3252.063 3267.874 3283.383 3299.0935 -3285.3972 -3270.0896 -3138.162 1837.3169 3299.8992 3299.8992 3299.8992 3284.5916 3269.4854 3253.473 3238.3667 3223.2605 3207.852 3192.4438 3176.834 3161.6272 3146.3196 3131.1125 3116.0063 3101.1016 3082.7727 2614.38 1194.0948 -249.85657 -1243.1396 -2113.5588 -2857.9924 3105.5327 3122.2502 3138.565 3155.3833 3171.5972 3187.8113 3204.0251 3220.0378 3235.8489 3251.8616 3267.4712 3283.2825 3298.892 -3285.6995 -3270.3918 -3013.385 2081.6345 3299.8992 3299.8992 3298.59 3283.1816 3267.9749 3251.9622 3236.856 3221.5483 3206.3416 3190.631 3175.3235 3160.0159 3144.7083 3129.5012 3114.4958 3099.4902 3081.3628 2631.3994 1186.441 -253.17993 -1335.086 -2191.7083 -2942.99 3104.9285 3121.8474 3138.3635 3154.8796 3171.1943 3187.509 3203.7231 3219.635 3235.5469 3251.358 3267.1692 3282.7788 3298.3887 -3286.0015 -3270.7947 -2743.689 2690.213 3299.8992 3299.8992 3295.0652 3279.7576 3264.3494 3248.538 3233.432 3218.225 3202.9175 3187.4084 3172.1008 3156.5918 3141.2842 3126.2786 3111.3738 3096.469 3077.9387 2413.2659 846.85364 -499.91455 -1511.2244 -2339.2456 -3148.938 3108.0505 3124.6672 3141.2842 3157.901 3174.115 3190.3289 3206.543 3222.4548 3238.3667 3254.1777 3269.989 3285.6995 3299.8992 -3283.2825 -3268.0754 -2539.4531 2903.8147 3299.8992 3299.8992 3296.3745 3281.067 3265.7593 3249.7466 3234.7412 3219.4336 3204.0251 3188.617 3173.2085 3157.8003 3142.5933 3127.3865 3112.4817 3097.6775 3079.651 2528.778 1051.4923 -288.22632 -1300.2411 -2143.2678 -2881.4575 3103.6194 3120.337 3137.0544 3153.4697 3169.7844 3186.099 3202.2124 3218.225 3234.137 3250.0488 3265.8599 3281.4697 3297.0793 
-1665.2069 -1540.8325 -1221.3867 -959.5459 -663.36365 -362.3474 -65.963745 201.71814 701.6327 1971.1578 3039.2668 3299.8992 3299.8992 3299.8992 3299.8992 3299.8992 3299.8992 3299.8992 3299.8992 3299.8992 3299.8992 3299.8992 2931.5093 568.396 -1102.652 -2376.5076 -3118.1213 -3103.1157 -3088.5132 -3074.2126 -3059.7107 -3045.4102 -3031.2102 -3017.3125 -3003.3142 -2989.618 -2975.8208 -2632.7087 -2193.6218 -2000.2625 -1691.0889 -1198.3246 -894.0857 -527.2064 -335.15625 -137.76855 -28.29895 97.88818 665.67993 1998.2483 3067.868 3299.8992 3299.8992 3299.8992 3299.8992 3299.8992 3299.8992 3299.8992 3299.8992 3299.8992 3299.8992 3299.8992 2919.3237 568.2953 -1094.0918 -2399.469 -3119.7327 -3104.828 -3090.1245 -3075.6226 -3061.1206 -3046.7192 -3032.62 -3018.7224 -3004.8247 -2990.927 -2977.2307 -2800.3875 -2335.8215 -1874.176 -1573.4619 -1354.5227 -979.9896 -542.0105 -221.75903 18.630981 232.7362 354.19006 850.98267 2127.8594 3115.7043 3299.8992 3299.8992 3299.8992 3299.8992 3299.8992 3299.8992 3299.8992 3299.8992 3299.8992 3299.8992 3299.8992 2785.2812 496.38977 -1171.3348 -2606.6252 -3122.351 -3107.3455 -3092.743 -3078.241 -3063.739 -3049.237 -3035.2385 -3021.2402 -3007.3425 -2993.344 -2975.418 -2583.3618 -2178.4148 -1781.9275 -1486.4502 -1473.056 -1182.5134 -1003.2532 -754.2023 -473.12622 2.9205322 387.4237 1031.4514 2315.579 3238.3667 3299.8992 3299.8992 3299.8992 3299.8992 3299.8992 3299.8992 3299.8992 3299.8992 3299.8992 3299.8992 3299.8992 2711.7644 407.4646 -1262.677 -2576.9165 -3119.6318 -3104.727 -3090.0237 -3075.5217 -3061.0198 -3046.82 -3032.8215 -3018.7224 -3004.8247 -2991.0278 -2977.3315 -2721.7346 -2375.3997 -2123.0254 -1691.2903 -1499.9451 -1168.8171 -659.3353 -315.6189 -58.71277 278.96118 604.5502 1252.002 2521.527 3299.8992 3299.8992 3299.8992 3299.8992 3299.8992 3299.8992 3299.8992 3299.8992 3299.8992 3299.8992 3299.8992 3299.8992 2576.8157 233.9447 -1413.4369 -2671.7834 -3121.0417 -3106.137 -3091.4336 -3076.9316 -3062.5305 -3048.23 -3034.1309 -3020.1323 -3006.3354 -2992.4377 -2978.7415 -2964.1387 -2567.349 -2229.8767 -1907.6111 -1693.4052 -1328.1372 -821.77734 -466.88232 -125.28076 192.95654 557.4188 1198.7274 2438.8457 3299.8992 3299.8992 3299.8992 3299.8992 3299.8992 3299.8992 3299.8992 3299.8992 3299.8992 3299.8992 

-4.5318604 -10.574341 -27.392578 -51.361084 -59.1156 -50.152588 -20.343018 -18.832397 -21.551514 -9.869385 15.811157 25.177002 25.378418 22.659302 23.76709 22.055054 10.675049 -4.5318604 -33.43506 -40.88745 -26.586914 -15.710449 5.8410645 14.199829 -1.0070801 1.7120361 2.8198242 15.206909 20.443726 12.588501 10.272217 4.7332764 -5.3375244 -7.0495605 -8.358765 -8.963013 -0.80566406 2.5177002 5.9417725 10.372925 16.314697 6.0424805 -17.22107 -10.977173 0.9063721 -1.4099121 -6.2438965 -11.380005 -20.645142 -30.31311 -28.500366 -23.162842 -13.494873 -12.689209 7.3516846 10.876465 19.23523 13.796997 -8.761597 -20.141602 -18.026733 -26.78833 -9.265137 7.6538086 13.595581 15.911865 11.380005 1.5106201 -3.6254883 7.1502686 36.254883 59.518433 55.08728 45.318604 23.26355 2.6184082 -12.286377 -16.71753 -29.80957 -62.64038 -77.34375 -65.86304 -10.675049 44.110107 53.57666 45.117188 49.649048 78.25012 80.36499 76.538086 63.446045 54.986572 53.274536 58.410645 43.40515 -19.940186 -51.965332 -43.606567 -20.74585 6.1431885 30.212402 8.862305 -18.026733 -51.663208 -83.688354 -69.992065 -61.331177 -52.166748 -18.22815 2.7191162 9.869385 15.206909 23.26355 36.35559 23.565674 4.0283203 -13.796997 -7.4523926 -6.3446045 -19.134521 -18.127441 -16.818237 -12.588501 -19.033813 -15.106201 -19.638062 -12.185669 -22.558594 -29.406738 -21.652222 -16.21399 -10.775757 -23.867798 -33.233643 -18.429565 -2.4169922 11.581421 12.689209 17.926025 31.521606 31.521606 31.521606 31.521606 31.521606 31.521606 31.521606 31.521606 31.521606 31.521606 31.521606 31.521606 31.521606 31.521606 31.521606 31.521606 31.521606 31.521606 31.521606 31.521606 31.521606 31.521606 31.521606 31.521606 31.521606 31.521606 31.521606 31.521606 31.521606 31.521606 31.521606 31.521606 31.521606 31.521606 31.521606 31.521606 31.521606 31.521606 31.521606 31.521606 31.521606 -11.883545 -22.961426 -16.314697 1.1077881 21.24939 31.82373 30.81665 32.125854 49.0448 18.22815 -14.199829 -22.055054 -20.947266 -11.380005 4.0283203 17.523193 15.710449 12.789917 23.162842 7.3516846 
-101.11084 -91.04004 -82.88269 -69.08569 -65.56091 -59.417725 -38.067627 -24.874878 -17.321777 -2.7191162 7.5531006 5.5389404 -0.80566406 -9.869385 -11.077881 -20.846558 -31.118774 -19.638062 3.6254883 4.3304443 27.996826 25.680542 39.779663 37.564087 36.4563 26.889038 31.82373 27.493286 30.31311 15.911865 -11.178589 -8.761597 -20.040894 -9.768677 -6.1431885 -21.450806 1.7120361 -18.933105 -11.782837 -8.660889 -4.6325684 -9.164429 -17.019653 -10.473633 -4.0283203 2.5177002 5.2368164 8.660889 11.883545 24.572754 36.35559 54.483032 61.532593 67.67578 95.67261 93.96057 105.23987 130.31616 163.34839 155.19104 158.31299 130.31616 127.597046 120.84961 90.5365 39.88037 3.3233643 3.2226562 20.947266 10.473633 -10.070801 -27.79541 -33.9386 -38.571167 -35.549927 -36.254883 -30.010986 -71.80481 -57.907104 -41.793823 -10.977173 0.50354004 1.9134521 23.162842 23.76709 -5.4382324 -66.76941 -104.13208 -135.45227 -151.06201 -137.36572 -87.11243 -33.43506 -6.7474365 -11.984253 -18.22815 -45.822144 -49.649048 -54.281616 -80.163574 -55.792236 -40.98816 -5.2368164 -2.2155762 -17.523193 1.8127441 -3.4240723 3.4240723 9.768677 9.265137 -6.2438965 5.7403564 5.7403564 21.652222 -5.3375244 -16.71753 -16.012573 -31.521606 -23.968506 -36.154175 -29.708862 -34.44214 -15.710449 -1.8127441 2.5177002 7.3516846 4.6325684 -1.1077881 -12.991333 1.9134521 16.71753 33.737183 25.076294 21.047974 25.177002 16.616821 18.630981 30.615234 37.765503 33.9386 53.475952 52.972412 60.72693 43.40515 41.592407 43.606567 41.793823 37.261963 20.141602 -6.4453125 -33.737183 -27.996826 -34.140015 -39.88037 -11.178589 11.279297 40.585327 49.145508 72.9126 72.006226 74.82605 69.1864 58.10852 59.317017 50.05188 35.44922 20.544434 -5.0354004 -36.557007 -45.721436 -41.088867 -47.53418 -45.620728 -31.118774 -35.85205 -23.464966 -27.996826 -22.961426 -9.365845 1.1077881 11.883545 -11.682129 -21.551514 -29.708862 -36.557007 -31.219482 -29.910278 -24.472046 -23.867798 -28.500366 -29.507446 -15.710449 -16.314697 -13.998413 -18.530273 -5.5389404 -11.782837 -40.283203 -27.090454 -39.88037 
3299.8992 3289.8284 3215.7073 3279.2542 3296.173 -3287.3108 -3270.996 -3254.782 -3238.6687 -3222.7568 -3206.845 -3191.1345 -3175.7263 -3160.3179 -3145.2117 -3130.1055 -3115.1 -3100.3967 -3085.6934 -3071.1914 -3056.79 -3042.0867 -2818.112 -119.94324 2839.7644 3299.8992 3299.8992 3299.8992 3299.8992 3299.8992 3299.8992 3299.8992 3299.8992 3299.8992 3299.8992 3299.8992 3299.8992 3299.8992 3299.8992 3299.8992 3299.8992 3289.0227 2920.1294 3280.664 3297.7844 -3285.5986 -3269.0825 -3252.6672 -3236.554 -3220.642 -3204.9316 -3189.2212 -3173.7122 -3158.4045 -3143.1975 -3128.1921 -3113.2874 -3098.4832 -3083.7798 -3069.1772 -3054.776 -3040.8782 -2629.0833 84.695435 2907.7422 3299.8992 3299.8992 3299.8992 3299.8992 3299.8992 3299.8992 3299.8992 3299.8992 3299.8992 3299.8992 3299.8992 3299.8992 3299.8992 3299.8992 3299.8992 3299.8992 3288.7207 2506.2195 3282.8796 3299.7986 -3283.786 -3267.4712 -3251.2573 -3235.144 -3219.1313 -3203.421 -3187.8113 -3172.4028 -3157.0952 -3141.8884 -3126.7822 -3111.8774 -3097.174 -3082.4707 -3067.9688 -3053.5674 -3038.9648 -2360.5957 392.76123 3299.8992 3299.8992 3299.8992 3299.8992 3299.8992 3299.8992 3299.8992 3299.8992 3299.8992 3299.8992 3299.8992 3299.8992 3299.8992 3299.8992 3299.8992 3299.8992 3299.8992 3286.5051 2099.762 3282.2754 3299.0935 -3284.3901 -3268.0754 -3251.8616 -3235.8489 -3219.8364 -3204.126 -3188.516 -3173.007 -3157.6995 -3142.4927 -3127.487 -3112.4817 -3097.7783 -3083.075 -3068.573 -3054.071 -3039.569 -2211.6484 609.8877 3299.8992 3299.8992 3299.8992 3299.8992 3299.8992 3299.8992 3299.8992 3299.8992 3299.8992 3299.8992 3299.8992 3299.8992 3299.8992 3299.8992 3299.8992 3299.8992 3299.8992 3283.8867 1384.9365 3282.074 3298.892 -3284.2896 -3267.7734 -3251.6602 -3235.446 -3219.635 -3203.7231 -3188.214 -3172.6042 -3157.2966 -3142.0898 -3127.0842 -3112.1794 -3097.476 -3082.7727 -3068.2708 -3053.8696 -3039.972 -2115.573 611.70044 3299.8992 3299.8992 3299.8992 3299.8992 3299.8992 3299.8992 3299.8992 3299.8992 3299.8992 3299.8992 3299.8992 3299.8992 3299.8992 3299.8992 3299.8992 3299.8992 
3266.6655 3251.4587 2869.2717 3243.3013 3259.2131 3275.0244 3290.5334 3299.8992 -3279.0527 -3264.047 -3249.1423 -3234.439 -3219.635 -3205.0322 -3190.631 -3176.3306 -3162.1306 -3148.1323 -3134.1338 -3120.236 -3106.4392 -3093.045 -1631.4697 865.78674 3115.6035 3299.8992 3299.8992 3299.8992 3299.8992 3299.8992 3299.8992 3299.8992 3299.8992 3299.8992 3299.8992 3299.8992 3299.8992 3299.8992 3294.6624 3279.7576 3264.8528 3249.7466 2553.5522 3243.0999 3259.0117 3274.4202 3290.1306 3299.8992 -3279.4556 -3264.3494 -3249.4446 -3234.6404 -3219.8364 -3205.435 -3190.8325 -3176.6326 -3162.332 -3148.3337 -3134.2346 -3120.337 -3106.7412 -3092.8435 -1773.8708 825.3021 3080.8594 3299.8992 3299.8992 3299.8992 3299.8992 3299.8992 3299.8992 3299.8992 3299.8992 3299.8992 3299.8992 3299.8992 3299.8992 3299.8992 3295.2666 3280.2612 3265.3564 3250.7537 1984.3506 3246.121 3262.033 3277.3406 3293.1519 3299.8992 -3276.535 -3261.4287 -3246.4233 -3231.72 -3217.218 -3202.5146 -3188.0127 -3173.8127 -3159.613 -3145.514 -3131.6162 -3117.7185 -3103.9214 -3090.1245 -1495.7153 1153.3081 3299.8992 3299.8992 3299.8992 3299.8992 3299.8992 3299.8992 3299.8992 3299.8992 3299.8992 3299.8992 3299.8992 3299.8992 3299.8992 3299.8992 3293.8567 3278.952 3264.148 3249.3438 1586.9568 3246.222 3262.1338 3277.542 3293.2524 3299.8992 -3276.3335 -3261.2273 -3246.3225 -3231.6191 -3217.0166 -3202.4138 -3187.9119 -3173.7122 -3159.5122 -3145.413 -3131.5154 -3117.6177 -3103.9214 -3090.0237 -1582.8278 1096.7102 3299.8992 3299.8992 3299.8992 3299.8992 3299.8992 3299.8992 3299.8992 3299.8992 3299.8992 3299.8992 3299.8992 3299.8992 3299.8992 3299.8992 3295.0652 3280.1604 3265.457 3250.5522 1080.3955 3249.2432 3264.9536 3280.3618 3296.0723 -3288.6199 -3273.413 -3258.4075 -3243.6035 -3228.7993 -3214.1968 -3199.594 -3185.2935 -3171.0938 -3156.8938 -3142.694 -3128.7964 -3115.1 -3101.2024 -3087.506 -1106.3782 1438.916 3299.8992 3299.8992 3299.8992 3299.8992 3299.8992 3299.8992 3299.8992 3299.8992 3299.8992 3299.8992 3299.8992 3299.8992 3299.8992 3299.8992 3293.2524 3278.4485 
-3240.1794 -3225.879 -2485.675 3299.8992 3299.8992 3299.8992 3299.8992 3299.8992 3299.8992 3292.2454 3277.542 3262.738 3247.8333 3233.029 3218.1243 3203.421 3188.8184 3174.3164 3159.8145 3145.2117 3130.5083 2585.8794 620.66345 -1126.0162 -2402.7922 3139.1692 3153.1677 3168.8782 3184.1858 3199.4934 3214.9016 3230.0078 3245.2148 3260.321 3275.2258 3290.0298 3299.8992 -3280.5632 -3265.8599 -3251.358 -3236.9568 -3222.7568 -2081.0303 3299.8992 3299.8992 3299.8992 3299.8992 3299.8992 3299.8992 3293.9575 3279.1533 3264.45 3249.5452 3234.6404 3219.7356 3204.8308 3190.3289 3175.7263 3161.1235 3146.7224 3132.2205 2668.8628 738.5925 -994.08875 -2353.949 3137.0544 3152.5635 3168.576 3184.1858 3199.6948 3214.9016 3230.1086 3245.3154 3260.5225 3275.3264 3290.2312 3299.8992 -3280.2612 -3265.6584 -3251.1565 -3236.856 -3222.5554 -1808.1116 3299.8992 3299.8992 3299.8992 3299.8992 3299.8992 3299.8992 3292.1448 3277.3406 3262.5366 3247.7324 3232.8276 3217.9229 3203.2195 3188.4155 3173.9136 3159.3108 3145.0103 3129.7026 2713.4766 746.1456 -1067.5049 -2507.2266 3136.5508 3152.8655 3168.576 3183.783 3199.0906 3214.5996 3229.7058 3244.812 3259.9182 3274.9236 3289.7278 3299.8992 -3280.7646 -3266.162 -3251.7607 -3237.3596 -3223.059 -1242.2333 3299.8992 3299.8992 3299.8992 3299.8992 3299.8992 3299.8992 3289.8284 3275.0244 3260.2202 3245.3154 3230.4106 3215.6067 3200.9033 3186.3005 3171.4966 3157.196 3142.8955 3125.171 2331.5918 339.4867 -1342.5385 -2651.8433 3139.7734 3155.182 3171.0938 3186.8042 3202.3132 3217.3186 3232.727 3247.8333 3262.9395 3277.9448 3292.6482 -3292.5476 -3277.8442 -3263.2415 -3248.8403 -3234.5398 -3220.2393 -795.0897 3299.8992 3299.8992 3299.8992 3299.8992 3299.8992 3299.8992 3290.332 3275.4272 3260.623 3245.819 3231.015 3216.11 3201.3062 3186.7034 3172.1008 3157.6995 3143.2983 3127.487 2515.988 500.01526 -1198.0225 -2535.8276 3137.4573 3152.8655 3168.8782 3184.4878 3199.8962 3215.3044 3230.4106 3245.6177 3260.623 3275.6287 3290.332 3299.8992 -3280.0598 -3265.457 -3251.056 
3299.8992 3299.8992 3299.8992 -1673.0621 -3172.705 -3157.2966 -3141.989 -3126.7822 -3111.8774 -3096.9727 -3082.3699 -3067.7673 -3053.2654 -3039.0654 -3024.8657 -3010.7666 -2996.869 -2982.9712 -2969.174 -2955.5786 -2942.0837 -2928.6895 -2733.1145 -1309.2041 158.61511 1579.7058 2729.8918 3299.8992 3299.8992 3299.8992 3299.8992 3299.8992 3299.8992 3299.8992 3299.8992 3299.8992 3299.8992 3299.8992 3299.8992 3299.8992 3299.8992 3299.8992 3299.8992 -1949.1028 -3173.7122 -3158.2031 -3142.8955 -3127.6885 -3112.8845 -3097.9797 -3083.2764 -3068.573 -3054.2725 -3040.0725 -3025.772 -3011.7737 -2997.6746 -2983.8774 -2970.1812 -2956.4849 -2942.99 -2929.596 -2671.582 -1230.249 265.86914 1464.5966 2665.4387 3299.8992 3299.8992 3299.8992 3299.8992 3299.8992 3299.8992 3299.8992 3299.8992 3299.8992 3299.8992 3299.8992 3299.8992 3299.8992 3299.8992 3299.8992 3299.8992 -2163.7114 -3173.9136 -3158.5051 -3143.1975 -3127.9907 -3113.086 -3098.1812 -3083.5784 -3068.9758 -3054.5745 -3040.1733 -3026.0742 -3011.975 -2998.0774 -2984.2803 -2970.4834 -2956.8877 -2943.2922 -2929.898 -2781.5552 -1382.4188 185.70557 1519.8853 2783.267 3299.8992 3299.8992 3299.8992 3299.8992 3299.8992 3299.8992 3299.8992 3299.8992 3299.8992 3299.8992 3299.8992 3299.8992 3299.8992 3299.8992 3299.8992 3177.0354 -2830.5999 -3170.691 -3155.081 -3139.7734 -3124.6672 -3109.8633 -3094.9585 -3080.3557 -3065.7532 -3051.4526 -3037.152 -3022.9521 -3008.853 -2994.8547 -2981.1584 -2967.4622 -2953.8665 -2940.271 -2926.8767 -2875.8179 -1578.2959 -150.05493 1325.5188 2651.8433 3299.8992 3299.8992 3299.8992 3299.8992 3299.8992 3299.8992 3299.8992 3299.8992 3299.8992 3299.8992 3299.8992 3299.8992 3299.8992 3299.8992 3299.8992 2996.1638 -3030.0017 -3162.4329 -3146.823 -3131.6162 -3116.51 -3101.8066 -3087.0024 -3072.299 -3057.797 -3043.396 -3029.196 -3015.097 -3001.0986 -2987.201 -2973.5046 -2959.7075 -2946.2126 -2932.7178 -2919.3237 -2375.1982 -868.20374 573.5321 1867.1265 3106.842 3299.8992 3299.8992 3299.8992 3299.8992 3299.8992 3299.8992 3299.8992 3299.8992 3299.8992 3299.8992 3299.8992 3299.8992 3299.8992 
-3287.4114 -3272.1038 -2317.2913 3244.2078 3299.8992 3299.8992 3290.5334 3275.125 3259.9182 3244.0063 3229.0007 3213.794 3198.3855 3182.9773 3167.5688 3152.1606 3137.155 3121.8474 3106.9426 3092.0378 3072.6013 2258.8806 740.00244 -566.68396 -1543.9545 -2395.944 -3142.3918 3106.0364 3122.8545 3139.27 3155.8867 3172.2014 3188.3147 3204.5288 3220.4407 3236.3525 3252.2644 3267.9749 3283.5845 3299.295 -3285.3972 -3269.8882 -1939.7369 3299.8992 3299.8992 3299.8992 3290.1306 3274.7222 3259.5154 3243.6035 3228.598 3213.391 3197.9827 3182.675 3167.166 3151.7578 3136.6516 3121.646 3106.7412 3091.8364 3072.8027 2325.4485 697.1008 -646.5454 -1637.0087 -2435.2202 -3197.2778 3106.4392 3123.3582 3139.7734 3156.2896 3172.6042 3188.8184 3204.9316 3220.8435 3236.7554 3252.6672 3268.4783 3284.2896 3299.5972 -3284.793 -3269.5862 -1743.5577 3299.8992 3299.8992 3299.8992 3289.627 3274.118 3259.0117 3242.9993 3227.893 3212.8875 3197.2778 3181.8694 3166.4612 3151.1536 3136.0474 3120.8403 3106.0364 3091.0308 2997.876 1909.6252 344.01855 -797.3053 -1757.1533 -2587.793 3291.742 3112.5823 3129.1992 3145.6145 3162.03 3178.5461 3194.5586 3210.7727 3226.6846 3242.4956 3258.4075 3274.0173 3289.7278 3299.8992 -3279.2542 -3264.047 -1368.5211 3299.8992 3299.8992 3299.8992 3292.749 3277.3406 3262.2344 3246.0205 3231.1157 3215.9087 3200.3997 3184.9915 3169.4824 3154.1748 3138.8672 3123.8616 3108.8562 3093.9514 3034.4329 1980.5237 395.78247 -827.01416 -1773.0652 -2523.239 -3143.9026 3113.8916 3130.6091 3147.2258 3163.742 3179.8552 3196.0693 3212.1826 3228.0945 3244.0063 3259.9182 3275.6287 3291.2383 3299.8992 -3277.8442 -3262.6372 -1037.5946 3299.8992 3299.8992 3299.8992 3292.3462 3277.0386 3261.731 3245.819 3230.612 3215.4053 3199.9968 3184.4878 3169.1802 3153.772 3138.6658 3123.6602 3108.6548 3093.6492 3020.938 1932.1838 367.2821 -826.5106 -1795.6238 -2645.7 -3270.4924 3115.3015 3131.9182 3148.5352 3164.9504 3181.2651 3197.3784 3213.4917 3229.5044 3245.4163 3261.2273 3276.8372 3292.4468 -3292.044 
3299.8992 3299.8992 2323.5352 88.32092 -1461.676 -2718.2097 -3112.0789 -3097.174 -3082.5713 -3068.1702 -3053.7688 -3039.3677 -3025.3691 -3011.3708 -2997.4731 -2983.7769 -2968.3684 -2628.9824 -2270.9656 -1907.1075 -1659.8694 -1316.9586 -955.719 -528.1128 -205.64575 39.276123 330.12085 587.83264 1320.282 2698.7732 3299.8992 3299.8992 3299.8992 3299.8992 3299.8992 3299.8992 3299.8992 3299.8992 3299.8992 3299.8992 3299.8992 3299.8992 2226.8555 -3.4240723 -1565.4053 -2836.441 -3116.812 -3102.008 -3087.3047 -3072.8027 -3058.4014 -3044.1008 -3030.0017 -3015.9026 -3002.2063 -2988.3086 -2878.2349 -2489.1997 -2144.275 -1815.0604 -1547.0764 -1072.0367 -589.8468 -282.8888 -102.01721 -95.06836 60.021973 427.90833 1096.8109 2372.6807 3299.8992 3299.8992 3299.8992 3299.8992 3299.8992 3299.8992 3299.8992 3299.8992 3299.8992 3299.8992 3299.8992 3299.8992 1929.0619 -267.58118 -1728.0487 -2928.9917 -3117.6177 -3102.713 -3088.1104 -3073.709 -3059.207 -3044.9065 -3030.8074 -3016.809 -3002.9114 -2989.1143 -2954.0679 -2585.376 -2229.4739 -2025.3387 -1823.822 -1576.5839 -1192.4835 -727.71606 -408.37097 -176.94397 -21.350098 248.74878 1192.4835 2559.3933 3299.8992 3299.8992 3299.8992 3299.8992 3299.8992 3299.8992 3299.8992 3299.8992 3299.8992 3299.8992 3299.8992 3299.8992 2014.8651 -153.68042 -1594.0063 -2788.0005 -3110.266 -3095.462 -3080.8594 -3066.2566 -3051.956 -3037.857 -3023.6572 -3009.7595 -2995.9624 -2982.1655 -2903.311 -2414.5752 -2079.016 -1782.2296 -1511.9293 -1216.2506 -906.06995 -494.77844 -178.5553 14.501953 302.22473 612.204 1487.4573 2758.9966 3299.8992 3299.8992 3299.8992 3299.8992 3299.8992 3299.8992 3299.8992 3299.8992 3299.8992 3299.8992 3299.8992 3299.8992 2123.6296 25.680542 -1497.226 -2807.135 -3120.1355 -3105.2307 -3090.628 -3076.0254 -3061.7249 -3047.3235 -3033.3252 -3019.3267 -3005.429 -2991.5312 -2866.7542 -2452.542 -2141.9585 -1854.8401 -1647.0795 -1379.8004 -1094.0918 -698.3093 -473.9319 -174.52698 122.15881 571.2158 1517.1661 2633.615 3299.8992 3299.8992 3299.8992 3299.8992 3299.8992 3299.8992 3299.8992 3299.8992 3299.8992 3299.8992 

-6.2438965 -34.34143 -59.014893 -47.232056 -26.486206 -16.516113 -9.869385 -8.660889 -0.10070801 12.689209 16.21399 10.070801 1.8127441 -15.005493 -22.961426 -1.2084961 16.21399 25.881958 36.053467 49.44763 73.013306 84.79614 48.843384 -3.0212402 -39.47754 -36.657715 -24.27063 11.782837 51.260376 82.681274 89.730835 79.660034 50.958252 40.686035 29.80957 -10.272217 -73.41614 -109.77173 -135.55298 -123.568726 -113.90076 -90.5365 -83.78906 -78.25012 -61.935425 -38.571167 -16.21399 -24.472046 -20.544434 3.7261963 6.2438965 -9.869385 -36.154175 -38.47046 -6.5460205 36.557007 67.17224 90.13367 113.59863 120.84961 121.75598 115.41138 65.56091 21.954346 1.9134521 -14.602661 7.5531006 36.95984 69.38782 35.046387 -16.113281 -42.49878 -42.196655 -46.124268 -45.318604 -10.574341 13.394165 4.3304443 -35.650635 -56.396484 -51.663208 -53.17383 -53.274536 -46.224976 -42.800903 -29.406738 -29.708862 -28.80249 -11.480713 30.514526 55.490112 74.523926 76.43738 53.57666 23.162842 22.25647 36.4563 66.6687 67.17224 24.27063 -34.84497 -97.08252 -112.59155 -72.006226 -16.012573 16.415405 15.106201 8.258057 -6.2438965 -10.775757 -15.408325 -6.2438965 -14.804077 -23.464966 -13.192749 -7.5531006 -5.0354004 -8.761597 -6.0424805 10.272217 31.118774 22.357178 8.157349 -9.466553 -20.74585 -13.696289 2.4169922 28.399658 37.161255 33.737183 5.1361084 -14.300537 -12.890625 -4.1290283 -9.466553 -25.680542 -49.346924 -57.403564 -61.935425 -47.53418 -45.92285 -38.168335 -27.79541 -12.991333 -1.9134521 -7.7545166 2.0141602 18.530273 39.98108 33.33435 29.104614 19.134521 16.21399 10.977173 1.7120361 13.696289 26.28479 2.1148682 30.81665 34.34143 50.253296 23.76709 -7.8552246 -24.169922 -25.982666 -34.240723 -50.454712 -52.267456 -30.010986 4.0283203 -13.796997 -56.799316 -69.08569 -33.33435 -7.7545166 8.963013 33.43506 67.8772 94.06128 89.730835 89.730835 89.730835 89.730835 89.730835 89.730835 89.730835 89.730835 89.730835 89.730835 89.730835 89.730835 89.730835 89.730835 89.730835 89.730835 89.730835 89.730835 89.730835 89.730835 89.730835 
-36.4563 -42.297363 -40.48462 -27.392578 -16.918945 -1.8127441 6.3446045 5.0354004 -0.40283203 23.364258 37.96692 50.656128 61.73401 57.70569 74.12109 78.35083 80.56641 79.2572 83.08411 57.10144 76.23596 70.19348 74.92676 35.44922 4.3304443 -15.509033 -16.918945 -0.50354004 20.040894 6.8481445 -8.660889 24.069214 22.659302 31.018066 39.175415 43.103027 40.081787 28.198242 43.00232 55.792236 57.60498 22.457886 -13.595581 -46.325684 -53.17383 -55.59082 -57.403564 -65.460205 -79.76074 -51.159668 -12.084961 -1.9134521 -18.530273 -10.574341 9.768677 23.062134 7.4523926 -6.4453125 -5.8410645 -33.33435 -72.509766 -112.490845 -115.81421 -123.2666 -99.49951 -43.304443 3.9276123 30.31311 45.318604 23.867798 -0.10070801 -5.7403564 -17.825317 -24.673462 -28.097534 -21.350098 -40.081787 -49.850464 -74.62463 -76.638794 -37.46338 -19.033813 -6.0424805 18.22815 47.131348 56.69861 53.475952 32.83081 10.171509 14.099121 3.3233643 11.480713 13.998413 21.350098 14.703369 -0.80566406 -10.675049 -6.4453125 0 -12.487793 -9.063721 -33.535767 -7.5531006 13.394165 26.889038 40.182495 48.138428 60.424805 55.18799 25.27771 -16.818237 -11.984253 -42.599487 -60.324097 -65.86304 -57.60498 -56.69861 -77.545166 -77.84729 -78.45154 -45.41931 -48.742676 -45.721436 -36.758423 -29.80957 -23.968506 -5.8410645 4.2297363 7.1502686 20.24231 9.768677 5.5389404 5.4382324 9.768677 4.3304443 -8.862305 -6.2438965 0.50354004 -2.5177002 2.2155762 7.8552246 17.422485 14.099121 16.616821 31.32019 38.87329 39.98108 51.461792 60.827637 33.33435 19.73877 31.622314 27.29187 32.42798 27.79541 29.406738 16.71753 6.0424805 41.088867 32.528687 53.57666 74.2218 97.18323 126.38855 149.45068 160.42786 167.47742 152.87476 142.90466 131.32324 82.37915 14.703369 -41.99524 -45.92285 -28.399658 -46.5271 -67.8772 -96.98181 -122.25952 -158.21228 -119.33899 -98.0896 -55.993652 -60.525513 -50.152588 -38.269043 -24.371338 -1.9134521 6.8481445 -6.5460205 -24.169922 -1.5106201 -31.219482 -18.530273 -32.226562 -33.636475 -46.42639 -48.239136 -60.62622 -76.43738 
3299.6978 3283.8867 832.95593 3283.6853 3299.8992 -3283.081 -3266.867 -3250.5522 -3234.439 -3218.7285 -3202.9175 -3187.207 -3171.7986 -3156.491 -3141.2842 -3126.178 -3111.2732 -3096.5698 -3081.967 -3067.465 -3052.9631 -3038.4612 -2219.1008 451.474 3189.8254 3299.8992 3299.8992 3299.8992 3299.8992 3299.8992 3299.8992 3299.8992 3299.8992 3299.8992 3299.8992 3299.8992 3299.8992 3299.8992 3299.8992 3299.8992 3299.8992 3286.4043 133.13599 3288.1165 3299.8992 -3278.4485 -3261.9324 -3245.7183 -3229.7058 -3213.794 -3198.0835 -3182.4736 -3167.0654 -3151.7578 -3136.6516 -3121.5454 -3106.7412 -3092.0378 -3077.3345 -3062.8325 -3048.532 -3034.6343 -2135.5132 663.26294 3299.8992 3299.8992 3299.8992 3299.8992 3299.8992 3299.8992 3299.8992 3299.8992 3299.8992 3299.8992 3299.8992 3299.8992 3299.8992 3299.8992 3299.8992 3299.8992 3299.8992 3288.0156 -727.71606 3292.2454 -3290.8354 -3274.5208 -3258.307 -3242.1936 -3226.0803 -3210.269 -3194.5586 -3179.0496 -3163.6414 -3148.3337 -3133.1267 -3118.222 -3103.418 -3088.7146 -3074.1118 -3059.7107 -3045.3093 -3030.7068 -1850.5096 919.4641 3299.8992 3299.8992 3299.8992 3299.8992 3299.8992 3299.8992 3299.8992 3299.8992 3299.8992 3299.8992 3299.8992 3299.8992 3299.8992 3299.8992 3299.8992 3299.8992 3299.8992 3288.8213 -1423.407 3294.2595 -3289.0227 -3272.3052 -3255.89 -3239.6758 -3223.764 -3207.7515 -3192.2424 -3176.6326 -3161.2244 -3146.0173 -3130.9111 -3115.9058 -3101.2024 -3086.499 -3071.8962 -3057.3943 -3043.0938 -3029.196 -1920.8038 886.5326 3299.8992 3299.8992 3299.8992 3299.8992 3299.8992 3299.8992 3299.8992 3299.8992 3299.8992 3299.8992 3299.8992 3299.8992 3299.8992 3299.8992 3299.8992 3299.8992 3299.8992 3290.7349 -2442.3706 3298.7915 -3284.3901 -3267.6726 -3251.2573 -3235.144 -3219.1313 -3203.2195 -3187.7104 -3172.2014 -3156.7932 -3141.5862 -3126.5808 -3111.676 -3096.7712 -3082.1685 -3067.566 -3053.1646 -3038.9648 -3025.2686 -1403.8696 1729.8615 3299.8992 3299.8992 3299.8992 3299.8992 3299.8992 3299.8992 3299.8992 3299.8992 3299.8992 3299.8992 3299.8992 3299.8992 3299.8992 3299.8992 3299.8992 3299.8992 
3263.5437 3248.639 350.8667 3249.5452 3265.457 3280.8655 3296.475 -3288.1165 -3273.0103 -3258.1055 -3243.0999 -3228.4973 -3213.794 -3199.1912 -3184.79 -3170.59 -3156.3904 -3142.3918 -3128.4941 -3114.5964 -3100.9001 -3087.1033 -1035.7819 1521.4966 3299.8992 3299.8992 3299.8992 3299.8992 3299.8992 3299.8992 3299.8992 3299.8992 3299.8992 3299.8992 3299.8992 3299.8992 3299.8992 3299.8992 3292.6482 3277.7434 3262.9395 3247.6318 -375.54016 3250.955 3266.867 3282.6782 3297.9858 -3286.8071 -3271.701 -3256.5947 -3241.69 -3227.0874 -3212.4846 -3197.882 -3183.5815 -3169.3816 -3155.182 -3141.1833 -3127.185 -3113.4888 -3099.6917 -3086.1968 -863.26904 1711.2305 3299.8992 3299.8992 3299.8992 3299.8992 3299.8992 3299.8992 3299.8992 3299.8992 3299.8992 3299.8992 3299.8992 3299.8992 3299.8992 3299.8992 3291.8425 3277.0386 3261.9324 3246.7253 -860.1471 3251.6602 3267.3706 3283.1816 3298.4893 -3286.3037 -3271.1975 -3256.192 -3241.287 -3226.5837 -3211.9812 -3197.4792 -3183.078 -3168.8782 -3154.779 -3140.68 -3126.6814 -3112.8845 -3099.1882 -2925.4668 -252.27356 2126.8523 3299.8992 3299.8992 3299.8992 3299.8992 3299.8992 3299.8992 3299.8992 3299.8992 3299.8992 3299.8992 3299.8992 3299.8992 3299.8992 3299.8992 3287.21 3272.3052 3257.2998 3241.8914 -1864.7095 3249.5452 3265.3564 3281.1675 3296.3745 -3288.4185 -3273.3123 -3258.307 -3243.402 -3228.6987 -3213.9954 -3199.594 -3185.092 -3170.8923 -3156.7932 -3142.5933 -3128.6956 -3114.7979 -3101.2024 -3012.4785 -724.292 1596.8262 3299.8992 3299.8992 3299.8992 3299.8992 3299.8992 3299.8992 3299.8992 3299.8992 3299.8992 3299.8992 3299.8992 3299.8992 3299.8992 3299.8992 3290.4326 3275.6287 3260.623 3245.0134 -2266.635 3253.775 3269.4854 3285.3972 3299.8992 -3284.1887 -3269.1833 -3254.0771 -3239.273 -3224.5696 -3209.967 -3195.3643 -3181.1646 -3166.7632 -3152.765 -3138.6658 -3124.8687 -3110.971 -3097.2747 -2884.9822 -335.45837 2110.8398 3299.8992 3299.8992 3299.8992 3299.8992 3299.8992 3299.8992 3299.8992 3299.8992 3299.8992 3299.8992 3299.8992 3299.8992 3299.8992 3299.8992 3288.922 3274.0173 
-3236.6545 -3222.4548 -332.0343 3299.8992 3299.8992 3299.8992 3299.8992 3299.8992 3299.8992 3286.3037 3271.4995 3256.7961 3241.7908 3226.7852 3212.2832 3197.5798 3182.9773 3168.274 3153.772 3139.4714 3121.7468 2343.0725 302.62756 -1414.1418 -2700.485 3137.3564 3152.765 3168.7773 3184.3872 3199.7954 3215.0024 3230.31 3245.3154 3260.4216 3275.4272 3290.332 3299.8992 -3280.2612 -3265.6584 -3251.1565 -3236.7554 -3222.5554 20.74585 3299.8992 3299.8992 3299.8992 3299.8992 3299.8992 3299.4963 3284.8938 3270.1904 3255.3862 3240.4814 3225.6775 3210.974 3196.0693 3181.2651 3166.864 3152.362 3138.162 3120.7397 2324.8442 293.96667 -1375.2686 -2715.39 3135.745 3151.8584 3167.5688 3182.776 3198.0835 3213.4917 3228.6987 3243.805 3259.1125 3273.9165 3288.7207 3299.8992 -3281.6711 -3267.2698 -3252.7678 -3238.1653 -3224.0662 687.03 3299.8992 3299.8992 3299.8992 3299.8992 3299.8992 3295.3674 3280.664 3265.9607 3251.2573 3236.3525 3221.5483 3206.7444 3192.1416 3177.4382 3162.9363 3148.8372 3134.1338 3114.9993 1835.6049 -226.3916 -1719.9921 -3120.236 3140.579 3155.9875 3171.8994 3187.6099 3202.9175 3218.225 3233.432 3248.4375 3263.5437 3278.549 3293.3533 -3291.8425 -3277.3406 -3262.738 -3248.236 -3233.9355 -3219.7356 1166.4001 3299.8992 3299.8992 3299.8992 3299.8992 3299.8992 3297.9858 3283.383 3268.4783 3253.775 3238.87 3224.0662 3209.262 3194.458 3179.956 3165.3533 3150.8513 3136.6516 3118.0205 2004.3915 -17.019653 -1670.1416 -2953.4636 3139.6729 3155.8867 3171.4966 3186.6028 3201.9104 3217.218 3232.5256 3247.531 3262.6372 3277.542 3292.3462 -3292.8496 -3278.247 -3263.745 -3248.941 -3234.6404 -3220.642 1321.1884 3299.8992 3299.8992 3299.8992 3299.8992 3299.8992 3296.576 3281.8726 3267.2698 3252.365 3237.6616 3222.7568 3207.852 3193.1487 3178.5461 3163.9434 3149.6428 3135.1409 3116.6106 1947.29 -50.253296 -1517.3676 -2857.9924 3138.162 3153.6711 3169.4824 3185.1929 3200.702 3215.9087 3231.1157 3246.222 3261.2273 3276.233 3291.1377 3299.8992 -3279.4556 -3264.9536 -3250.4517 
3299.8992 3299.8992 2705.722 -3181.2651 -3165.3533 -3149.8442 -3134.6375 -3119.5312 -3104.6265 -3090.0237 -3075.3203 -3060.8184 -3046.4172 -3032.1167 -3018.0176 -3004.019 -2990.0208 -2976.2236 -2962.5273 -2948.932 -2935.5376 -2922.1436 -2350.827 -793.277 678.67126 1810.2264 2967.5627 3299.8992 3299.8992 3299.8992 3299.8992 3299.8992 3299.8992 3299.8992 3299.8992 3299.8992 3299.8992 3299.8992 3299.8992 3299.8992 3299.8992 3299.8992 2423.8403 -3181.9702 -3166.3604 -3150.8513 -3135.6445 -3120.5383 -3105.6335 -3090.7288 -3076.2268 -3061.8254 -3047.3235 -3033.023 -3018.9238 -3004.9255 -2990.927 -2977.2307 -2963.5344 -2949.939 -2936.5447 -2923.0498 -2345.4895 -878.0731 635.76965 2043.3655 3236.4531 3299.8992 3299.8992 3299.8992 3299.8992 3299.8992 3299.8992 3299.8992 3299.8992 3299.8992 3299.8992 3299.8992 3299.8992 3299.8992 3299.8992 3299.8992 2092.511 -3182.4736 -3166.6626 -3151.2542 -3135.9465 -3120.8403 -3105.9355 -3091.1316 -3076.6296 -3062.0269 -3047.7263 -3033.4258 -3019.3267 -3005.3284 -2991.4307 -2977.6335 -2963.9373 -2950.3418 -2936.847 -2923.4526 -2195.3337 -789.8529 744.5343 2065.924 3244.107 3299.8992 3299.8992 3299.8992 3299.8992 3299.8992 3299.8992 3299.8992 3299.8992 3299.8992 3299.8992 3299.8992 3299.8992 3299.8992 3299.8992 3299.8992 1761.5845 -3182.4736 -3166.5618 -3151.2542 -3135.9465 -3120.9412 -3106.137 -3091.333 -3076.6296 -3062.2283 -3047.8271 -3033.5266 -3019.4275 -3005.3284 -2991.4307 -2977.7344 -2963.9373 -2950.3418 -2936.9475 -2923.4526 -2261.3982 -694.68384 749.97253 1976.4954 3061.2212 3299.8992 3299.8992 3299.8992 3299.8992 3299.8992 3299.8992 3299.8992 3299.8992 3299.8992 3299.8992 3299.8992 3299.8992 3299.8992 3299.8992 3299.8992 1410.0128 -3179.8552 -3164.2456 -3148.8372 -3133.6304 -3118.5242 -3103.6194 -3089.0166 -3074.3132 -3059.8113 -3045.5107 -3031.2102 -3017.111 -3003.012 -2989.3157 -2975.418 -2961.7217 -2948.2268 -2934.732 -2921.338 -2263.5132 -838.9984 528.71704 1803.3783 2981.7627 3299.8992 3299.8992 3299.8992 3299.8992 3299.8992 3299.8992 3299.8992 3299.8992 3299.8992 3299.8992 3299.8992 3299.8992 3299.8992 
-3276.6357 -3261.2273 -707.37305 3299.8992 3299.8992 3299.8992 3291.742 3276.3335 3260.9253 3245.0134 3229.9072 3214.7002 3199.292 3183.783 3168.3745 3152.9663 3137.9607 3122.653 3107.849 3092.743 2999.185 1913.2507 412.19788 -710.8978 -1669.0338 -2465.332 -3170.0867 3112.0789 3128.7964 3145.3125 3161.8286 3178.1433 3194.2566 3210.3699 3226.2817 3242.1936 3258.1055 3273.816 3289.4255 3299.8992 -3279.657 -3264.3494 -434.85718 3299.8992 3299.8992 3299.8992 3287.6128 3272.2046 3256.897 3240.985 3225.879 3210.5713 3195.1628 3179.7546 3164.447 3149.24 3133.9324 3118.927 3103.9214 3088.6138 2953.5645 1883.5419 381.68335 -770.21484 -1642.749 -2502.2917 -3180.258 3109.259 3126.0771 3142.4927 3159.0088 3175.3235 3191.5374 3207.55 3223.5625 3239.6758 3255.3862 3271.1975 3286.908 3299.8992 -3282.376 -3266.867 -88.32092 3299.8992 3299.8992 3298.2878 3282.9802 3267.572 3252.365 3236.2517 3221.347 3206.0393 3190.7317 3175.3235 3159.8145 3144.8088 3129.602 3114.4958 3099.6917 3084.5854 2886.9963 1731.5735 234.75037 -926.9165 -1855.7465 -2624.4507 -3231.9214 3109.259 3125.7751 3142.2913 3158.8074 3175.122 3191.2354 3207.2478 3223.2605 3239.273 3255.1848 3270.7947 3286.4043 3299.8992 -3282.376 -3267.1692 383.6975 3299.8992 3299.8992 3295.5688 3280.1604 3264.9536 3249.646 3233.6333 3218.628 3203.5217 3188.1133 3172.6042 3157.3975 3142.0898 3126.8828 3111.8774 3097.0732 3081.3628 2875.9185 1591.0858 64.75525 -1071.4325 -1960.8856 -2764.4348 3248.3367 3110.4675 3127.185 3143.6003 3160.2173 3176.4312 3192.6453 3208.6577 3224.5696 3240.4814 3256.3933 3272.0032 3287.7136 3299.8992 -3281.369 -3265.9607 878.1738 3299.8992 3299.8992 3294.2595 3278.952 3263.6443 3248.3367 3232.3242 3217.3186 3202.011 3186.7034 3171.2952 3155.9875 3140.68 3125.6743 3110.669 3095.8647 3078.4424 2865.3442 1583.432 10.272217 -1097.113 -2018.9941 -2829.5928 3132.1196 3110.4675 3127.2856 3143.8018 3160.3179 3176.6326 3192.7458 3208.6577 3224.771 3240.4814 3256.4941 3272.2046 3287.915 3299.8992 
3299.8992 3299.8992 1717.3737 -359.02405 -1737.616 -2986.6973 -3116.4092 -3101.5044 -3086.9019 -3072.4 -3057.9985 -3043.7988 -3029.6997 -3015.802 -3001.8035 -2988.0066 -2938.156 -2599.3743 -2283.8562 -2044.7754 -1837.8204 -1339.6179 -921.9818 -546.24023 -237.26807 -86.40747 118.43262 449.66125 1395.2087 2725.8635 3299.8992 3299.8992 3299.8992 3299.8992 3299.8992 3299.8992 3299.8992 3299.8992 3299.8992 3299.8992 3299.8992 3299.8992 1743.2556 -291.04614 -1830.5695 -3125.5737 -3111.978 -3097.2747 -3082.672 -3068.1702 -3053.8696 -3039.569 -3025.47 -3011.5723 -2997.7751 -2983.9783 -2966.455 -2635.6292 -2125.0396 -1702.2675 -1212.7258 -778.6743 -408.37097 -137.96997 86.60889 287.52136 525.19226 814.52637 1694.4122 2792.1294 3299.8992 3299.8992 3299.8992 3299.8992 3299.8992 3299.8992 3299.8992 3299.8992 3299.8992 3299.8992 3299.8992 3299.8992 1415.2496 -312.29553 -1459.4604 -2678.3293 -3048.9348 -3100.296 -3095.8647 -3080.658 -3043.1946 -2863.733 -2695.6511 -2518.405 -2387.5854 -2067.334 -1610.5225 -1148.7762 -832.3517 -577.86255 -380.77698 -284.198 -34.34143 91.64429 318.64014 590.55176 830.84106 1269.5251 2184.0544 3283.1816 3299.8992 3299.8992 3299.8992 3299.8992 3299.8992 3299.8992 3299.8992 3299.8992 3299.8992 3299.8992 3049.237 2143.7712 -294.87305 -2156.3599 -2663.4246 -2722.8423 -2770.3765 -2833.319 -2925.4668 -2930.0994 -2980.6548 -2929.193 -2889.212 -2876.422 -2885.1836 -2843.692 -2835.3333 -2835.1318 -2858.3953 -2831.8083 -2545.3948 -2178.2134 -1932.7881 -1372.348 -772.0276 -334.552 -26.586914 554.19617 1750.8087 2890.5212 3299.8992 3299.8992 3299.8992 3299.8992 3299.8992 3299.8992 3299.8992 3299.8992 3299.8992 3299.8992 3299.8992 3299.8992 1487.558 -363.75732 -1669.0338 -2948.2268 -3105.7341 -3090.9302 -3076.4282 -3061.9263 -3047.525 -3033.4258 -3019.528 -3005.5298 -2991.632 -2977.835 -2594.5403 -2156.8633 -1836.6119 -1474.5667 -1188.3545 -835.57434 -643.927 -338.3789 -23.26355 224.57886 485.71472 964.4806 2012.2467 2970.1812 3299.8992 3299.8992 3299.8992 3299.8992 3299.8992 3299.8992 3299.8992 3299.8992 3299.8992 3299.8992 

-35.34851 -30.212402 -24.169922 8.358765 20.24231 20.343018 9.768677 4.5318604 -3.8269043 -18.530273 -28.500366 -20.846558 -16.314697 -9.869385 -11.984253 -8.459473 -3.7261963 7.0495605 -2.0141602 6.1431885 9.466553 18.22815 13.796997 18.530273 9.164429 9.063721 15.106201 17.019653 19.638062 12.487793 33.737183 23.162842 37.96692 32.125854 26.083374 23.666382 23.968506 23.26355 26.586914 16.818237 6.5460205 -5.7403564 -17.72461 -32.83081 -40.38391 -30.413818 0.20141602 24.069214 25.579834 20.040894 -2.0141602 -33.132935 -61.029053 -59.61914 -66.467285 -59.61914 -27.593994 21.75293 72.40906 106.75049 106.75049 106.75049 106.75049 106.75049 106.75049 106.75049 106.75049 106.75049 106.75049 106.75049 106.75049 106.75049 106.75049 106.75049 106.75049 106.75049 106.75049 106.75049 106.75049 106.75049 -17.523193 -38.87329 -25.680542 -11.984253 -1.0070801 4.0283203 2.3162842 -5.1361084 11.581421 30.917358 34.140015 30.715942 17.019653 12.689209 -10.171509 -51.965332 -75.631714 -61.6333 -42.599487 -23.26355 -5.5389404 19.537354 13.897705 13.192749 18.933105 16.113281 -3.5247803 -12.185669 -21.954346 -28.29895 -8.459473 -31.219482 -29.608154 -8.258057 -5.6396484 -3.3233643 -11.279297 -8.157349 -8.862305 -4.8339844 -0.50354004 -16.616821 -22.457886 -22.457886 -28.29895 -22.25647 -21.75293 -18.026733 -16.818237 0.10070801 5.5389404 8.258057 0 6.6467285 3.3233643 0.20141602 3.1219482 5.9417725 21.148682 17.22107 49.95117 60.525513 90.03296 90.43579 71.09985 34.542847 24.27063 30.31311 38.168335 33.737183 24.069214 33.535767 -3.5247803 -71.90552 -109.87244 -103.829956 -89.02588 -90.63721 -74.72534 -36.154175 -36.154175 -36.154175 -36.154175 -36.154175 -36.154175 -36.154175 -36.154175 -36.154175 -36.154175 -36.154175 -36.154175 -36.154175 -36.154175 -36.154175 -36.154175 -36.154175 -36.154175 -36.154175 -36.154175 -36.154175 -108.36182 -125.88501 -97.38464 -63.24463 -15.911865 12.286377 40.786743 58.61206 39.37683 -13.897705 -30.917358 -21.75293 -13.494873 -16.818237 -25.78125 -17.623901 -11.581421 -13.293457 -18.832397 -21.75293 -20.443726 -18.127441 -17.422485 -17.321777 -17.019653 -19.033813 -22.558594 -31.118774 -26.889038 -17.422485 -8.459473 -6.7474365 -6.3446045 -3.5247803 3.0212402 2.2155762 -3.4240723 -2.2155762 -4.9346924 2.0141602 
-91.241455 -107.65686 -102.319336 -85.5011 -75.73242 -74.2218 -63.949585 -61.029053 -41.189575 -5.6396484 11.682129 24.27063 28.903198 25.177002 16.918945 15.106201 8.660889 8.862305 2.4169922 1.9134521 -0.9063721 -2.6184082 3.9276123 11.380005 2.6184082 3.1219482 5.6396484 17.926025 7.0495605 2.4169922 -5.0354004 -0.40283203 -12.789917 1.4099121 0.60424805 13.998413 9.063721 15.811157 30.212402 58.914185 86.00464 108.966064 158.31299 180.16663 175.73547 166.36963 164.85901 155.9967 146.22803 159.42078 129.30908 98.59314 42.700195 8.963013 -6.3446045 -18.127441 -25.881958 -38.571167 -63.446045 -91.34216 -113.69934 -135.65369 -138.87634 -147.2351 -123.87085 -69.1864 -14.300537 -11.883545 -34.039307 -55.288696 -62.64038 -57.403564 -68.78357 -71.90552 -78.652954 -88.42163 -103.72925 -91.44287 -88.92517 -80.667114 -49.145508 -21.047974 4.1290283 20.544434 46.124268 60.525513 53.07312 41.99524 39.074707 38.671875 57.806396 58.71277 46.42639 48.742676 35.046387 14.904785 -11.178589 -31.723022 -52.871704 -65.05737 -54.483032 -45.117188 -71.30127 -83.08411 -69.1864 -49.145508 -29.30603 -16.314697 -7.0495605 -9.365845 -4.0283203 -20.24231 -20.74585 -6.5460205 -12.588501 -4.5318604 -17.623901 -8.761597 -18.630981 -7.3516846 -10.473633 -7.7545166 -5.9417725 -2.5177002 1.2084961 4.8339844 8.258057 10.473633 18.328857 26.486206 31.82373 31.723022 34.84497 30.615234 25.177002 27.191162 25.378418 28.097534 27.996826 10.070801 46.42639 53.475952 48.339844 55.08728 55.288696 50.55542 53.778076 77.74658 97.88818 108.56323 137.96997 154.18396 165.86609 167.77954 161.73706 166.16821 155.69458 156.29883 127.99988 102.11792 68.984985 40.182495 20.645142 30.917358 15.609741 -17.72461 -23.867798 -7.8552246 7.0495605 8.560181 -16.012573 -98.69385 -162.84485 -186.61194 -209.67407 -222.5647 -205.34363 -175.03052 -155.09033 -151.76697 -153.68042 -135.04944 -116.922 -85.702515 -67.77649 -66.26587 -46.829224 -42.196655 -48.641968 -71.60339 -65.3595 -59.518433 -68.88428 -61.532593 -54.785156 -42.599487 -38.36975 -27.392578 -24.77417 -18.933105 -17.422485 -13.092041 -4.5318604 -5.6396484 -8.963013 -7.8552246 -8.056641 -3.9276123 8.761597 18.127441 25.479126 30.81665 45.52002 41.693115 33.43506 35.44922 30.212402 29.30603 29.608154 33.233643 
3299.8992 3287.8142 -2578.6284 3297.4822 -3286.1023 -3269.4854 -3252.9692 -3236.856 -3220.944 -3205.0322 -3189.3218 -3174.0142 -3158.5051 -3143.2983 -3128.1921 -3113.2874 -3098.4832 -3083.6792 -3069.2778 -3054.9773 -3040.4753 -2714.3828 -2188.7878 81.37207 2701.1902 3299.8992 3299.8992 3299.8992 3299.8992 3299.8992 3299.8992 3299.8992 3299.8992 3299.8992 3299.8992 3299.8992 3299.8992 3299.8992 3299.8992 3299.8992 3299.8992 3299.8992 3298.0864 -3285.2966 -3268.579 -3252.063 -3235.5469 -3219.635 -3203.7231 -3188.0127 -3172.5037 -3157.0952 -3141.7876 -3126.7822 -3111.7766 -3096.8718 -3082.3699 -3067.7673 -3053.366 -3039.0654 -3024.8657 -3011.1694 -807.98035 2067.9382 3299.8992 3299.8992 3299.8992 3299.8992 3299.8992 3299.8992 3299.8992 3299.8992 3299.8992 3299.8992 3299.8992 3299.8992 3299.8992 3299.8992 3299.8992 3299.8992 3299.8992 3295.6694 3292.9504 -3289.5264 -3272.9094 -3256.5947 -3240.4814 -3224.469 -3208.6577 -3192.8467 -3177.3376 -3161.9292 -3146.521 -3131.4148 -3116.51 -3101.6052 -3087.0024 -3072.4 -3057.797 -3043.396 -3029.196 -3014.9963 -775.8545 2131.8877 3299.8992 3299.8992 3299.8992 3299.8992 3299.8992 3299.8992 3299.8992 3299.8992 3299.8992 3299.8992 3299.8992 3299.8992 3299.8992 3299.8992 3299.8992 3299.8992 3299.8992 3291.4397 3291.339 -3291.8425 -3275.2258 -3258.7097 -3242.395 -3226.2817 -3210.3699 -3194.6594 -3178.949 -3163.5405 -3148.233 -3133.2275 -3118.1213 -3103.3171 -3088.6138 -3073.9104 -3059.4084 -3045.108 -3030.9082 -3013.5864 -618.34717 2260.5925 3299.8992 3299.8992 3299.8992 3299.8992 3299.8992 3299.8992 3299.8992 3299.8992 3299.8992 3299.8992 3299.8992 3299.8992 3299.8992 3299.8992 3299.8992 3299.8992 3299.8992 3287.6128 3290.1306 -3293.2524 -3276.535 -3259.9182 -3243.6035 -3227.5908 -3211.5784 -3195.868 -3180.258 -3164.749 -3149.5422 -3134.3352 -3119.229 -3104.5256 -3089.8223 -3075.119 -3060.7178 -3046.3164 -3032.0159 -2991.0278 -529.7241 2449.7222 3299.8992 3299.8992 3299.8992 3299.8992 3299.8992 3299.8992 3299.8992 3299.8992 3299.8992 3299.8992 3299.8992 3299.8992 3299.8992 3299.8992 3299.8992 3299.8992 3299.8992 3282.5774 3289.224 -3293.2524 -3276.6357 -3260.321 -3244.4092 -3228.296 -3212.384 -3196.6736 -3181.0637 -3165.6555 -3150.348 -3135.1409 -3120.236 -3105.3313 -3090.5273 -3075.824 -3061.4226 -3047.122 
3259.2131 3243.6035 -3240.6829 3254.782 3270.4924 3286.203 3299.8992 -3283.2825 -3268.1763 -3253.2715 -3238.3667 -3223.6633 -3209.0605 -3194.6594 -3180.258 -3166.159 -3151.9592 -3137.86 -3123.9624 -3110.1653 -3096.469 -2957.3914 -494.97986 1912.6465 3299.8992 3299.8992 3299.8992 3299.8992 3299.8992 3299.8992 3299.8992 3299.8992 3299.8992 3299.8992 3299.8992 3299.8992 3299.8992 3299.8992 3291.742 3276.8372 3261.9324 3246.6248 3243.3013 3259.4146 3275.2258 3290.4326 3299.8992 -3278.7505 -3263.6443 -3248.7395 -3233.9355 -3219.2322 -3204.7302 -3190.2283 -3175.9277 -3161.6272 -3147.528 -3133.5295 -3119.7327 -3105.9355 -3092.34 -2593.1304 157.40662 2510.852 3299.8992 3299.8992 3299.8992 3299.8992 3299.8992 3299.8992 3299.8992 3299.8992 3299.8992 3299.8992 3299.8992 3299.8992 3299.8992 3299.8992 3288.922 3274.118 3259.1125 3243.805 3242.2942 3258.307 3274.0173 3289.325 3299.8992 -3279.8584 -3264.7522 -3249.8474 -3235.0432 -3220.4407 -3205.838 -3191.336 -3177.0354 -3162.8357 -3148.6357 -3134.6375 -3120.8403 -3107.0435 -3093.3472 -2343.6768 304.74243 2723.7488 3299.8992 3299.8992 3299.8992 3299.8992 3299.8992 3299.8992 3299.8992 3299.8992 3299.8992 3299.8992 3299.8992 3299.8992 3299.8992 3299.8992 3285.8 3270.8953 3255.9905 3240.5823 3240.7837 3256.897 3272.6074 3287.915 3299.8992 -3281.2683 -3266.162 -3251.2573 -3236.4531 -3221.7498 -3207.1472 -3192.7458 -3178.3447 -3164.1448 -3149.945 -3136.0474 -3122.2502 -3108.4534 -3094.757 -2549.826 223.7732 2419.5098 3299.8992 3299.8992 3299.8992 3299.8992 3299.8992 3299.8992 3299.8992 3299.8992 3299.8992 3299.8992 3299.8992 3299.8992 3299.8992 3299.8992 3286.4043 3271.4995 3256.6956 3236.9568 3243.805 3259.8174 3275.5278 3290.7349 3299.8992 -3278.4485 -3263.3423 -3248.4375 -3233.5327 -3219.0308 -3204.428 -3189.926 -3175.7263 -3161.4258 -3147.3267 -3133.3281 -3119.5312 -3105.7341 -3092.1387 -2435.623 153.3783 2443.6797 3299.8992 3299.8992 3299.8992 3299.8992 3299.8992 3299.8992 3299.8992 3299.8992 3299.8992 3299.8992 3299.8992 3299.8992 3299.8992 3299.8992 3288.8213 3274.0173 3259.0117 3195.1628 3247.8333 3263.745 3279.4556 3294.6624 -3289.7278 -3274.6216 -3259.5154 -3244.6106 -3229.8064 -3215.2039 -3200.601 -3186.3005 -3172 -3157.6995 -3143.7012 -3129.7026 -3115.9058 -3102.1086 
-3236.0503 -3221.9512 2089.7917 3299.8992 3299.8992 3299.8992 3299.8992 3299.8992 3292.5476 3277.8442 3263.1409 3248.3367 3233.5327 3218.7285 3203.9246 3189.4226 3174.5178 3160.1165 3145.7153 3131.314 3087.2039 1655.1361 -433.14514 -1984.4513 -3177.1362 3140.579 3156.6924 3172.3022 3187.509 3202.9175 3218.1243 3233.432 3248.4375 3263.4429 3278.3477 3293.2524 -3291.9434 -3277.3406 -3262.8386 -3248.3367 -3234.0361 -3219.8364 2369.6594 3299.8992 3299.8992 3299.8992 3299.8992 3299.8992 3293.3533 3278.7505 3263.8457 3249.2432 3234.5398 3219.635 3204.8308 3190.0269 3175.3235 3160.922 3146.4202 3132.019 2952.5574 1335.3882 -677.8656 -2198.7578 3131.2134 3146.521 3162.6343 3178.1433 3193.2495 3208.6577 3223.8647 3239.0715 3254.1777 3269.284 3283.9873 3298.892 -3286.4043 -3271.8018 -3257.199 -3242.8984 -3228.6987 -3214.4988 2905.426 3299.8992 3299.8992 3299.8992 3299.8992 3299.8992 3296.878 3282.1746 3267.4712 3252.6672 3237.7625 3222.9583 3208.0535 3193.35 3178.7476 3164.2456 3149.7437 3135.2417 2974.6123 1313.5345 -705.7617 -2208.4258 3193.1487 3150.348 3165.5547 3181.366 3197.0764 3212.384 3227.5908 3242.697 3257.904 3272.8088 3287.7136 3299.8992 -3282.7788 -3268.0754 -3253.6743 -3239.273 -3224.9724 -3088.0095 3299.8992 3299.8992 3299.8992 3299.8992 3299.8992 3299.8992 3297.583 3282.9802 3268.0754 3253.2715 3238.568 3223.6633 3208.96 3194.2566 3179.7546 3165.2527 3150.9521 3136.3494 3049.64 2093.0144 316.12244 -1175.766 -2486.7827 -3190.7317 -3264.7522 3166.159 3181.4666 3196.9756 3212.2832 3227.4902 3242.5964 3257.7026 3272.708 3287.7136 3299.8992 -3282.9802 -3268.3777 -3253.8757 -3239.4744 -2798.5747 3022.9521 3299.8992 3299.8992 3299.8992 3299.8992 3299.4963 3285.0952 3270.291 3255.487 3240.8843 3225.9795 3211.1755 3196.3713 3181.5674 3167.166 3152.5635 3138.0615 3118.5242 2408.2305 347.94617 -1561.377 -2939.566 3137.5579 3153.4697 3168.7773 3184.5886 3199.9968 3215.4053 3230.612 3245.819 3260.8245 3275.7292 3290.634 3299.8992 -3280.0598 -3265.3564 -3250.7537 -3236.554 -3222.354 -2567.349 3299.8992 3299.8992 3299.8992 3299.8992 3299.8992 3299.8992 3296.3745 3281.6711 3266.9678 3251.9622 3237.1582 3222.354 3207.55 3192.7458 3178.244 3163.6414 3149.24 3134.8389 
3299.8992 3299.8992 1154.1138 -3173.9136 -3158.3037 -3142.8955 -3127.6885 -3112.7837 -3097.879 -3083.075 -3068.573 -3054.1716 -3039.972 -3025.5706 -3011.4714 -2997.5737 -2983.5754 -2969.9797 -2956.2834 -2942.688 -2929.2937 -2916.0002 -2313.6658 -874.54834 549.4629 1871.2555 3022.2473 3299.8992 3299.8992 3299.8992 3299.8992 3299.8992 3299.8992 3299.8992 3299.8992 3299.8992 3299.8992 3299.8992 3299.8992 3299.8992 3299.8992 3299.8992 589.5447 -3166.4612 -3150.7507 -3135.443 -3120.337 -3105.3313 -3090.5273 -3075.824 -3061.322 -3046.9207 -3032.5195 -3018.4204 -3004.4219 -2990.4236 -2976.526 -2962.9302 -2949.3347 -2935.8398 -2922.4456 -2909.253 -1829.1595 -335.15625 1054.6143 2428.372 3299.8992 3299.8992 3299.8992 3299.8992 3299.8992 3299.8992 3299.8992 3299.8992 3299.8992 3299.8992 3299.8992 3299.8992 3299.8992 3299.8992 3299.8992 3299.8992 265.06348 -3169.4824 -3153.772 -3138.3635 -3123.2573 -3108.252 -3093.3472 -3078.7444 -3064.2424 -3049.8413 -3035.5408 -3021.3408 -3007.3425 -2993.344 -2979.547 -2965.8508 -2952.1545 -2938.6597 -2925.3662 -2907.3394 -1940.8447 -627.5116 616.1316 1887.973 3080.5571 3299.8992 3299.8992 3299.8992 3299.8992 3299.8992 3299.8992 3299.8992 3299.8992 3299.8992 3299.8992 3299.8992 3299.8992 3299.8992 3299.8992 3299.8992 -262.14294 -3161.9292 -3146.521 -3131.2134 -3116.1072 -3101.2024 -3086.3982 -3071.6948 -3057.2937 -3042.8923 -3028.5918 -3014.4927 -3000.3936 -2986.4958 -2972.699 -2959.1033 -2945.5078 -2932.013 -2918.82 -2839.0593 -1449.8932 -46.5271 1245.6573 2512.564 3299.8992 3299.8992 3299.8992 3299.8992 3299.8992 3299.8992 3299.8992 3299.8992 3299.8992 3299.8992 3299.8992 3299.8992 3299.8992 3299.8992 3299.8992 3299.8992 -831.0425 -3165.1519 -3149.6428 -3134.436 -3119.3298 -3104.3242 -3089.6208 -3074.817 -3060.4155 -3045.9136 -3031.7139 -3017.4133 -3003.5156 -2989.618 -2975.8208 -2962.1245 -2948.529 -2935.0342 -2921.7407 -2692.9321 -1162.1704 361.74316 1740.1337 2926.7761 3299.8992 3299.8992 3299.8992 3299.8992 3299.8992 3299.8992 3299.8992 3299.8992 3299.8992 3299.8992 3299.8992 3299.8992 3299.8992 3299.8992 3299.8992 3299.8992 -1199.0295 -3174.3164 -3158.606 -3143.1975 -3128.0913 -3113.086 -3098.2817 -3083.4778 -3068.875 -3054.5745 -3040.274 -3025.9734 -3011.975 -2998.0774 -2984.1797 -2970.4834 -2956.787 -2943.2922 
-3281.1675 -3265.8599 1177.6794 3299.8992 3299.8992 3292.749 3277.4414 3262.1338 3246.8262 3230.9143 3215.808 3200.702 3185.2935 3169.8853 3154.5776 3139.3706 3124.2644 3109.3596 3094.4548 3076.9316 2731.1003 1392.0868 -119.94324 -1244.4489 -2072.9736 -2826.773 3199.7954 3111.978 3128.4941 3145.111 3161.4258 3177.6396 3193.9543 3209.967 3225.879 3241.7908 3257.6018 3273.3123 3289.0227 3299.8992 -3280.1604 -3260.623 1385.9436 3299.8992 3299.8992 3292.6482 3277.4414 3262.033 3246.8262 3230.9143 3215.808 3200.601 3185.1929 3169.6838 3154.4768 3139.3706 3124.2644 3109.259 3094.4548 3076.5288 2757.2844 1428.1403 -77.948 -1288.2568 -2172.4731 -2952.4565 3096.3684 3113.086 3129.8035 3146.3196 3162.7349 3179.0496 3195.1628 3211.2761 3227.188 3243.0999 3258.7097 3274.5208 3290.1306 3299.8992 -3278.952 -3153.5706 1903.7842 3299.8992 3299.8992 3291.4397 3276.132 3260.8245 3245.4163 3229.605 3214.3982 3199.1912 3183.8835 3168.4753 3153.2683 3138.162 3123.056 3108.252 3093.045 3078.543 2991.7327 2092.1082 668.39905 -440.49683 -1373.7579 -2226.0498 -2887.6006 3255.9905 3113.388 3130.2063 3146.6216 3162.9363 3179.1504 3195.2637 3211.377 3227.188 3243.2007 3259.0117 3274.6216 3290.2312 3299.8992 -2739.0564 1670.5444 3299.8992 3292.3462 3277.1392 3262.033 3246.8262 3231.72 3215.9087 3200.9033 3185.8977 3170.4895 3155.081 3139.7734 3124.5667 3109.6619 3093.6492 3066.0552 2780.1453 1646.9788 69.992065 -1338.208 -2254.651 -2946.2126 3098.9868 3111.978 3128.6956 3145.2117 3161.6272 3177.942 3194.1558 3210.1685 3226.0803 3241.8914 3257.8032 3273.5137 3289.1235 3299.8992 -3279.959 -3264.5508 -2727.9785 2807.437 3299.8992 3299.8992 3299.8992 3285.498 3269.989 3254.6814 3238.6687 3223.462 3208.1543 3192.7458 3177.4382 3162.03 3146.7224 3131.5154 3116.51 3101.6052 3083.7798 2527.5696 1133.3679 -226.79443 -1193.9941 -2030.5756 -2781.958 3104.5256 3121.1426 3137.86 3154.1748 3170.4895 3187.0056 3203.119 3219.1313 3234.9426 3250.8545 3266.6655 3282.2754 3297.885 -3286.6057 -3271.399 -2603.8054 2848.6267 3299.8992 3299.8992 3293.5547 3278.247 3262.9395 3247.6318 3231.5186 3216.4124 3201.3062 3185.8977 3170.3887 3154.9805 3139.8743 3124.768 3109.8633 3094.8577 3076.126 
3299.8992 3220.0378 1065.1886 -752.79236 -2121.6155 -3134.2346 -3119.229 -3104.3242 -3089.8223 -3075.3203 -3060.9192 -3046.82 -3032.5195 -3018.521 -3004.724 -2990.927 -2790.216 -2325.5493 -1939.5355 -1587.3596 -1075.3601 -792.97485 -596.89636 -313.1012 -10.070801 196.68274 407.4646 818.454 1906.7047 2871.7896 3299.8992 3299.8992 3299.8992 3299.8992 3299.8992 3299.8992 3299.8992 3299.8992 3299.8992 3299.8992 3299.8992 3077.234 957.2296 -842.22107 -2248.9104 -3140.7805 -3125.7751 -3110.971 -3096.2676 -3081.8665 -3067.3645 -3052.9631 -3038.9648 -3025.0671 -3011.1694 -2997.4731 -2881.4575 -2466.8425 -1975.589 -1597.3297 -1325.3174 -909.89685 -683.1024 -463.05542 -263.35144 36.557007 319.74792 759.4391 1964.8132 2877.6306 3299.8992 3299.8992 3299.8992 3299.8992 3299.8992 3299.8992 3299.8992 3299.8992 3299.8992 3299.8992 3299.8992 2964.2395 909.89685 -878.8788 -2217.0867 -3139.7734 -3124.768 -3109.9639 -3095.2605 -3081.0608 -3066.5588 -3052.2583 -3038.1592 -3024.06 -3010.263 -2996.3652 -2921.9421 -2532.3027 -2084.6558 -1534.8907 -1397.0215 -1125.6134 -962.97 -627.8137 -265.3656 44.815063 281.47888 823.6908 1968.7408 2921.9421 3299.8992 3299.8992 3299.8992 3299.8992 3299.8992 3299.8992 3299.8992 3299.8992 3299.8992 3299.8992 3299.8992 2758.09 533.85315 -1091.6748 -2450.4272 -3131.4148 -3116.51 -3101.7058 -3087.1033 -3072.6013 -3058.2 -3044.2017 -3030.1025 -3016.104 -3002.3071 -2988.51 -2786.4897 -2349.6184 -1741.9464 -1398.1293 -1168.9178 -867.9016 -756.9214 -552.88696 -262.64648 59.1156 205.84717 816.64124 2086.4685 3073.0042 3299.8992 3299.8992 3299.8992 3299.8992 3299.8992 3299.8992 3299.8992 3299.8992 3299.8992 3299.8992 3299.8992 2820.529 573.1293 -1090.7684 -2415.1794 -3131.9182 -3117.0134 -3102.31 -3087.6067 -3073.1047 -3058.8042 -3044.6045 -3030.5054 -3016.5068 -3002.8105 -2989.0137 -2717.505 -2421.222 -1955.9509 -1605.3864 -1208.194 -811.0016 -586.9263 -414.41345 -211.2854 -39.074707 122.25952 803.14636 2096.8413 2726.5686 3299.8992 3299.8992 3299.8992 3299.8992 3299.8992 3299.8992 3299.8992 3299.8992 3299.8992 3299.8992 3299.8992 2416.9922 186.41052 -1381.2103 -2622.1343 -3123.9624 -3108.8562 -3094.2534 -3079.7515 -3065.2495 -3050.949 -3036.8499 -3022.8516 -3008.9539 -2995.1567 -2980.3528 -2796.8628 -2480.136 -1973.7762 -1571.0449 

3.9276123 0 -2.7191162 2.7191162 0.40283203 9.466553 9.164429 9.667969 12.487793 -2.1148682 7.4523926 11.883545 20.040894 61.331177 88.11951 82.58057 71.502686 63.848877 77.44446 80.26428 64.65454 11.581421 -38.269043 -81.87561 -99.801636 -97.68677 -96.17615 -81.97632 -60.021973 -44.210815 -54.986572 -40.283203 -10.272217 47.03064 92.85278 104.937744 90.63721 73.516846 68.984985 24.27063 -9.970093 -37.96692 -75.32959 -92.65137 -74.42322 -75.73242 -82.47986 -42.599487 -11.480713 -7.0495605 -2.6184082 3.8269043 -1.8127441 8.459473 13.696289 14.703369 18.630981 32.32727 47.03064 57.20215 57.20215 57.20215 57.20215 57.20215 57.20215 57.20215 57.20215 57.20215 57.20215 57.20215 57.20215 57.20215 57.20215 57.20215 57.20215 57.20215 57.20215 57.20215 57.20215 57.20215 -2.5177002 5.4382324 10.171509 12.185669 7.7545166 10.473633 12.286377 16.616821 7.1502686 -1.7120361 11.782837 30.715942 -11.279297 -3.1219482 -5.0354004 -4.8339844 16.113281 48.239136 67.77649 61.834717 49.246216 44.51294 67.37366 75.027466 81.674194 88.62305 86.8103 88.52234 64.25171 -11.883545 -54.885864 -63.24463 -89.93225 -122.36023 -125.98572 -116.21704 -88.723755 -71.7041 -52.368164 -44.0094 -39.074707 -38.571167 -32.629395 -26.989746 -1.1077881 14.804077 30.413818 40.786743 28.198242 23.464966 8.963013 -0.10070801 5.6396484 17.623901 7.9559326 13.595581 6.8481445 4.3304443 5.6396484 -1.3092041 -1.3092041 -1.3092041 -1.3092041 -1.3092041 -1.3092041 -1.3092041 -1.3092041 -1.3092041 -1.3092041 -1.3092041 -1.3092041 -1.3092041 -1.3092041 -1.3092041 -1.3092041 -1.3092041 -1.3092041 -1.3092041 -1.3092041 -1.3092041 -20.544434 -1.3092041 -2.2155762 -1.3092041 -6.2438965 0.50354004 2.4169922 4.6325684 0.80566406 23.364258 51.260376 54.885864 32.629395 14.300537 20.141602 34.744263 50.05188 37.36267 26.083374 17.22107 -19.638062 -60.22339 -46.5271 -20.443726 0.10070801 23.867798 63.949585 94.16199 127.99988 144.6167 117.92908 75.22888 44.613647 7.4523926 -56.69861 -110.6781 -129.81262 -103.930664 -63.74817 -71.90552 
29.30603 21.853638 26.687622 22.76001 24.572754 18.630981 19.033813 27.392578 20.74585 -4.8339844 1.9134521 -2.4169922 -4.4311523 4.0283203 12.588501 21.551514 18.832397 27.694702 27.29187 39.578247 49.346924 62.13684 82.27844 92.14783 107.958984 129.81262 149.6521 171.60645 219.03992 238.57727 250.3601 260.4309 254.58984 242.20276 201.81885 167.47742 111.68518 62.942505 31.018066 -17.019653 -79.86145 -116.61987 -129.10767 -128.80554 -129.10767 -138.97705 -140.7898 -145.01953 -174.7284 -201.41602 -215.91797 -193.6615 -160.32715 -108.462524 -71.09985 -51.361084 -51.05896 -66.36658 -95.06836 -117.22412 -129.81262 -132.22961 -107.65686 -100.40588 -90.43579 -92.44995 -94.766235 -86.00464 -69.38782 -48.54126 -34.94568 -28.500366 -13.192749 -10.775757 -4.4311523 -1.4099121 4.6325684 4.6325684 -0.50354004 10.876465 13.696289 28.399658 28.601074 25.881958 21.450806 20.141602 26.889038 31.32019 22.659302 9.667969 16.516113 1.8127441 -31.32019 9.667969 29.708862 16.415405 11.984253 20.141602 9.365845 10.473633 1.1077881 -4.0283203 10.372925 19.134521 31.118774 47.03064 56.396484 66.970825 75.631714 78.25012 80.06287 68.07861 57.60498 40.98816 20.74585 18.933105 33.737183 25.177002 9.466553 -11.480713 -33.535767 -29.30603 -39.578247 -34.542847 0.9063721 24.975586 44.815063 54.281616 48.239136 25.579834 22.860718 14.703369 7.4523926 -4.3304443 -17.019653 -21.551514 -30.413818 -34.039307 -38.269043 -30.715942 -31.32019 -39.074707 -30.31311 -19.134521 -14.501953 -12.084961 -10.272217 -13.998413 3.8269043 16.314697 12.689209 15.710449 15.408325 3.3233643 7.1502686 26.28479 37.36267 46.728516 47.232056 62.13684 69.992065 74.32251 65.56091 54.0802 47.634888 49.145508 71.80481 78.048706 73.21472 53.375244 71.7041 60.12268 47.634888 44.311523 41.189575 44.91577 29.708862 -4.0283203 -62.539673 -107.55615 -152.87476 -154.38538 -145.62378 -121.85669 -73.91968 -12.789917 28.399658 50.656128 66.87012 67.27295 47.53418 7.6538086 -24.572754 -37.86621 -31.219482 -83.48694 -118.533325 -112.994385 -95.06836 -62.64038 
-3032.8215 -2833.1177 -489.74304 2331.6924 3299.8992 3299.8992 3299.8992 3299.8992 3299.8992 3299.8992 3299.8992 3299.8992 3299.8992 3299.8992 3299.8992 3299.8992 3299.8992 3299.8992 3299.8992 3299.8992 3299.8992 3230.5115 3291.0369 -3292.3462 -3275.7292 -3259.1125 -3242.7979 -3226.6846 -3210.7727 -3194.9614 -3179.5532 -3164.0442 -3148.8372 -3133.731 -3118.6248 -3103.8208 -3089.1174 -3074.414 -3059.912 -3045.6116 -3031.4116 -2810.7605 -144.41528 2752.4504 3299.8992 3299.8992 3299.8992 3299.8992 3299.8992 3299.8992 3299.8992 3299.8992 3299.8992 3299.8992 3299.8992 3299.8992 3299.8992 3299.8992 3299.8992 3299.8992 3299.5972 2973.3032 3290.7349 -3292.044 -3275.3264 -3259.1125 -3242.9993 -3226.9866 -3211.1755 -3195.465 -3179.8552 -3164.447 -3149.1394 -3133.9324 -3119.0276 -3104.2236 -3089.4194 -3074.716 -3060.4155 -3046.0144 -3031.8145 -2749.6306 -138.2721 2714.3828 3299.8992 3299.8992 3299.8992 3299.8992 3299.8992 3299.8992 3299.8992 3299.8992 3299.8992 3299.8992 3299.8992 3299.8992 3299.8992 3299.8992 3299.8992 3299.8992 3299.295 2711.563 3292.5476 -3290.8354 -3274.2188 -3257.7026 -3241.388 -3225.2747 -3209.4634 -3193.753 -3178.1433 -3162.8357 -3147.528 -3132.321 -3117.3157 -3102.5115 -3087.808 -3073.2056 -3058.8042 -3044.5037 -3030.304 -2780.4473 -159.52148 2702.6 3299.8992 3299.8992 3299.8992 3299.8992 3299.8992 3299.8992 3299.8992 3299.8992 3299.8992 3299.8992 3299.8992 3299.8992 3299.8992 3299.8992 3299.8992 3299.8992 3299.8992 2076.2969 3296.0723 -3286.6057 -3270.0896 -3253.6743 -3237.7625 -3221.8506 -3205.9387 -3190.2283 -3174.7192 -3159.3108 -3144.104 -3128.9978 -3113.9922 -3099.2888 -3084.4849 -3069.882 -3055.5815 -3041.281 -3027.182 -2329.5776 508.47473 3298.1873 3299.8992 3299.8992 3299.8992 3299.8992 3299.8992 3299.8992 3299.8992 3299.8992 3299.8992 3299.8992 3299.8992 3299.8992 3299.8992 3299.8992 3299.8992 3299.8992 3297.2808 1569.0308 3294.6624 -3288.1165 -3271.4995 -3255.2856 -3239.273 -3223.1597 -3207.4492 -3191.8396 -3176.2297 -3160.8215 -3145.514 -3130.307 -3115.503 -3100.6987 -3085.8948 -3071.292 -3056.8909 -3042.5903 
-3088.6138 -2023.526 416.62903 2537.9424 3299.8992 3299.8992 3299.8992 3299.8992 3299.8992 3299.8992 3299.8992 3299.8992 3299.8992 3299.8992 3299.8992 3299.8992 3299.8992 3299.8992 3289.325 3274.3193 3259.5154 2971.692 3250.2502 3266.162 3281.7717 3296.9788 -3287.4114 -3272.2046 -3257.2998 -3242.395 -3227.5908 -3212.8875 -3198.4863 -3184.085 -3169.7844 -3155.5847 -3141.5862 -3127.588 -3113.6902 -3100.0945 -3086.3982 -1691.9952 564.8712 2698.7732 3299.8992 3299.8992 3299.8992 3299.8992 3299.8992 3299.8992 3299.8992 3299.8992 3299.8992 3299.8992 3299.8992 3299.8992 3299.8992 3299.8992 3288.6199 3273.715 3258.7097 2592.5261 3251.7607 3267.7734 3283.2825 3298.993 -3285.8 -3270.7947 -3255.6885 -3240.8843 -3226.0803 -3211.4775 -3196.9756 -3182.5745 -3168.3745 -3154.1748 -3140.0757 -3126.178 -3112.3809 -3098.6846 -3085.089 -1687.4634 809.08813 2923.654 3299.8992 3299.8992 3299.8992 3299.8992 3299.8992 3299.8992 3299.8992 3299.8992 3299.8992 3299.8992 3299.8992 3299.8992 3299.8992 3299.8992 3288.0156 3273.1108 3258.0046 2195.636 3253.07 3268.982 3284.5916 3299.8992 -3284.6924 -3269.5862 -3254.5806 -3239.6758 -3224.8718 -3210.269 -3195.767 -3181.4666 -3167.0654 -3152.9663 -3139.0686 -3125.07 -3111.2732 -3097.577 -3083.9812 -1506.4911 1121.0815 3226.3823 3299.8992 3299.8992 3299.8992 3299.8992 3299.8992 3299.8992 3299.8992 3299.8992 3299.8992 3299.8992 3299.8992 3299.8992 3299.8992 3299.8992 3286.0015 3270.996 3255.89 1456.1371 3253.6743 3269.4854 3285.0952 3299.8992 -3284.1887 -3268.982 -3253.9763 -3239.1724 -3224.469 -3209.7656 -3195.2637 -3180.8623 -3166.6626 -3152.4626 -3138.4644 -3124.5667 -3110.7695 -3097.0732 -3083.4778 -1378.2898 1467.6178 3299.8992 3299.8992 3299.8992 3299.8992 3299.8992 3299.8992 3299.8992 3299.8992 3299.8992 3299.8992 3299.8992 3299.8992 3299.8992 3299.8992 3298.0864 3283.383 3268.579 3253.372 1142.5323 3252.1636 3268.0754 3283.6853 3299.295 -3285.5986 -3270.4924 -3255.487 -3240.6829 -3225.879 -3211.2761 -3196.7742 -3182.4736 -3168.0725 -3153.9734 -3139.8743 -3125.9766 -3112.2803 -3098.4832 
2931.1064 1249.585 -558.5266 -1973.5748 -3111.0718 3146.823 3162.9363 3178.4453 3193.6523 3208.96 3224.2676 3239.4744 3254.5806 3269.5862 3284.491 3299.1943 -3286.1023 -3271.399 -3256.897 -3242.395 -3228.296 -2400.9795 3299.8992 3299.8992 3299.8992 3299.8992 3299.8992 3299.8992 3289.9292 3275.2258 3260.4216 3245.6177 3230.8135 3215.9087 3201.2053 3186.7034 3172 3157.3975 3143.097 3128.595 2647.2107 784.8175 -1042.4286 -2446.701 3134.1338 3149.945 3165.3533 3181.1646 3196.7742 3212.1826 3227.2888 3242.395 3257.5012 3272.5066 3287.3108 3299.8992 -3283.1816 -3268.6797 -3254.1777 -3239.5752 -3225.2747 -2052.0264 3299.8992 3299.8992 3299.8992 3299.8992 3299.8992 3299.8992 3290.332 3275.5278 3260.7239 3245.9197 3231.1157 3216.211 3201.5076 3186.9048 3172.3022 3157.8003 3143.6003 3127.6885 2519.9158 603.9459 -1195.7062 -2530.2886 3136.853 3152.765 3168.6768 3184.1858 3199.1912 3214.4988 3229.8064 3244.9126 3260.0188 3274.9236 3289.9292 3299.8992 -3280.7646 -3266.162 -3251.6602 -3237.2588 -3223.059 -1764.505 3299.8992 3299.8992 3299.8992 3299.8992 3299.8992 3299.8992 3291.4397 3276.7363 3261.9324 3247.1282 3232.3242 3217.4194 3202.6152 3188.0127 3173.5107 3158.908 3144.5068 3130.005 2677.2217 768.2007 -984.6222 -2413.971 3135.443 3151.4556 3166.6626 3182.4736 3198.0835 3213.391 3228.6987 3243.805 3259.0117 3273.816 3288.7207 3299.8992 -3281.7717 -3267.2698 -3252.6672 -3238.2659 -3224.0662 -1349.6887 3299.8992 3299.8992 3299.8992 3299.8992 3299.8992 3299.8992 3288.6199 3273.816 3259.1125 3244.3083 3229.303 3214.5996 3199.7954 3185.1929 3170.59 3156.0881 3141.7876 3125.2715 2484.668 606.66504 -1106.1768 -2460.2966 3134.6375 3150.4485 3165.857 3181.7688 3197.2778 3212.686 3227.5908 3242.9993 3258.0046 3273.0103 3288.0156 3299.8992 -3282.5774 -3267.9749 -3253.473 -3239.0715 -3224.8718 -742.1173 3299.8992 3299.8992 3299.8992 3299.8992 3299.8992 3299.5972 3284.8938 3270.291 3255.487 3240.7837 3225.879 3211.1755 3196.3713 3181.7688 3167.166 3152.664 3138.3635 3122.0488 
-2929.898 -2797.9705 -1607.6019 -235.45532 1178.9886 2536.2305 3299.8992 3299.8992 3299.8992 3299.8992 3299.8992 3299.8992 3299.8992 3299.8992 3299.8992 3299.8992 3299.8992 3299.8992 3299.8992 3299.8992 3299.8992 3299.8992 -1530.4596 -3170.7915 -3155.2825 -3139.8743 -3124.768 -3109.8633 -3094.9585 -3080.3557 -3065.7532 -3051.4526 -3037.0513 -3022.9521 -3008.853 -2994.8547 -2981.0576 -2967.3613 -2953.7659 -2940.271 -2926.8767 -2748.825 -1420.8893 -12.487793 1285.6384 2627.9753 3299.8992 3299.8992 3299.8992 3299.8992 3299.8992 3299.8992 3299.8992 3299.8992 3299.8992 3299.8992 3299.8992 3299.8992 3299.8992 3299.8992 3299.8992 3299.8992 -1932.5867 -3169.0796 -3153.6711 -3138.3635 -3123.2573 -3108.252 -3093.5486 -3078.8452 -3064.2424 -3049.942 -3035.5408 -3021.4417 -3007.443 -2993.4448 -2979.7485 -2966.0522 -2952.356 -2938.7603 -2925.3662 -2647.815 -1371.341 49.850464 1393.0939 2605.2153 3299.8992 3299.8992 3299.8992 3299.8992 3299.8992 3299.8992 3299.8992 3299.8992 3299.8992 3299.8992 3299.8992 3299.8992 3299.8992 3299.8992 3299.8992 3299.8992 -2270.6633 -3167.3674 -3151.7578 -3136.4502 -3121.344 -3106.3384 -3091.635 -3076.831 -3062.4297 -3048.0286 -3033.728 -3019.629 -3005.6304 -2991.632 -2977.835 -2964.1387 -2950.5432 -2937.149 -2923.654 -2710.0525 -1389.3677 93.15491 1567.4194 2825.8667 3299.8992 3299.8992 3299.8992 3299.8992 3299.8992 3299.8992 3299.8992 3299.8992 3299.8992 3299.8992 3299.8992 3299.8992 3299.8992 3299.8992 3299.8992 3187.1062 -2693.7378 -3165.6555 -3150.1465 -3134.8389 -3119.8333 -3104.727 -3090.1245 -3075.3203 -3060.9192 -3046.4172 -3032.1167 -3018.1182 -3004.1199 -2990.1213 -2976.3245 -2962.7288 -2949.1333 -2935.5376 -2922.2441 -2641.0674 -1250.8942 241.90063 1521.2952 2719.9219 3299.8992 3299.8992 3299.8992 3299.8992 3299.8992 3299.8992 3299.8992 3299.8992 3299.8992 3299.8992 3299.8992 3299.8992 3299.8992 3299.8992 3299.8992 2957.8948 -3044.705 -3162.7349 -3147.3267 -3132.1196 -3117.0134 -3102.2095 -3087.506 -3072.8027 -3058.2 -3043.8994 -3029.8003 -3015.6006 -3001.602 -2987.7043 -2973.8066 -2960.3118 -2946.7163 -2933.2214 
2525.354 1122.7936 -181.1737 -1156.9336 -2007.8156 -2833.319 3097.7783 3114.4958 3131.314 3147.7295 3164.1448 3180.359 3196.4722 3212.686 3228.4973 3244.5098 3260.1196 3275.9307 3291.641 3299.8992 -3277.542 -2365.4297 3124.9695 3299.8992 3299.8992 3285.6995 3270.3918 3255.0842 3239.7766 3223.764 3208.7585 3193.451 3178.244 3162.7349 3147.528 3132.4219 3117.3157 3102.411 3087.506 3069.2778 2422.229 930.7434 -456.5094 -1554.4281 -2464.1235 -3233.6333 3099.7925 3116.51 3133.0261 3149.5422 3165.9575 3182.1716 3198.285 3214.3982 3230.2092 3246.222 3261.8315 3277.6428 3293.2524 -3291.339 -3275.9307 -2019.5984 3299.8992 3299.8992 3299.8992 3284.6924 3269.4854 3254.2786 3238.87 3222.9583 3208.0535 3192.6453 3177.2368 3162.03 3146.6216 3131.6162 3116.51 3101.6052 3086.801 3065.9546 2250.3203 798.7152 -626.3031 -1647.6837 -2533.2092 -3241.5894 3102.008 3118.7256 3135.2417 3151.8584 3168.0725 3184.2864 3200.3997 3216.4124 3232.3242 3248.236 3264.047 3279.7576 3295.166 -3289.224 -3273.816 -1725.3296 3299.8992 3299.8992 3299.8992 3284.8938 3269.4854 3254.2786 3238.971 3222.9583 3208.0535 3192.6453 3177.3376 3162.1306 3146.7224 3131.6162 3116.6106 3101.7058 3086.7004 3066.6594 2240.048 769.5099 -626.6052 -1549.4934 -2317.4927 -3089.4194 3099.994 3116.7114 3133.429 3149.8442 3166.159 3182.5745 3198.587 3214.5996 3230.612 3246.4233 3262.2344 3277.8442 3293.4539 -3291.0369 -3275.6287 -1488.6658 3299.8992 3299.8992 3297.0793 3281.8726 3266.565 3251.2573 3235.9497 3220.1384 3205.133 3189.8254 3174.417 3159.1094 3143.9026 3128.6956 3113.7908 3098.7854 3083.9812 3062.329 2143.5698 622.97974 -659.43604 -1688.3698 -2536.2305 -3204.9316 3101.001 3117.7185 3134.3352 3150.7507 3167.0654 3183.3801 3199.3926 3215.4053 3231.3171 3247.229 3262.9395 3278.7505 3294.3604 -3290.2312 -3274.823 -1039.6088 3299.8992 3299.8992 3295.2666 3280.0598 3264.9536 3249.5452 3234.3384 3218.225 3203.3203 3188.0127 3172.705 3157.3975 3142.0898 3127.0842 3112.0789 3097.0732 3082.1685 3002.5085 
-1287.5519 -957.73315 -675.95215 -450.76904 -222.36328 99.09668 384.20105 1055.1178 2234.1064 3092.4407 3299.8992 3299.8992 3299.8992 3299.8992 3299.8992 3299.8992 3299.8992 3299.8992 3299.8992 3299.8992 3299.8992 2315.277 172.61353 -1348.3795 -2552.4443 -3119.8333 -3104.9285 -3090.326 -3075.824 -3061.322 -3047.0215 -3032.9224 -3018.8232 -3005.0261 -2991.1284 -2956.1829 -2542.575 -2169.5525 -1859.9762 -1529.6539 -1078.0792 -688.0371 -366.37573 -79.35791 100.50659 334.3506 389.43787 1078.9856 2305.7097 3282.5774 3299.8992 3299.8992 3299.8992 3299.8992 3299.8992 3299.8992 3299.8992 3299.8992 3299.8992 3299.8992 3299.8992 2468.8567 315.31677 -1210.7117 -2471.9788 -3130.1055 -3115.2007 -3100.3967 -3085.8948 -3071.3928 -3057.0923 -3042.7917 -3028.5918 -3014.795 -3000.9978 -2979.7485 -2597.461 -2237.2283 -1754.9377 -1574.8718 -1281.9122 -873.44055 -447.24426 -225.28381 -105.441284 37.060547 344.21997 1086.3373 2301.6814 3065.3503 3299.8992 3299.8992 3299.8992 3299.8992 3299.8992 3299.8992 3299.8992 3299.8992 3299.8992 3299.8992 3299.8992 2066.226 -35.147095 -1537.6099 -2799.884 -3126.7822 -3111.978 -3097.2747 -3082.7727 -3068.3716 -3054.1716 -3039.7705 -3025.6714 -3011.975 -2998.178 -2957.2905 -2588.8 -2158.9783 -1754.837 -1395.5109 -920.6726 -504.84924 -101.312256 98.99597 100.305176 265.96985 595.38574 1455.4321 2576.3123 3299.8992 3299.8992 3299.8992 3299.8992 3299.8992 3299.8992 3299.8992 3299.8992 3299.8992 3299.8992 3299.8992 3299.8992 2134.607 142.70325 -1303.4637 -2637.14 -3140.4785 -3125.5737 -3110.8704 -3096.3684 -3081.665 -3067.2637 -3053.1646 -3039.0654 -3025.0671 -3011.0686 -2995.761 -2694.2412 -2257.2693 -1858.4656 -1581.8207 -1141.626 -726.6083 -537.57935 -305.6488 -115.10925 42.599487 349.85962 1227.832 2438.2415 3299.8992 3299.8992 3299.8992 3299.8992 3299.8992 3299.8992 3299.8992 3299.8992 3299.8992 3299.8992 3299.8992 3299.8992 2024.3317 -25.680542 -1517.6697 -2884.076 -3136.9536 -3122.1497 -3107.4463 -3092.8435 -3078.241 -3063.8396 -3049.7405 -3035.7422 -3021.643 -3007.9468 -2867.157 -2534.7197 -2130.5786 -1854.3365 -1641.4398 

-74.92676 -82.47986 -77.142334 -55.389404 -36.758423 -16.516113 6.2438965 19.638062 15.408325 12.185669 2.3162842 3.7261963 5.2368164 4.9346924 3.5247803 16.616821 6.9488525 -5.0354004 -21.954346 -18.127441 -18.127441 -18.127441 -18.127441 -18.127441 -18.127441 -18.127441 -18.127441 -18.127441 -18.127441 -18.127441 -18.127441 -18.127441 -18.127441 -18.127441 -18.127441 -18.127441 -18.127441 -18.127441 -18.127441 -18.127441 83.688354 100.50659 111.8866 100.20447 83.78906 61.12976 63.64746 69.1864 62.74109 74.82605 111.68518 171.80786 178.85742 113.80005 60.424805 46.92993 -42.39807 -116.11633 -190.43884 -216.92505 -255.89905 -264.1571 -243.41125 -182.08008 -120.7489 -80.4657 -67.67578 -65.25879 -54.58374 -40.38391 -21.047974 -1.9134521 5.0354004 11.782837 4.7332764 14.501953 1.3092041 0.80566406 1.8127441 -1.3092041 -6.4453125 9.265137 31.118774 30.81665 37.86621 23.76709 19.638062 33.636475 39.98108 32.125854 29.104614 -0.30212402 -6.7474365 -2.5177002 1.7120361 4.1290283 -1.2084961 6.5460205 6.3446045 -1.3092041 -10.574341 -19.638062 -33.132935 -31.219482 1.1077881 37.96692 41.793823 38.87329 44.51294 39.779663 31.521606 2.6184082 -31.219482 -46.92993 -73.21472 -75.83313 -67.57507 -45.117188 -22.357178 -17.825317 -2.5177002 12.588501 23.968506 27.090454 5.6396484 9.567261 23.162842 37.36267 44.815063 45.217896 58.10852 46.728516 47.131348 52.770996 21.148682 54.382324 51.5625 45.217896 33.535767 -5.3375244 -52.468872 -67.17224 -65.15808 -54.382324 -42.599487 -21.75293 -1.7120361 8.862305 24.27063 31.118774 40.182495 52.871704 43.103027 37.261963 29.608154 19.638062 8.258057 -5.2368164 -4.1290283 -6.5460205 -6.5460205 -6.5460205 -6.5460205 -6.5460205 -6.5460205 -6.5460205 -6.5460205 -6.5460205 -6.5460205 -6.5460205 -6.5460205 -6.5460205 -6.5460205 -6.5460205 -6.5460205 -6.5460205 -6.5460205 -6.5460205 -6.5460205 -6.5460205 -14.804077 -25.680542 -37.060547 -32.125854 -19.73877 -5.3375244 -2.6184082 1.1077881 0.60424805 0.60424805 -1.5106201 -10.675049 -17.623901 -10.775757 -3.6254883 0.30212402 5.4382324 1.2084961 -15.106201 -23.162842 
-62.64038 -62.64038 -62.64038 -62.64038 -62.64038 -62.64038 -62.64038 -62.64038 -62.64038 -62.64038 -62.64038 -62.64038 -62.64038 -62.64038 -62.64038 -62.64038 -62.64038 -62.64038 -62.64038 -62.64038 -14.300537 -17.422485 -16.918945 -19.23523 -28.601074 -39.88037 -41.290283 -40.98816 -25.177002 -19.23523 -8.761597 -5.0354004 4.7332764 4.8339844 12.890625 5.9417725 26.586914 44.815063 40.88745 53.475952 45.117188 59.014893 59.518433 76.538086 83.08411 78.75366 84.2926 101.11084 100.909424 77.545166 52.166748 48.843384 63.74817 75.83313 62.64038 98.69385 67.67578 37.564087 -3.4240723 -44.815063 -75.32959 -101.61438 -128.90625 -137.46643 -135.7544 -117.92908 -95.37048 -74.82605 -57.000732 -36.657715 -19.134521 -26.486206 -36.053467 -31.924438 -29.104614 0.60424805 30.31311 48.03772 59.317017 75.83313 76.135254 90.63721 97.18323 89.227295 62.23755 32.226562 15.911865 17.321777 7.7545166 -1.9134521 10.473633 -8.459473 -24.371338 -43.304443 -40.686035 -44.815063 -67.474365 -62.438965 -62.539673 -51.763916 -49.346924 -39.779663 -28.601074 -2.9205322 39.37683 68.481445 82.37915 101.51367 134.74731 147.03369 167.37671 162.03918 137.66785 84.79614 17.926025 -51.361084 -112.79297 -114.90784 -121.15173 -113.69934 -138.17139 -165.66467 -185.00061 -171.70715 -148.3429 -111.58447 -70.09277 -35.751343 -17.825317 -2.5177002 0.40283203 -11.178589 -4.2297363 -12.588501 -45.318604 -38.067627 -33.43506 -24.673462 -28.80249 -16.71753 -23.968506 -26.78833 -21.047974 -16.918945 -17.019653 -0.60424805 6.0424805 -1.8127441 14.300537 16.113281 26.184082 30.81665 34.744263 41.592407 40.48462 35.34851 36.85913 34.94568 31.622314 48.742676 63.74817 85.09827 91.241455 116.519165 132.33032 144.21387 156.39954 156.09741 117.92908 95.67261 56.900024 40.38391 44.714355 34.542847 27.79541 -3.9276123 -25.579834 -34.542847 -67.27295 -93.759155 -133.03528 -126.9928 -119.84253 -115.91492 -94.46411 -81.57349 -65.3595 -47.43347 -16.616821 15.408325 22.25647 21.350098 11.682129 10.775757 2.6184082 -7.5531006 -13.998413 -10.272217 -31.219482 -12.789917 
