-146.12732 -146.12732 -146.12732 -146.12732 -146.12732 -146.12732 -146.12732 18.22815 49.246216 46.224976 17.422485 8.560181 8.660889 -39.175415 -82.88269 -66.26587 -38.168335 -26.28479 -7.1502686 6.6467285 -0.80566406 -2.0141602 -10.473633 -24.27063 -21.350098 -10.977173 10.876465 45.822144 82.07703 94.06128 99.90234 106.34766 111.28235 81.7749 41.189575 -32.83081 -91.14075 -118.43262 -112.28943 -99.19739 -59.518433 -45.822144 -47.131348 -55.18799 -38.974 -30.917358 -14.300537 -14.300537 -14.300537 -14.300537 -14.300537 -14.300537 -14.300537 -14.300537 -14.300537 -14.300537 -14.300537 -14.300537 -14.300537 -14.300537 -14.300537 -14.300537 -14.300537 -14.300537 -14.300537 -14.300537 -14.300537 -14.300537 -14.300537 -14.300537 -14.300537 -14.300537 -14.300537 -14.300537 -14.300537 -14.300537 -14.300537 -14.300537 -14.300537 -14.300537 -14.300537 -14.300537 -14.300537 -14.300537 -14.300537 -14.300537 -14.300537 -263.55286 -191.44592 -88.723755 -23.26355 -37.564087 -58.309937 -76.638794 -78.95508 -48.138428 6.8481445 32.025146 16.113281 5.3375244 -5.4382324 3.4240723 -11.682129 -12.084961 -8.560181 -13.293457 -10.070801 -13.796997 -2.7191162 -23.565674 -22.659302 -10.070801 13.998413 21.350098 37.86621 52.368164 54.483032 26.184082 24.673462 21.047974 41.290283 59.21631 55.490112 38.47046 8.056641 -8.660889 -26.78833 
69.58923 68.68286 63.24463 89.730835 89.52942 87.31384 84.09119 84.49402 93.15491 114.4043 128.50342 121.65527 31.924438 -114.30359 -145.72449 -112.18872 -56.19507 -19.134521 -4.9346924 10.675049 5.6396484 0.9063721 -2.4169922 -14.401245 7.8552246 10.171509 -3.5247803 -13.293457 -12.789917 -24.371338 -30.715942 -40.585327 -45.117188 -65.86304 -93.96057 -122.46094 -149.34998 -161.0321 -138.17139 -104.73633 -77.74658 -48.54126 -45.721436 -58.914185 -50.958252 -41.290283 -22.961426 5.8410645 -2.1148682 10.070801 7.4523926 -1.7120361 -1.5106201 -3.8269043 3.4240723 -8.459473 3.7261963 5.1361084 12.991333 9.768677 -7.5531006 -8.862305 9.365845 24.673462 39.074707 56.295776 70.29419 79.76074 102.01721 129.30908 150.35706 152.1698 157.91016 155.49316 159.42078 187.01477 201.51672 240.08789 305.6488 326.19324 294.97375 253.68347 238.8794 181.47583 67.37366 -81.170654 -214.30664 -283.79517 -304.54102 -304.64172 -304.94385 -320.6543 -327.40173 -308.2672 -252.8778 -208.26416 -163.85193 -131.72607 -96.37756 -66.26587 -44.110107 -33.233643 -37.161255 -43.203735 -51.361084 -52.166748 -79.76074 -92.44995 -64.65454 -46.627808 -30.514526 -14.703369 2.3162842 13.696289 27.090454 27.493286 29.507446 27.392578 31.219482 24.572754 34.240723 41.89453 54.785156 52.871704 58.71277 46.829224 34.140015 
-3012.0757 -2495.645 -44.815063 2578.7292 3299.8992 3299.8992 3299.8992 3299.8992 3299.8992 3299.8992 3299.8992 3299.8992 3299.8992 3299.8992 3299.8992 3299.8992 3299.8992 3299.8992 3299.8992 3299.8992 3299.8992 294.97375 -3282.1746 -3265.5579 -3249.1423 -3232.9285 -3216.8152 -3201.004 -3184.8906 -3169.8853 -3153.9734 -3138.7664 -3123.8616 -3109.0576 -3094.1528 -3079.55 -3065.048 -3050.5461 -3036.3464 -3022.1465 -3008.1482 -1970.4529 583.7036 3059.7107 3299.8992 3299.8992 3299.8992 3299.8992 3299.8992 3299.8992 3299.8992 3299.8992 3299.8992 3299.8992 3299.8992 3299.8992 3299.8992 3299.8992 3299.8992 3299.8992 3299.8992 -477.7588 -3282.6782 -3265.8599 -3249.5452 -3233.2305 -3217.218 -3201.4067 -3185.3943 -3169.7844 -3154.779 -3139.4714 -3124.3652 -3109.1582 -3094.3542 -3079.651 -3065.048 -3050.647 -3036.447 -3022.2473 -3008.2488 -1846.0785 674.0387 3147.6287 3299.8992 3299.8992 3299.8992 3299.8992 3299.8992 3299.8992 3299.8992 3299.8992 3299.8992 3299.8992 3299.8992 3299.8992 3299.8992 3299.8992 3299.8992 3299.8992 3299.8992 -1243.3411 -3281.8726 -3265.155 -3248.639 -3232.5256 -3216.513 -3200.702 -3185.2935 -3169.7844 -3154.074 -3138.7664 -3123.8616 -3109.0576 -3094.3542 -3079.651 -3065.048 -3050.647 -3036.3464 -3022.2473 -3008.2488 -1866.2201 726.10474 3299.8992 3299.8992 3299.8992 3299.8992 
-3064.2424 -986.0321 1340.1215 3299.8992 3299.8992 3299.8992 3299.8992 3299.8992 3299.8992 3299.8992 3299.8992 3299.8992 3299.8992 3299.8992 3299.8992 3299.8992 3299.8992 3299.8992 3299.8992 3285.901 3270.6938 -157.00378 3273.2117 3289.0227 3299.8992 -3280.0598 -3264.9536 -3249.8474 -3234.7412 -3220.2393 -3205.6365 -3191.034 -3177.0354 -3162.4329 -3148.3337 -3134.2346 -3120.4375 -3106.6406 -3092.8435 -3079.3486 -3039.972 -1173.4497 1051.4923 3103.72 3299.8992 3299.8992 3299.8992 3299.8992 3299.8992 3299.8992 3299.8992 3299.8992 3299.8992 3299.8992 3299.8992 3299.8992 3299.8992 3299.8992 3299.8992 3287.1094 3271.701 -896.6034 3276.535 3292.2454 3299.8992 -3277.0386 -3261.731 -3246.7253 -3231.6191 -3217.1172 -3202.6152 -3188.0127 -3173.6113 -3159.5122 -3145.3125 -3131.314 -3117.4163 -3103.6194 -3090.0237 -3076.5288 -3060.9192 -1342.8406 869.61365 2891.8303 3299.8992 3299.8992 3299.8992 3299.8992 3299.8992 3299.8992 3299.8992 3299.8992 3299.8992 3299.8992 3299.8992 3299.8992 3299.8992 3299.8992 3299.8992 3292.1448 3276.535 -1296.817 3282.5774 3298.2878 -3286.3037 -3270.8953 -3255.89 -3240.7837 -3226.2817 -3211.1755 -3196.6736 -3182.2722 -3167.7703 -3153.772 -3139.6729 -3125.6743 -3111.8774 -3098.0803 -3084.4849 -3070.99 -2977.835 -908.68835 1321.8933 3202.011 3299.8992 3299.8992 3299.8992 
2376.8096 444.92798 -1171.0327 -2573.0896 3128.4941 3144.3054 3160.0159 3175.525 3190.933 3206.543 3221.6492 3237.1582 3252.1636 3266.867 3281.9731 3296.878 -3288.4185 -3273.816 -3259.2131 -3244.812 -3230.612 294.06738 3299.8992 3299.8992 3299.8992 3299.8992 3299.8992 3291.0369 3276.233 3261.026 3246.222 3231.6191 3216.8152 3201.8096 3186.6028 3172.5037 3158.2031 3143.9026 3129.602 3112.2803 2161.9995 149.55139 -1499.9451 -2700.888 3129.5012 3145.3125 3161.023 3176.532 3191.9402 3207.1472 3222.5554 3237.3596 3252.2644 3267.6726 3282.5774 3297.0793 -3288.3179 -3273.715 -3259.1125 -3244.7112 -3230.5115 585.0128 3299.8992 3299.8992 3299.8992 3299.8992 3299.8992 3290.0298 3275.125 3260.4216 3245.6177 3230.612 3215.808 3201.5076 3186.2 3171.5972 3157.2966 3142.996 3128.7964 3111.4746 2183.7524 151.46484 -1460.4675 -2758.5938 3128.4941 3144.5068 3160.1165 3175.6255 3191.034 3206.543 3221.6492 3237.1582 3252.2644 3266.7664 3281.9731 3296.878 -3288.4185 -3273.715 -3259.314 -3244.812 -3230.5115 1248.5779 3299.8992 3299.8992 3299.8992 3299.8992 3299.8992 3287.3108 3272.5066 3257.4004 3242.395 3228.0945 3213.2903 3198.184 3183.1787 3168.9788 3154.6782 3140.4785 3126.0771 3080.658 1658.258 -368.28918 -1875.7874 -3138.4644 3134.738 3150.5493 3166.2598 
-2893.9453 -2396.5483 -1067.2028 298.29712 1624.2188 2745.9045 3299.8992 3299.8992 3299.8992 3299.8992 3299.8992 3299.8992 3299.8992 3299.8992 3299.8992 3299.8992 3299.8992 3299.8992 3299.8992 3299.8992 3299.8992 2518.0022 -3151.7578 -3136.148 -3120.7397 -3105.6335 -3090.7288 -3075.9246 -3061.322 -3046.7192 -3032.5195 -3018.4204 -3004.3213 -2990.3228 -2976.526 -2962.7288 -2949.1333 -2935.437 -2922.2441 -2908.7493 -2895.758 -2270.7642 -940.4114 385.61096 1591.2872 2629.486 3299.8992 3299.8992 3299.8992 3299.8992 3299.8992 3299.8992 3299.8992 3299.8992 3299.8992 3299.8992 3299.8992 3299.8992 3299.8992 3299.8992 3299.8992 2045.1782 -3151.355 -3135.745 -3120.337 -3105.3313 -3090.4265 -3075.6226 -3061.0198 -3046.3164 -3032.1167 -3018.1182 -3003.9185 -2989.92 -2976.123 -2962.326 -2948.6296 -2935.1348 -2921.7407 -2908.4473 -2895.3552 -2313.4644 -968.6096 353.08228 1681.5216 2721.7346 3299.8992 3299.8992 3299.8992 3299.8992 3299.8992 3299.8992 3299.8992 3299.8992 3299.8992 3299.8992 3299.8992 3299.8992 3299.8992 3299.8992 3299.8992 1996.2341 -3151.657 -3135.9465 -3120.639 -3105.5327 -3090.628 -3075.824 -3061.2212 -3047.0215 -3032.318 -3018.1182 -3004.019 -2990.1213 -2976.2236 -2962.5273 -2948.831 -2935.3362 -2921.8413 -2908.5479 -2895.4558 -2134.3047 -813.9221 471.91772 1657.8552 2656.2744 3299.8992 
1908.8196 402.83203 -803.2471 -1741.04 -2499.8748 -3131.1125 3094.1528 3110.971 3127.588 3143.7012 3160.3179 3176.6326 3192.6453 3208.7585 3224.6704 3240.5823 3256.2927 3272.2046 3287.7136 3299.8992 -3281.369 -196.48132 3299.8992 3299.7986 3284.491 3269.3848 3254.0771 3238.971 3223.8647 3208.5571 3193.1487 3177.7405 3162.332 3146.9238 3131.7168 3116.7114 3101.2024 3086.7004 3071.7957 2908.85 1750.3052 353.98865 -726.50757 -1687.9669 -2432.7026 -3090.5273 3092.5415 3109.4604 3125.8757 3142.694 3158.908 3174.9207 3191.1345 3207.1472 3223.059 3238.971 3254.782 3270.4924 3286.0015 3299.8992 -3282.9802 230.72205 3299.8992 3296.0723 3280.7646 3265.6584 3250.3508 3235.144 3219.937 3204.7302 3189.5232 3174.115 3158.7065 3143.399 3128.1921 3113.086 3097.6775 3083.2764 3068.1702 2933.9263 1765.1093 327.30103 -835.0708 -1808.0109 -2677.1208 3222.2534 3092.4407 3109.259 3125.7751 3142.694 3158.7065 3174.9207 3190.933 3207.0464 3223.059 3238.7695 3254.6814 3270.3918 3286.0015 3299.8992 -3282.9802 717.9474 3299.8992 3293.2524 3278.0457 3262.8386 3247.7324 3232.5256 3217.218 3202.2124 3186.8042 3171.3958 3156.0881 3140.68 3125.473 3110.669 3095.059 3080.5571 3064.4438 2816.6016 1497.9309 100.305176 -980.7953 -1915.8691 -2700.0823 3280.1604 3093.8506 
-1522.3022 -1163.681 -845.94727 -620.86487 -380.67627 -157.60803 243.71338 1218.7683 2260.1897 2969.0735 3299.8992 3299.8992 3299.8992 3299.8992 3299.8992 3299.8992 3299.8992 3299.8992 3299.8992 3299.8992 3299.8992 1573.5626 -118.63403 -1299.7375 -2476.6113 -3126.0771 -3111.1724 -3096.5698 -3081.967 -3067.6665 -3053.366 -3039.2668 -3025.2686 -3011.27 -2994.6533 -2617.1997 -2186.8743 -1794.2139 -1627.3407 -1630.9662 -1294.8029 -870.0165 -567.0868 -408.37097 -208.7677 12.689209 311.9934 1178.6865 1790.7898 2550.0273 3299.8992 3299.8992 3299.8992 3299.8992 3299.8992 3299.8992 3299.8992 3299.8992 3299.8992 3299.8992 3268.1763 1530.0568 -93.759155 -1348.7823 -2496.4507 -3121.646 -3106.842 -3092.1387 -3077.536 -3063.2354 -3048.9348 -3034.735 -3020.7366 -3006.8389 -2912.2742 -2614.8833 -2294.229 -1961.087 -1765.7135 -1632.2754 -1280.5023 -839.1998 -534.96094 -296.28296 6.4453125 165.46326 473.42834 1470.8405 2364.0198 3160.62 3299.8992 3299.8992 3299.8992 3299.8992 3299.8992 3299.8992 3299.8992 3299.8992 3299.8992 3299.8992 3260.5225 1446.4691 -171.80786 -1398.8342 -2464.5264 -3124.768 -3109.8633 -3095.16 -3080.5571 -3066.156 -3052.057 -3037.9578 -3023.7578 -3009.86 -2972.1953 -2540.7622 -2046.0846 -1710.6262 -1625.8301 -1401.9562 -1067.5049 -822.98584 -708.78296 -471.21277 -341.29944 -191.64734 211.58752 

-26.78833 -26.78833 -26.78833 -26.78833 -26.78833 -26.78833 -26.78833 -26.78833 -26.78833 -26.78833 -26.78833 -26.78833 -26.78833 -26.78833 -26.78833 -26.78833 -26.78833 -26.78833 -26.78833 -26.78833 -1.1077881 -1.1077881 5.6396484 -21.853638 -60.324097 -74.2218 -82.78198 -77.74658 -94.96765 -87.213135 -63.24463 -17.422485 27.694702 77.041626 94.66553 100.808716 72.81189 42.90161 11.178589 11.279297 9.063721 23.364258 32.226562 19.73877 14.501953 19.335938 26.28479 49.95117 73.516846 95.269775 92.95349 86.50818 57.907104 -19.23523 -70.09277 -78.95508 -41.290283 -8.459473 2.9205322 16.314697 16.314697 16.314697 16.314697 16.314697 16.314697 16.314697 16.314697 16.314697 16.314697 16.314697 16.314697 16.314697 16.314697 16.314697 16.314697 16.314697 16.314697 16.314697 16.314697 16.314697 16.314697 16.314697 16.314697 16.314697 16.314697 16.314697 16.314697 16.314697 16.314697 16.314697 16.314697 16.314697 16.314697 16.314697 16.314697 16.314697 16.314697 16.314697 16.314697 16.314697 16.314697 16.314697 16.314697 16.314697 16.314697 16.314697 16.314697 16.314697 16.314697 16.314697 16.314697 16.314697 16.314697 16.314697 16.314697 16.314697 16.314697 16.314697 16.314697 16.314697 16.314697 16.314697 16.314697 16.314697 16.314697 16.314697 16.314697 16.314697 16.314697 16.314697 16.314697 16.314697 16.314697 16.314697 16.314697 16.314697 16.314697 16.314697 16.314697 16.314697 16.314697 16.314697 16.314697 16.314697 16.314697 16.314697 16.314697 16.314697 16.314697 16.314697 16.314697 16.314697 16.314697 16.314697 16.314697 16.314697 16.314697 16.314697 16.314697 16.314697 16.314697 16.314697 16.314697 16.314697 16.314697 16.314697 16.314697 16.314697 16.314697 16.314697 16.314697 16.314697 16.314697 16.314697 16.314697 16.314697 16.314697 16.314697 16.314697 16.314697 16.314697 16.314697 16.314697 16.314697 16.314697 16.314697 16.314697 16.314697 16.314697 16.314697 16.314697 16.314697 16.314697 16.314697 16.314697 16.314697 16.314697 16.314697 16.314697 16.314697 -28.701782 -24.975586 -30.917358 -25.579834 -41.189575 -35.247803 -26.486206 -14.199829 -27.191162 31.82373 40.786743 73.31543 102.420044 114.60571 121.15173 127.29492 115.91492 60.12268 -12.689209 -114.4043 
19.638062 -11.782837 -10.977173 -6.1431885 -33.33435 0.40283203 20.24231 13.796997 1.7120361 -3.9276123 3.3233643 51.663208 101.412964 107.455444 116.11633 120.043945 112.59155 70.495605 70.79773 119.84253 149.14856 159.7229 128.2013 86.8103 31.723022 22.25647 6.9488525 -14.703369 -49.0448 -65.76233 -85.40039 -78.652954 -64.453125 -65.3595 -101.01013 -119.540405 -127.39563 -134.24377 -121.051025 -86.91101 -52.670288 -35.34851 -13.092041 0 13.897705 13.897705 14.602661 27.79541 41.592407 42.90161 27.090454 29.910278 25.177002 -4.2297363 2.1148682 2.7191162 2.7191162 16.21399 20.645142 22.055054 11.077881 -6.3446045 -20.645142 -17.523193 -18.026733 -26.184082 -32.730103 -39.37683 -38.269043 -40.081787 -52.770996 -44.41223 -19.638062 -1.8127441 5.8410645 1.8127441 15.106201 33.032227 71.7041 97.38464 110.6781 90.33508 102.21863 124.97864 152.87476 167.88025 181.073 162.74414 113.09509 42.800903 3.6254883 -35.751343 -54.785156 -64.956665 -45.01648 -40.585327 -53.778076 -122.96448 -148.74573 -131.62537 -133.03528 -137.0636 -150.25635 -152.1698 -138.47351 -99.3988 -66.26587 -56.900024 -29.30603 -7.7545166 15.106201 31.521606 50.756836 71.30127 74.020386 97.58606 136.76147 172.3114 195.67566 207.25708 203.32947 183.08716 167.37671 159.11865 133.84094 93.55774 35.95276 -39.47754 -109.57031 -119.33899 -121.051025 -134.74731 -175.33264 -186.91406 -195.77637 -238.8794 -264.86206 -237.57019 -183.99353 -126.690674 -68.78357 -24.069214 5.5389404 26.385498 26.083374 10.574341 2.7191162 4.4311523 -18.530273 -9.869385 38.067627 97.38464 132.33032 162.34131 155.9967 153.17688 150.9613 130.41687 119.64111 119.4397 93.759155 33.132935 -30.615234 -82.58057 -115.7135 -143.81104 -166.57104 -192.65442 -184.7992 -183.5907 -161.23352 -109.87244 -61.431885 -35.85205 -15.106201 -6.5460205 -3.4240723 -12.588501 -12.588501 -23.968506 -24.673462 -21.047974 -23.162842 -24.874878 -8.660889 1.8127441 0.70495605 10.070801 24.673462 51.461792 59.014893 70.09277 74.12109 72.81189 59.518433 54.986572 50.55542 35.549927 23.062134 16.314697 -5.3375244 -24.169922 -11.077881 -13.595581 -8.560181 13.394165 21.450806 27.29187 5.2368164 74.32251 121.051025 151.46484 166.97388 159.11865 145.01953 130.51758 126.48926 110.980225 33.032227 -45.01648 
3299.8992 3299.8992 3299.8992 3299.8992 3299.8992 3299.8992 3299.8992 3299.8992 3299.8992 3299.8992 3299.8992 3299.8992 3299.8992 3299.8992 -2146.692 -3280.2612 -3263.6443 -3247.3296 -3231.1157 -3215.103 -3199.1912 -3183.1787 -3168.173 -3152.4626 -3137.155 -3122.1497 -3107.4463 -3092.642 -3077.9387 -3063.4368 -3049.0356 -3034.735 -3020.636 -3006.7383 -1679.1046 919.3634 3299.8992 3299.8992 3299.8992 3299.8992 3299.8992 3299.8992 3299.8992 3299.8992 3299.8992 3299.8992 3299.8992 3299.8992 3299.8992 3299.8992 3299.8992 3299.8992 3299.8992 3299.8992 -3025.8728 -3277.9448 -3261.2273 -3244.9126 -3228.6987 -3212.7869 -3196.9756 -3181.668 -3165.6555 -3150.7507 -3135.5437 -3120.337 -3105.3313 -3090.4265 -3075.9246 -3061.322 -3046.9207 -3032.62 -3018.6218 -3004.724 -1521.2952 1001.84326 3299.8992 3299.8992 3299.8992 3299.8992 3299.8992 3299.8992 3299.8992 3299.8992 3299.8992 3299.8992 3299.8992 3299.8992 3299.8992 3299.8992 3299.8992 3299.8992 3299.8992 3299.8992 -3294.058 -3276.9377 -3260.321 -3244.0063 -3227.7922 -3211.7798 -3196.0693 -3180.1575 -3164.9504 -3149.1394 -3134.0332 -3119.1284 -3104.3242 -3089.7217 -3074.9175 -3060.5164 -3046.115 -3031.9153 -3017.8162 -3003.8176 -1208.9996 1421.1914 3299.8992 3299.8992 3299.8992 3299.8992 3299.8992 3299.8992 3299.8992 3299.8992 3299.8992 3299.8992 3299.8992 3299.8992 3299.8992 3299.8992 3299.8992 3299.8992 3299.8992 3299.8992 -3294.159 -3277.1392 -3260.5225 -3244.107 -3227.893 -3211.9812 -3196.17 -3180.258 -3165.2527 -3149.3408 -3134.1338 -3119.3298 -3104.5256 -3089.7217 -3075.119 -3060.617 -3046.3164 -3032.0159 -3017.8162 -3004.019 -1357.0404 1243.2404 3299.8992 3299.8992 3299.8992 3299.8992 3299.8992 3299.8992 3299.8992 3299.8992 3299.8992 3299.8992 3299.8992 3299.8992 3299.8992 3299.8992 3299.8992 3299.8992 3299.8992 3299.8992 -3290.1306 -3273.2117 -3256.6956 -3240.28 -3224.1667 -3208.255 -3192.4438 -3177.1362 -3161.7278 -3146.1182 -3130.9111 -3116.0063 -3101.303 -3086.499 -3071.8962 -3057.495 -3043.0938 -3028.7932 -3014.8955 -2997.3723 -1106.6803 1422.9034 3299.8992 3299.8992 3299.8992 3299.8992 3299.8992 3299.8992 3299.8992 3299.8992 3299.8992 3299.8992 3299.8992 3299.8992 3299.8992 3299.8992 3299.8992 3299.8992 3299.8992 3299.8992 -3288.4185 -3271.4995 -3254.782 -3238.568 -3222.5554 -3206.4421 
3299.8992 3299.8992 3299.8992 3299.8992 3299.8992 3299.8992 3299.8992 3299.8992 3299.8992 3299.8992 3299.8992 3299.8992 3292.1448 3276.535 -2170.5596 3285.0952 3299.8992 -3283.6853 -3268.579 -3253.372 -3238.3667 -3223.8647 -3208.8591 -3194.2566 -3179.956 -3165.3533 -3151.4556 -3137.4573 -3123.4587 -3109.561 -3095.8647 -3082.3699 -3068.7744 -2919.8271 -869.61365 1286.9476 3289.224 3299.8992 3299.8992 3299.8992 3299.8992 3299.8992 3299.8992 3299.8992 3299.8992 3299.8992 3299.8992 3299.8992 3299.8992 3299.8992 3299.8992 3299.8992 3293.8567 3278.1462 -2868.3655 3288.6199 3299.8992 -3280.2612 -3265.0542 -3249.948 -3235.0432 -3220.4407 -3205.536 -3191.034 -3176.532 -3162.1306 -3148.1323 -3134.1338 -3120.1355 -3106.3384 -3092.5415 -3079.1472 -3065.7532 -2904.016 -931.5491 1226.825 3299.8992 3299.8992 3299.8992 3299.8992 3299.8992 3299.8992 3299.8992 3299.8992 3299.8992 3299.8992 3299.8992 3299.8992 3299.8992 3299.8992 3299.8992 3299.8992 3296.475 3280.664 3278.3477 3294.461 -3289.9292 -3274.6216 -3259.314 -3244.3083 -3229.5044 -3214.9016 -3199.9968 -3185.5957 -3171.1943 -3156.6924 -3142.7947 -3128.7964 -3114.8987 -3101.2024 -3087.506 -3074.0112 -3060.5164 -2475.8057 -201.2146 1829.1595 3299.8992 3299.8992 3299.8992 3299.8992 3299.8992 3299.8992 3299.8992 3299.8992 3299.8992 3299.8992 3299.8992 3299.8992 3299.8992 3299.8992 3299.8992 3299.8992 3294.159 3278.247 3276.6357 3292.6482 3299.8992 -3276.3335 -3261.026 -3246.0205 -3231.1157 -3216.11 -3201.8096 -3187.207 -3172.9065 -3158.908 -3144.5068 -3130.4077 -3116.7114 -3102.713 -3089.1174 -3075.6226 -3062.1277 -2543.4814 -269.79675 1915.9698 3299.8992 3299.8992 3299.8992 3299.8992 3299.8992 3299.8992 3299.8992 3299.8992 3299.8992 3299.8992 3299.8992 3299.8992 3299.8992 3299.8992 3299.8992 3299.8992 3292.3462 3273.2117 3277.6428 3293.6553 3299.8992 -3275.3264 -3260.1196 -3245.2148 -3230.2092 -3215.3044 -3200.8025 -3186.4014 -3172.1008 -3157.498 -3143.6003 -3129.602 -3115.6035 -3101.9072 -3088.3118 -3074.716 -3061.4226 -2300.9766 -64.05029 2109.5305 3299.8992 3299.8992 3299.8992 3299.8992 3299.8992 3299.8992 3299.8992 3299.8992 3299.8992 3299.8992 3299.8992 3299.8992 3299.8992 3299.8992 3299.8992 3299.8992 3290.332 3225.3752 3277.3406 3293.3533 3299.8992 -3275.6287 -3260.4216 -3245.4163 
3181.7688 3197.177 3212.2832 3227.4902 3242.2942 3257.4004 3272.8088 3287.6128 3299.8992 -3283.2825 -3268.7805 -3254.2786 -3239.8772 -3225.5767 1812.3413 3299.8992 3299.8992 3299.8992 3299.8992 3299.8992 3290.2312 3275.3264 3260.321 3245.819 3230.9143 3216.0095 3201.709 3186.3005 3171.698 3157.3975 3142.996 3128.897 3102.713 1676.9897 -134.6466 -1682.3273 -2954.5715 3134.5366 3150.4485 3166.0583 3181.5674 3196.875 3212.4846 3227.4902 3242.8984 3257.904 3272.6074 3287.7136 3299.8992 -3282.6782 -3268.2769 -3253.6743 -3239.273 -3225.1738 2384.3628 3299.8992 3299.8992 3299.8992 3299.8992 3299.8992 3288.6199 3273.816 3258.7097 3243.704 3229.2021 3214.4988 3199.3926 3184.2864 3170.1873 3155.8867 3141.5862 3127.487 3106.9426 1778.302 -178.5553 -1750.1038 -3119.1284 3133.8318 3149.6428 3165.3533 3180.8623 3196.2708 3211.377 3226.7852 3241.7908 3256.9976 3271.6003 3286.6057 3299.8992 -3283.786 -3269.3848 -3254.8828 -3240.4814 -3226.2817 2693.637 3299.8992 3299.8992 3299.8992 3299.8992 3299.8992 3286.4043 3271.4995 3256.4941 3241.7908 3226.5837 3211.8804 3197.4792 3182.2722 3167.6697 3153.2683 3139.0686 3124.768 2986.3953 1401.7548 -486.7218 -1924.53 -3102.1086 3135.745 3151.4556 3167.166 3182.675 3197.9827 3213.4917 3228.4973 3243.9055 3259.0117 3273.5137 3288.6199 3299.8992 -3281.7717 -3267.2698 -3252.6672 -3238.3667 -3137.155 3299.8992 3299.8992 3299.8992 3299.8992 3299.8992 3299.8992 3286.1023 3271.298 3256.192 3241.1865 3226.7852 3211.9812 3196.875 3181.8694 3167.6697 3153.3691 3139.1692 3124.8687 2982.5684 1366.7084 -464.0625 -1904.6906 -3171.2952 3135.9465 3151.657 3167.4683 3182.9773 3198.285 3213.391 3228.598 3243.704 3258.8103 3273.413 3288.6199 3299.8992 -3281.8726 -3267.3706 -3252.8687 -3238.3667 -2950.1404 3299.8992 3299.8992 3299.8992 3299.8992 3299.8992 3298.6907 3284.0881 3269.1833 3254.0771 3239.3738 3224.2676 3209.5642 3195.1628 3179.956 3165.2527 3150.9521 3136.7522 3122.0488 2770.7793 1006.77795 -794.989 -2183.551 3265.0542 3139.27 3154.9805 3170.691 3186.099 3201.4067 3216.9158 3232.2234 3247.0276 3262.033 3277.3406 3292.2454 3299.8992 -3278.8513 -3264.3494 -3249.8474 -3235.446 -2612.5671 3299.8992 3299.8992 3299.8992 3299.8992 3299.8992 3299.1943 
3299.8992 3299.8992 3299.8992 3299.8992 3299.8992 3299.8992 3299.8992 3299.8992 3299.8992 3299.8992 3299.8992 3299.8992 3299.8992 3299.8992 1629.7577 -3151.2542 -3135.6445 -3120.337 -3105.2307 -3090.326 -3075.6226 -3061.0198 -3046.82 -3032.1167 -3017.9167 -3003.8176 -2989.8193 -2975.9216 -2962.2253 -2948.6296 -2935.1348 -2921.7407 -2908.5479 -2895.2544 -1985.1562 -688.2385 599.8169 1792.5018 2924.3591 3299.8992 3299.8992 3299.8992 3299.8992 3299.8992 3299.8992 3299.8992 3299.8992 3299.8992 3299.8992 3299.8992 3299.8992 3299.8992 3299.8992 3299.8992 951.48926 -3150.8513 -3135.2417 -3119.934 -3104.9285 -3090.0237 -3075.2197 -3060.617 -3045.9136 -3031.7139 -3017.514 -3003.6162 -2989.618 -2975.7202 -2962.024 -2948.3276 -2934.8328 -2921.4385 -2908.2458 -2895.053 -2063.7085 -775.55237 440.79895 1711.2305 2830.5999 3299.8992 3299.8992 3299.8992 3299.8992 3299.8992 3299.8992 3299.8992 3299.8992 3299.8992 3299.8992 3299.8992 3299.8992 3299.8992 3299.8992 3299.8992 574.4385 -3146.3196 -3130.6091 -3115.503 -3100.3967 -3085.5925 -3070.8892 -3056.2866 -3041.5833 -3027.4841 -3013.385 -2999.3865 -2985.4888 -2971.591 -2957.8948 -2944.2993 -2930.8044 -2917.4102 -2904.1167 -2891.0247 -1681.2195 -271.6095 1043.9392 2334.0088 3299.8992 3299.8992 3299.8992 3299.8992 3299.8992 3299.8992 3299.8992 3299.8992 3299.8992 3299.8992 3299.8992 3299.8992 3299.8992 3299.8992 3299.8992 3299.8992 343.71643 -3152.664 -3137.155 -3121.8474 -3106.842 -3091.9373 -3077.0325 -3062.329 -3047.8271 -3033.6272 -3019.528 -3005.429 -2991.4307 -2977.533 -2963.8367 -2950.241 -2936.746 -2923.2512 -2910.0586 -2896.6643 -1815.1611 -361.74316 1061.966 2274.0874 3299.8992 3299.8992 3299.8992 3299.8992 3299.8992 3299.8992 3299.8992 3299.8992 3299.8992 3299.8992 3299.8992 3299.8992 3299.8992 3299.8992 3299.8992 3299.8992 -174.92981 -3153.772 -3138.263 -3123.1567 -3108.0505 -3093.1458 -3078.3416 -3063.739 -3049.64 -3035.138 -3020.7366 -3006.7383 -2992.6392 -2978.842 -2965.0452 -2951.5503 -2937.9546 -2924.5605 -2911.1663 -2894.3481 -1738.4216 -430.1239 901.23596 2114.9688 3256.0913 3299.8992 3299.8992 3299.8992 3299.8992 3299.8992 3299.8992 3299.8992 3299.8992 3299.8992 3299.8992 3299.8992 3299.8992 3299.8992 3299.8992 3299.8992 -431.03027 -3152.4626 -3136.7522 -3121.646 -3106.5398 -3091.635 
3110.669 3127.185 3143.9026 3160.2173 3176.2297 3192.343 3208.3557 3224.3682 3240.0786 3255.89 3271.6003 3287.3108 3299.8992 -3281.7717 961.45935 3299.8992 3293.2524 3278.1462 3262.8386 3247.6318 3232.4248 3217.218 3201.9104 3186.502 3171.2952 3155.7861 3140.68 3125.3723 3110.4675 3094.9585 3080.4565 3063.4368 2765.744 1368.3197 -30.413818 -1115.744 -2006.1035 -2831.8083 3102.411 3097.476 3114.093 3130.6091 3146.823 3163.5405 3179.7546 3195.767 3211.8804 3227.6917 3243.6035 3259.314 3275.125 3290.634 3299.8992 -3253.6743 1467.7185 3299.8992 3293.9575 3278.65 3263.4429 3248.236 3233.029 3217.8223 3202.1118 3187.207 3172 3156.5918 3141.3848 3126.178 3111.1724 3095.462 3081.2622 3063.8396 2760.205 1434.6863 89.12659 -1021.78345 -1976.4954 -2762.4207 3207.0464 3095.9656 3112.5823 3129.1992 3145.3125 3161.9292 3178.244 3194.3572 3210.3699 3226.181 3242.0928 3257.8032 3273.5137 3289.224 3299.8992 -3217.7214 1544.458 3299.8992 3291.9434 3276.7363 3261.5295 3246.3225 3231.2163 3215.9087 3200.0977 3185.1929 3169.9858 3154.6782 3139.3706 3124.063 3109.259 3093.5486 3079.1472 3060.315 2500.9827 1101.6449 -220.24841 -1317.6636 -2245.0835 -3055.0781 3086.0962 3103.1157 3119.6318 3136.148 3152.8655 3168.8782 3184.9915 3201.1047 3217.1172 3232.9285 3248.7395 3264.45 3280.1604 3295.6694 -3288.8213 -3004.6233 2121.0112 3299.8992 3295.468 3280.1604 3264.9536 3249.646 3234.6404 3219.2322 3203.6223 3188.617 3173.3093 3157.901 3142.5933 3127.487 3112.4817 3096.9727 3082.4707 3064.8467 2601.2878 1195.8069 -175.43335 -1204.065 -2113.6597 -2902.002 3086.2976 3102.9143 3119.6318 3136.0474 3152.765 3168.7773 3184.8906 3201.004 3217.0166 3232.8276 3248.639 3264.45 3280.0598 3295.6694 -3288.8213 -2714.685 2708.6426 3299.8992 3292.2454 3277.0386 3261.8315 3246.6248 3231.5186 3216.11 3201.1047 3185.6963 3170.0867 3154.779 3139.572 3124.4658 3109.3596 3093.8506 3079.3486 3061.0198 2435.8245 937.9944 -327.50244 -1349.3866 -2207.2173 -2960.916 3087.3047 3104.1228 3120.7397 3137.2559 3153.9734 3170.0867 3186.099 3202.2124 3218.1243 3234.137 3249.948 3265.6584 3281.4697 3296.878 -3287.7136 -2534.5183 2938.0554 3299.8992 3292.044 3276.8372 3261.6301 3246.4233 
1232.666 2197.4487 3112.0789 3299.8992 3299.8992 3299.8992 3299.8992 3299.8992 3299.8992 3299.8992 3299.8992 3299.8992 3299.8992 3181.0637 1219.6747 -369.39697 -1547.4792 -2667.453 -3120.5383 -3105.6335 -3090.9302 -3076.3274 -3062.4297 -3048.1292 -3033.5266 -3019.629 -3005.7312 -2991.934 -2765.442 -2318.9026 -1825.0305 -1622.3053 -1433.3771 -1126.5198 -721.37146 -461.4441 -148.64502 36.4563 338.78174 609.48486 1572.9584 2266.2322 3182.1716 3299.8992 3299.8992 3299.8992 3299.8992 3299.8992 3299.8992 3299.8992 3299.8992 3299.8992 3299.8992 2860.5103 811.3037 -663.7665 -1840.8417 -2899.6855 -3117.3157 -3102.6123 -3087.909 -3073.5076 -3059.3079 -3045.0073 -3030.8074 -3017.111 -3003.012 -2782.26 -2426.6602 -2141.1528 -1851.0132 -1662.8906 -1612.9395 -1400.3448 -1351.5015 -1125.2106 -779.07715 -340.39307 -80.56641 418.8446 1609.9182 2374.594 3299.8992 3299.8992 3299.8992 3299.8992 3299.8992 3299.8992 3299.8992 3299.8992 3299.8992 3299.8992 3299.8992 3061.5234 1193.7927 -340.29236 -1568.1244 -2734.2224 -3110.3667 -3095.462 -3080.96 -3066.458 -3052.359 -3038.1592 -3023.9592 -3009.961 -2996.1638 -2787.4968 -2476.41 -2201.5776 -1781.1218 -1472.5525 -1325.116 -1082.8125 -776.1566 -541.20483 -378.36 -239.68506 -33.032227 526.50146 1586.9568 2335.4187 3299.8992 3299.8992 3299.8992 3299.8992 3299.8992 3299.8992 3299.8992 3299.8992 3299.8992 3299.8992 3299.8992 2748.2207 750.8789 -662.558 -1785.7544 -2854.2664 -3108.0505 -3093.3472 -3078.8452 -3064.3433 -3050.1433 -3036.0442 -3021.945 -3007.9468 -2994.1497 -2755.9753 -2394.7356 -1989.8895 -1465.1001 -1235.1837 -1007.1808 -734.2621 -492.46216 -251.87073 -87.11243 21.853638 265.3656 884.92126 1924.7314 2573.7944 3299.8992 3299.8992 3299.8992 3299.8992 3299.8992 3299.8992 3299.8992 3299.8992 3299.8992 3299.8992 3299.8992 2440.9607 537.8815 -741.51306 -1803.1769 -2779.0374 -3121.1426 -3106.3384 -3091.8364 -3077.234 -3062.8325 -3048.6328 -3034.4329 -3020.5352 -3006.5369 -2877.0264 -2547.3083 -2208.5266 -1771.8567 -1494.4061 -1425.7233 -1255.9296 -1111.3129 -830.74036 -610.79407 -382.08618 -81.27136 528.5156 1715.863 2537.741 3299.8992 3299.8992 3299.8992 3299.8992 3299.8992 3299.8992 3299.8992 3299.8992 3299.8992 3299.8992 3299.8992 2620.0195 668.7012 -688.2385 -1891.9006 -3007.6445 -3111.7766 -3097.0732 

-114.4043 -114.4043 -114.4043 -114.4043 -114.4043 -114.4043 -114.4043 -114.4043 -114.4043 -114.4043 -114.4043 -114.4043 -114.4043 -114.4043 -114.4043 -114.4043 -114.4043 -114.4043 -114.4043 -114.4043 76.7395 25.982666 -12.991333 -31.219482 -44.714355 -48.339844 -43.707275 -20.544434 5.8410645 17.22107 15.911865 -1.4099121 -43.50586 -50.152588 -30.413818 -32.528687 -56.5979 -73.31543 -83.38623 -85.80322 -85.80322 -85.80322 -85.80322 -85.80322 -85.80322 -85.80322 -85.80322 -85.80322 -85.80322 -85.80322 -85.80322 -85.80322 -85.80322 -85.80322 -85.80322 -85.80322 -85.80322 -85.80322 -85.80322 -85.80322 -85.80322 -85.80322 -85.80322 -85.80322 -85.80322 -85.80322 -85.80322 -85.80322 -85.80322 -85.80322 -85.80322 -85.80322 -85.80322 -85.80322 -85.80322 -85.80322 -85.80322 -85.80322 -85.80322 -85.80322 -85.80322 -85.80322 -85.80322 -85.80322 -85.80322 -85.80322 -85.80322 -85.80322 -85.80322 -85.80322 -85.80322 -85.80322 -85.80322 -85.80322 -85.80322 -85.80322 -85.80322 -85.80322 -85.80322 -85.80322 -85.80322 -85.80322 -85.80322 -85.80322 -85.80322 -85.80322 -85.80322 -85.80322 -85.80322 -85.80322 -85.80322 -85.80322 -85.80322 -85.80322 -85.80322 -85.80322 -85.80322 -85.80322 -85.80322 -85.80322 54.58374 56.396484 40.98816 -16.918945 -80.86853 -101.21155 -84.695435 -64.25171 -39.779663 -26.78833 -23.364258 -19.537354 -6.1431885 -7.4523926 -8.761597 -3.1219482 -4.1290283 -2.1148682 3.7261963 12.387085 4.6325684 6.4453125 7.4523926 0.30212402 4.5318604 11.077881 6.0424805 -10.473633 -4.1290283 -3.2226562 -9.768677 -6.8481445 -7.9559326 -3.9276123 5.0354004 5.2368164 2.3162842 0.60424805 -2.5177002 5.7403564 5.7403564 5.7403564 5.7403564 5.7403564 5.7403564 5.7403564 5.7403564 5.7403564 5.7403564 5.7403564 5.7403564 5.7403564 5.7403564 5.7403564 5.7403564 5.7403564 5.7403564 5.7403564 5.7403564 5.7403564 5.7403564 5.7403564 5.7403564 5.7403564 5.7403564 5.7403564 5.7403564 5.7403564 5.7403564 5.7403564 5.7403564 5.7403564 5.7403564 5.7403564 5.7403564 5.7403564 5.7403564 5.7403564 5.7403564 5.7403564 
-72.9126 -103.22571 -125.68359 -113.29651 -86.206055 -72.509766 -73.91968 -74.82605 -78.75366 -83.184814 -81.97632 -66.56799 -78.652954 -67.474365 -43.90869 -23.464966 -19.839478 -5.2368164 3.3233643 10.675049 9.466553 9.365845 7.1502686 7.5531006 15.710449 22.357178 34.140015 39.578247 44.91577 60.525513 58.914185 47.131348 27.493286 31.924438 62.539673 75.73242 63.345337 45.92285 19.335938 -9.869385 -10.272217 -7.5531006 12.387085 24.673462 44.110107 44.613647 29.406738 -8.459473 -21.75293 -20.24231 -13.696289 -48.138428 -50.354004 -35.85205 -44.311523 -41.99524 -14.602661 12.185669 38.168335 58.71277 64.35242 83.184814 114.001465 116.31775 106.64978 113.80005 146.22803 156.90308 181.97937 210.68115 226.19019 231.02417 195.27283 112.28943 63.446045 37.261963 -2.7191162 -37.060547 -109.3689 -232.93762 -359.02405 -397.69592 -380.47485 -357.81555 -311.69128 -261.94153 -206.95496 -157.00378 -134.5459 -122.46094 -95.67261 -59.921265 -43.203735 -17.523193 -9.667969 7.4523926 25.378418 38.47046 43.606567 33.83789 -1.4099121 -33.032227 -45.721436 -22.25647 25.177002 54.18091 52.368164 31.420898 6.5460205 6.3446045 26.687622 40.283203 34.744263 11.682129 3.5247803 -40.686035 -46.42639 -28.29895 -45.41931 -61.532593 -62.438965 -51.763916 -40.88745 -38.671875 -17.72461 -7.7545166 0.30212402 1.7120361 9.164429 17.422485 16.21399 13.494873 23.464966 26.586914 19.23523 22.659302 21.75293 26.989746 24.472046 29.205322 24.371338 14.501953 16.818237 12.789917 10.171509 8.761597 15.106201 11.380005 11.380005 6.9488525 3.5247803 5.2368164 -3.3233643 -8.459473 -0.70495605 14.501953 28.80249 61.935425 77.948 87.51526 105.03845 119.13757 119.33899 123.36731 117.526245 102.62146 81.37207 84.695435 97.88818 105.340576 127.39563 134.94873 136.56006 105.74341 57.20215 2.2155762 -40.38391 -50.857544 -44.51294 -26.78833 -19.033813 -8.258057 -13.796997 -23.062134 -34.744263 -36.657715 -46.325684 -84.695435 -87.81738 -38.168335 68.38074 114.20288 123.568726 122.15881 130.11475 120.043945 98.49243 55.69153 -24.169922 -95.87402 
-3190.7317 -3174.8198 -3159.3108 -3144.406 -3129.2998 -3114.093 -3099.0874 -3084.2834 -3069.6807 -3055.3801 -3040.8782 -3026.6785 -3012.68 -2994.8547 -1016.74805 1578.3966 3299.8992 3299.8992 3299.8992 3299.8992 3299.8992 3299.8992 3299.8992 3299.8992 3299.8992 3299.8992 3299.8992 3299.8992 3299.8992 3299.8992 3299.8992 3299.8992 3299.8992 3293.3533 -3284.9944 -3268.1763 -3251.6602 -3235.3455 -3219.2322 -3203.3203 -3187.6099 -3172.3022 -3156.5918 -3141.687 -3126.48 -3111.4746 -3096.469 -3081.665 -3067.163 -3052.6611 -3038.3606 -3024.1606 -3010.0615 -2869.7754 -597.80273 2046.7896 3299.8992 3299.8992 3299.8992 3299.8992 3299.8992 3299.8992 3299.8992 3299.8992 3299.8992 3299.8992 3299.8992 3299.8992 3299.8992 3299.8992 3299.8992 3299.8992 3299.8992 3016.809 -3284.6924 -3267.874 -3251.358 -3235.144 -3219.0308 -3203.2195 -3187.4084 -3171.5972 -3156.491 -3140.7805 -3125.6743 -3110.7695 -3096.0662 -3081.5642 -3066.8608 -3052.4597 -3038.2598 -3024.06 -3010.0615 -2727.6763 -507.87048 2123.3276 3299.8992 3299.8992 3299.8992 3299.8992 3299.8992 3299.8992 3299.8992 3299.8992 3299.8992 3299.8992 3299.8992 3299.8992 3299.8992 3299.8992 3299.8992 3299.8992 3299.8992 2811.969 -3284.491 -3267.572 -3251.056 -3234.9426 -3218.7285 -3202.8167 -3187.1062 -3171.2952 -3155.6853 -3140.8813 -3125.8757 -3110.669 -3095.6633 -3080.96 -3066.2566 -3052.057 -3037.6555 -3023.5564 -3009.4573 -2730.7983 -359.5276 2300.6743 3299.8992 3299.8992 3299.8992 3299.8992 3299.8992 3299.8992 3299.8992 3299.8992 3299.8992 3299.8992 3299.8992 3299.8992 3299.8992 3299.8992 3299.8992 3299.8992 3299.8992 2263.7146 -3282.5774 -3265.8599 -3249.3438 -3233.13 -3217.0166 -3201.1047 -3185.3943 -3170.1873 -3154.3762 -3139.4714 -3124.4658 -3109.3596 -3094.3542 -3079.651 -3065.149 -3050.647 -3036.3464 -3022.1465 -3008.2488 -2602.194 -146.83228 2468.4539 3299.8992 3299.8992 3299.8992 3299.8992 3299.8992 3299.8992 3299.8992 3299.8992 3299.8992 3299.8992 3299.8992 3299.8992 3299.8992 3299.8992 3299.8992 3299.8992 3299.8992 1576.181 -3281.369 -3264.6514 -3248.1353 -3231.8206 -3215.808 -3199.9968 
-3230.612 -3215.6067 -3201.2053 -3186.6028 -3172.3022 -3158.3037 -3143.9026 -3129.904 -3116.0063 -3102.31 -3088.6138 -3075.0183 -3061.7249 -2329.9805 -160.32715 1855.4443 3299.8992 3299.8992 3299.8992 3299.8992 3299.8992 3299.8992 3299.8992 3299.8992 3299.8992 3299.8992 3299.8992 3299.8992 3299.8992 3299.8992 3299.8992 3299.8992 3291.9434 2925.3662 3281.8726 3297.885 -3286.5051 -3271.1975 -3256.0913 -3240.985 -3226.181 -3211.1755 -3196.875 -3182.373 -3168.0725 -3154.074 -3139.7734 -3125.7751 -3111.8774 -3098.1812 -3084.5854 -3070.99 -3057.6965 -2173.9836 317.43164 2572.7874 3299.8992 3299.8992 3299.8992 3299.8992 3299.8992 3299.8992 3299.8992 3299.8992 3299.8992 3299.8992 3299.8992 3299.8992 3299.8992 3299.8992 3299.8992 3299.8992 3289.5264 2816.6016 3280.3618 3296.2737 -3288.1165 -3272.8088 -3257.6018 -3242.5964 -3227.7922 -3212.7869 -3198.4863 -3183.9844 -3169.4824 -3155.5847 -3141.2842 -3127.2856 -3113.388 -3099.6917 -3085.9954 -3072.5005 -3059.1064 -1863.4003 343.11218 2396.1455 3299.8992 3299.8992 3299.8992 3299.8992 3299.8992 3299.8992 3299.8992 3299.8992 3299.8992 3299.8992 3299.8992 3299.8992 3299.8992 3299.8992 3299.8992 3299.8992 3287.6128 2227.6611 3281.5703 3297.3816 -3287.0085 -3271.8018 -3256.5947 -3241.5894 -3226.6846 -3212.2832 -3197.3784 -3182.9773 -3168.6768 -3154.5776 -3140.277 -3126.3794 -3112.4817 -3098.6846 -3084.9883 -3071.5942 -3058.3008 -1969.8486 316.02173 2407.1228 3299.8992 3299.8992 3299.8992 3299.8992 3299.8992 3299.8992 3299.8992 3299.8992 3299.8992 3299.8992 3299.8992 3299.8992 3299.8992 3299.8992 3299.8992 3299.8992 3288.6199 1849.704 3284.3901 3299.8992 -3284.3901 -3269.0825 -3253.8757 -3238.971 -3224.1667 -3209.6648 -3194.76 -3180.4595 -3166.159 -3151.657 -3137.7593 -3123.761 -3109.8633 -3096.2676 -3082.672 -3069.2778 -3055.8838 -1848.6969 356.0028 2296.2432 3299.8992 3299.8992 3299.8992 3299.8992 3299.8992 3299.8992 3299.8992 3299.8992 3299.8992 3299.8992 3299.8992 3299.8992 3299.8992 3299.8992 3299.8992 3299.8992 3290.7349 1285.9406 3288.3179 3299.8992 -3280.3618 -3265.0542 -3250.0488 -3234.9426 
3284.3901 3269.4854 3254.8828 3239.8772 3225.3752 3210.6719 3195.5657 3180.4595 3166.3604 3152.0598 3137.86 3123.4587 2751.1414 874.54834 -907.27844 -2224.942 3174.8198 3141.989 3157.6995 3173.41 3188.8184 3204.2266 3219.2322 3234.6404 3249.646 3264.7522 3279.1533 3294.2595 -3290.9363 -3276.233 -3261.731 -3247.229 -3232.9285 -2409.5398 3299.8992 3299.8992 3299.8992 3299.8992 3299.8992 3299.8992 3285.901 3270.996 3255.9905 3241.287 3226.0803 3211.377 3196.9756 3181.668 3167.0654 3152.765 3138.6658 3124.1638 2693.637 822.88513 -864.1754 -2318.8018 3127.7893 3143.8018 3159.5122 3175.0212 3190.5303 3205.838 3221.347 3236.4531 3251.358 3266.3635 3281.5703 3296.3745 -3289.224 -3274.6216 -3260.0188 -3245.6177 -3231.3171 -2046.1853 3299.8992 3299.8992 3299.8992 3299.8992 3299.8992 3299.8992 3285.3972 3270.4924 3255.789 3240.985 3226.2817 3211.5784 3196.5728 3181.2651 3167.166 3152.765 3138.6658 3124.3652 2583.261 604.6509 -1049.4781 -2452.8442 3130.9111 3146.7224 3162.4329 3177.942 3193.35 3208.7585 3223.764 3238.7695 3254.1777 3269.1833 3283.6853 3298.7915 -3286.5051 -3271.8018 -3257.2998 -3242.8984 -3228.6987 -1640.6342 3299.8992 3299.8992 3299.8992 3299.8992 3299.8992 3299.8992 3285.6995 3271.0967 3255.89 3241.1865 3226.4832 3211.679 3196.5728 3181.4666 3167.5688 3153.067 3138.9678 3124.3652 2629.2847 701.22986 -1011.91406 -2386.679 3130.2063 3146.1182 3161.7278 3177.4382 3192.9473 3208.255 3223.361 3238.568 3253.2715 3268.2769 3283.484 3298.2878 -3287.3108 -3272.708 -3258.206 -3243.704 -3229.5044 -1358.7524 3299.8992 3299.8992 3299.8992 3299.8992 3299.8992 3298.6907 3283.8867 3268.982 3254.2786 3239.6758 3224.5696 3209.6648 3195.2637 3179.8552 3165.3533 3151.0527 3136.853 3121.1426 2507.1257 607.4707 -984.7229 -2312.155 3131.7168 3144.2046 3159.915 3175.525 3191.034 3206.3416 3221.7498 3236.7554 3252.2644 3267.0684 3281.7717 3296.7773 -3288.4185 -3273.816 -3259.2131 -3244.9126 -3230.5115 -782.0984 3299.8992 3299.8992 3299.8992 3299.8992 3299.8992 3295.3674 
-3076.9316 -3062.329 -3047.8271 -3033.5266 -3019.528 -3005.429 -2991.4307 -2977.6335 -2963.7358 -2950.241 -2936.6455 -2923.2512 -2909.9578 -2896.8657 -2214.3677 -888.44604 312.89978 1617.4713 2920.935 3299.8992 3299.8992 3299.8992 3299.8992 3299.8992 3299.8992 3299.8992 3299.8992 3299.8992 3299.8992 3299.8992 3299.8992 3299.8992 3299.8992 3299.8992 -901.5381 -3138.7664 -3123.2573 -3108.1511 -3093.1458 -3078.241 -3063.6382 -3049.1362 -3034.5337 -3020.4346 -3006.3354 -2992.4377 -2978.54 -2964.743 -2951.1475 -2937.5518 -2924.1577 -2910.7634 -2897.5708 -2578.125 -1193.2892 95.47119 1444.1528 2555.365 3299.8992 3299.8992 3299.8992 3299.8992 3299.8992 3299.8992 3299.8992 3299.8992 3299.8992 3299.8992 3299.8992 3299.8992 3299.8992 3299.8992 3299.8992 3299.8992 -1376.5778 -3145.816 -3130.4077 -3115.1 -3100.0945 -3085.1897 -3070.5872 -3055.9844 -3041.986 -3027.4841 -3013.1836 -2999.185 -2985.2874 -2971.3896 -2957.7942 -2944.098 -2930.603 -2917.2087 -2904.016 -2536.5325 -1201.4465 117.526245 1347.3724 2483.4595 3299.8992 3299.8992 3299.8992 3299.8992 3299.8992 3299.8992 3299.8992 3299.8992 3299.8992 3299.8992 3299.8992 3299.8992 3299.8992 3299.8992 3299.8992 3299.8992 -1922.9187 -3148.4343 -3132.9253 -3117.7185 -3102.713 -3087.909 -3073.2056 -3058.7036 -3044.6045 -3030.1025 -3015.802 -3001.703 -2987.8052 -2974.109 -2960.4126 -2946.7163 -2933.1206 -2919.7266 -2906.5337 -2616.1926 -1275.8698 131.42395 1463.3881 2631.3994 3299.8992 3299.8992 3299.8992 3299.8992 3299.8992 3299.8992 3299.8992 3299.8992 3299.8992 3299.8992 3299.8992 3299.8992 3299.8992 3299.8992 3299.8992 3219.635 -2172.876 -3150.348 -3134.9395 -3119.6318 -3104.6265 -3089.8223 -3075.119 -3060.5164 -3045.9136 -3031.8145 -3017.6147 -3003.6162 -2989.618 -2975.8208 -2962.2253 -2948.4282 -2934.9333 -2921.5393 -2908.3464 -2426.5593 -1082.2083 218.23425 1486.1481 2641.0674 3299.8992 3299.8992 3299.8992 3299.8992 3299.8992 3299.8992 3299.8992 3299.8992 3299.8992 3299.8992 3299.8992 3299.8992 3299.8992 3299.8992 3299.8992 2958.2976 -2640.3625 -3151.657 -3136.2488 -3121.0417 -3106.0364 -3091.1316 
3231.1157 3215.9087 3200.702 3185.3943 3169.8853 3154.4768 3139.27 3124.063 3109.1582 3093.6492 3079.248 3061.1206 2542.4744 1150.9918 -180.97229 -1184.9304 -2080.5266 -2916.806 3083.377 3100.296 3116.812 3133.429 3150.1465 3166.2598 3182.373 3198.4863 3214.4988 3230.31 3246.121 3261.9324 3277.6428 3293.1519 -3291.339 -2350.525 3010.0615 3299.8992 3287.5122 3272.3052 3257.0984 3241.8914 3226.6846 3211.5784 3196.2708 3180.9631 3165.3533 3150.1465 3134.9395 3119.8333 3104.828 3089.4194 3075.0183 3056.9915 2436.026 1019.6686 -274.83215 -1262.2742 -2107.013 -2900.4912 3081.0608 3098.0803 3114.5964 3131.2134 3147.3267 3163.9434 3180.1575 3196.3713 3212.384 3228.296 3244.0063 3259.7168 3275.5278 3291.0369 3299.8992 -2033.5968 3299.8992 3298.2878 3283.1816 3267.874 3252.6672 3237.3596 3222.354 3207.1472 3191.4368 3176.4312 3161.1235 3145.816 3130.6091 3115.6035 3100.6987 3085.1897 3070.7886 3051.1504 2307.6233 774.04175 -434.85718 -1343.747 -2214.2668 -2994.5525 3081.3628 3098.0803 3114.5964 3131.2134 3147.2258 3163.9434 3180.0566 3196.0693 3212.1826 3227.9937 3243.9055 3259.616 3275.4272 3291.0369 3299.8992 -1686.6577 3299.8992 3296.0723 3280.8655 3265.6584 3250.2502 3235.2446 3220.1384 3204.9316 3189.2212 3174.2156 3159.0088 3143.7012 3128.3936 3113.388 3098.4832 3083.075 3068.573 3049.7405 2254.0466 780.58777 -492.56287 -1540.4297 -2441.162 -3124.4658 3082.4707 3099.1882 3115.805 3132.321 3148.4343 3165.0513 3181.1646 3197.4792 3213.1897 3229.1016 3245.0134 3260.7239 3276.3335 3291.9434 3299.8992 -1376.5778 3299.8992 3295.2666 3280.1604 3264.9536 3249.646 3234.6404 3219.4336 3204.2266 3188.516 3173.6113 3158.3037 3142.996 3127.7893 3112.7837 3097.879 3082.4707 3067.9688 3038.1592 2069.751 492.66357 -641.51 -1578.2959 -2411.7554 -3108.6548 3084.8877 3101.4038 3118.222 3134.738 3151.355 3167.3674 3183.4807 3199.4934 3215.5059 3231.3171 3247.1282 3262.9395 3278.65 3294.2595 -3290.332 -982.5073 3299.8992 3295.2666 3280.1604 3264.8528 3249.646 3234.5398 
-3082.4707 -3068.0693 -3053.7688 -3039.569 -3025.5706 -3011.5723 -2975.3174 -2695.752 -2366.1345 -2073.3765 -1643.7561 -1330.3528 -1028.0273 -608.3771 -424.48425 -220.55054 -72.509766 107.455444 443.9209 929.3335 2014.563 2708.9446 3299.8992 3299.8992 3299.8992 3299.8992 3299.8992 3299.8992 3299.8992 3299.8992 3299.8992 3299.8992 3299.8992 2254.4495 296.38367 -1017.5537 -2128.2622 -3133.8318 -3121.0417 -3106.2378 -3091.635 -3077.133 -3062.9333 -3048.8342 -3034.6343 -3020.5352 -2975.7202 -2662.8203 -2329.3762 -2029.9713 -1597.0276 -1303.5645 -1327.0294 -1150.1862 -840.91187 -554.19617 -462.04834 -283.89587 -65.76233 574.4385 1637.7136 2336.023 3299.8992 3299.8992 3299.8992 3299.8992 3299.8992 3299.8992 3299.8992 3299.8992 3299.8992 3299.8992 3299.8992 2395.0378 523.3795 -826.0071 -2049.0051 -3126.8828 -3116.0063 -3101.303 -3086.5996 -3072.0977 -3057.898 -3043.698 -3029.5989 -3015.4998 -2999.286 -2710.254 -2329.4768 -2022.6196 -1634.8938 -1498.0316 -1195.7062 -811.80725 -525.7965 -272.11304 -70.29419 68.984985 289.83765 968.4082 2007.5134 2691.4214 3299.8992 3299.8992 3299.8992 3299.8992 3299.8992 3299.8992 3299.8992 3299.8992 3299.8992 3299.8992 3299.8992 2066.226 217.12646 -1079.4891 -2259.1826 -3134.3352 -3119.3298 -3104.6265 -3090.0237 -3075.5217 -3061.0198 -3047.122 -3033.023 -3018.9238 -3004.8247 -2673.7976 -2327.4626 -1893.7134 -1527.4384 -1569.4336 -1375.1678 -1235.4858 -842.926 -515.9271 -282.38525 -105.54199 81.37207 972.2351 2146.994 2896.3623 3299.8992 3299.8992 3299.8992 3299.8992 3299.8992 3299.8992 3299.8992 3299.8992 3299.8992 3299.8992 3299.8992 2231.6895 382.489 -835.3729 -1922.113 -2998.883 -3121.8474 -3107.0435 -3092.5415 -3078.0396 -3063.6382 -3049.237 -3035.2385 -3021.2402 -2999.8901 -2718.4111 -2361.4014 -2062.9028 -1669.1345 -1521.698 -1182.312 -787.93945 -567.59033 -271.20667 -37.86621 44.91577 318.1366 1088.4521 2005.3986 2742.1782 3299.8992 3299.8992 3299.8992 3299.8992 3299.8992 3299.8992 3299.8992 3299.8992 3299.8992 3299.8992 3216.0095 1362.2772 -429.0161 -1718.0786 -2814.0837 -3126.6814 -3111.7766 -3097.0732 

5.7403564 5.7403564 5.7403564 5.7403564 5.7403564 5.7403564 5.7403564 5.7403564 5.7403564 5.7403564 5.7403564 5.7403564 5.7403564 5.7403564 5.7403564 5.7403564 5.7403564 5.7403564 5.7403564 5.7403564 5.7403564 5.7403564 5.7403564 5.7403564 5.7403564 5.7403564 5.7403564 5.7403564 5.7403564 5.7403564 5.7403564 5.7403564 5.7403564 5.7403564 5.7403564 5.7403564 5.7403564 5.7403564 5.7403564 5.7403564 -19.335938 -17.422485 -6.4453125 0.60424805 -2.2155762 -11.782837 -36.254883 -50.454712 -58.813477 -58.813477 -32.025146 2.6184082 49.749756 81.47278 76.034546 66.26587 54.58374 52.871704 48.339844 25.378418 25.378418 25.378418 25.378418 25.378418 25.378418 25.378418 25.378418 25.378418 25.378418 25.378418 25.378418 25.378418 25.378418 25.378418 25.378418 25.378418 25.378418 25.378418 25.378418 25.378418 25.378418 25.378418 25.378418 25.378418 25.378418 25.378418 25.378418 25.378418 25.378418 25.378418 25.378418 25.378418 25.378418 25.378418 25.378418 25.378418 25.378418 25.378418 25.378418 25.378418 25.378418 25.378418 25.378418 25.378418 25.378418 25.378418 25.378418 25.378418 25.378418 25.378418 25.378418 25.378418 25.378418 25.378418 25.378418 25.378418 25.378418 25.378418 25.378418 25.378418 25.378418 25.378418 25.378418 25.378418 25.378418 25.378418 25.378418 25.378418 25.378418 25.378418 25.378418 25.378418 25.378418 25.378418 25.378418 25.378418 25.378418 25.378418 25.378418 25.378418 18.630981 29.104614 39.175415 46.728516 39.276123 35.046387 22.457886 7.3516846 10.977173 8.258057 6.6467285 20.24231 -17.926025 -46.124268 -44.311523 -26.28479 14.804077 36.85913 6.8481445 -51.05896 -51.05896 -51.05896 -51.05896 -51.05896 -51.05896 -51.05896 -51.05896 -51.05896 -51.05896 -51.05896 -51.05896 -51.05896 -51.05896 -51.05896 -51.05896 -51.05896 -51.05896 -51.05896 -51.05896 -51.05896 -51.05896 -51.05896 -51.05896 -51.05896 -51.05896 -51.05896 -51.05896 -51.05896 -51.05896 -51.05896 -51.05896 -51.05896 -51.05896 -51.05896 -51.05896 -51.05896 -51.05896 -51.05896 -51.05896 -51.05896 -51.05896 -51.05896 -51.05896 -51.05896 -51.05896 -51.05896 -51.05896 -51.05896 -51.05896 -51.05896 -51.05896 -51.05896 -51.05896 -51.05896 -51.05896 -51.05896 -51.05896 -51.05896 -51.05896 -51.05896 
-125.98572 -136.05652 -143.10608 -140.58838 -174.42627 -198.49548 -203.93372 -195.07141 -183.18787 -173.31848 -138.57422 -129.20837 -94.06128 -68.17932 -58.813477 -51.763916 -42.90161 -25.479126 -10.070801 -2.5177002 -6.5460205 -15.811157 -11.380005 -20.74585 -5.9417725 -3.6254883 6.7474365 1.4099121 10.876465 10.070801 0.10070801 -9.466553 -20.443726 -16.21399 -17.825317 -15.206909 -9.667969 -5.8410645 -2.7191162 7.5531006 16.012573 15.106201 25.378418 16.415405 19.033813 11.782837 9.970093 7.0495605 1.7120361 1.1077881 10.372925 19.033813 40.98816 68.07861 76.135254 60.424805 38.067627 39.276123 49.0448 62.942505 51.663208 55.490112 36.657715 28.903198 8.963013 19.134521 20.24231 42.196655 62.539673 74.62463 91.241455 94.766235 91.744995 97.48535 127.89917 139.17847 141.09192 156.90308 149.34998 144.7174 159.42078 170.49866 186.1084 185.20203 172.41211 154.18396 138.17139 104.23279 70.79773 20.443726 -30.212402 -35.549927 -34.44214 -78.552246 -112.59155 -143.4082 -134.94873 -112.59155 -124.87793 -149.7528 -170.80078 -181.073 -216.92505 -232.6355 -229.61426 -165.26184 -126.690674 -112.18872 -127.39563 -147.63794 -139.682 -120.64819 -133.2367 -132.1289 -112.89368 -114.4043 -109.16748 -79.2572 -34.94568 -5.9417725 8.761597 3.1219482 2.9205322 9.970093 1.5106201 13.796997 7.4523926 11.581421 13.998413 15.509033 12.387085 9.567261 15.911865 9.970093 14.199829 -1.1077881 -8.358765 -5.1361084 12.789917 28.198242 31.219482 39.276123 48.94409 47.93701 48.94409 44.41223 29.205322 9.365845 13.293457 21.853638 39.276123 50.152588 61.331177 57.403564 56.19507 53.375244 88.32092 101.21155 99.70093 81.57349 76.034546 72.40906 72.71118 67.77649 38.87329 9.869385 10.574341 -12.286377 -40.686035 -66.16516 -79.35791 -90.93933 -74.82605 -63.043213 -60.424805 -60.021973 -51.361084 -40.283203 -15.307617 8.862305 20.544434 24.975586 30.413818 20.443726 93.0542 137.46643 158.5144 147.2351 145.9259 118.93616 113.1958 116.61987 88.723755 40.585327 23.968506 -40.585327 -97.48535 -76.23596 -77.142334 -83.58765 -83.78906 -74.32251 -73.21472 -99.3988 -87.61597 -103.22571 -82.47986 -72.10693 -64.35242 -61.6333 -52.770996 -46.728516 -34.039307 -47.232056 -76.94092 -104.837036 -86.00464 -28.198242 36.053467 70.999146 
-3184.2864 -3168.3745 -3153.4697 -3137.7593 -3122.754 -3107.9497 -3093.1458 -3078.543 -3064.041 -3049.539 -3035.44 -3021.2402 -3007.2417 -2379.8308 134.04236 2823.8525 3299.8992 3299.8992 3299.8992 3299.8992 3299.8992 3299.8992 3299.8992 3299.8992 3299.8992 3299.8992 3299.8992 3299.8992 3299.8992 3299.8992 3299.8992 3299.8992 3299.8992 926.9165 -3280.966 -3264.2485 -3247.8333 -3231.5186 -3215.6067 -3199.6948 -3183.8835 -3168.6768 -3152.9663 -3138.162 -3123.056 -3107.9497 -3093.1458 -3078.241 -3063.739 -3049.3376 -3035.138 -3020.938 -3006.9397 -2289.5964 234.24683 2856.2805 3299.8992 3299.8992 3299.8992 3299.8992 3299.8992 3299.8992 3299.8992 3299.8992 3299.8992 3299.8992 3299.8992 3299.8992 3299.8992 3299.8992 3299.8992 3299.8992 3299.8992 375.33875 -3280.664 -3263.9465 -3247.531 -3231.3171 -3215.2039 -3199.4934 -3183.783 -3167.7703 -3152.8655 -3137.2559 -3122.2502 -3107.4463 -3092.743 -3078.1401 -3063.5376 -3049.1362 -3034.8357 -3020.636 -3006.7383 -2020.5048 545.9381 3169.9858 3299.8992 3299.8992 3299.8992 3299.8992 3299.8992 3299.8992 3299.8992 3299.8992 3299.8992 3299.8992 3299.8992 3299.8992 3299.8992 3299.8992 3299.8992 3299.8992 3299.8992 -574.942 -3281.067 -3264.3494 -3247.8333 -3231.72 -3215.6067 -3199.7954 -3184.085 -3168.274 -3152.765 -3138.0615 -3122.8545 -3107.849 -3092.8435 -3078.241 -3063.6382 -3049.237 -3034.9365 -3020.938 -3006.8389 -1957.9651 643.8263 3265.9607 3299.8992 3299.8992 3299.8992 3299.8992 3299.8992 3299.8992 3299.8992 3299.8992 3299.8992 3299.8992 3299.8992 3299.8992 3299.8992 3299.8992 3299.8992 3299.8992 3299.8992 -1294.6014 -3280.0598 -3263.4429 -3247.0276 -3230.8135 -3214.801 -3198.9897 -3183.1787 -3168.0725 -3152.765 -3137.155 -3122.0488 -3107.3455 -3092.642 -3078.0396 -3063.4368 -3049.0356 -3034.735 -3020.636 -3006.6375 -1637.2101 1055.5206 3299.8992 3299.8992 3299.8992 3299.8992 3299.8992 3299.8992 3299.8992 3299.8992 3299.8992 3299.8992 3299.8992 3299.8992 3299.8992 3299.8992 3299.8992 3299.8992 3299.8992 3299.8992 -2321.9238 -3281.5703 -3264.9536 -3248.538 -3232.3242 -3216.3115 -3200.5005 -3184.6892 -3168.8782 -3153.9734 -3138.263 -3123.3582 -3108.4534 -3093.8506 -3079.1472 -3064.6453 -3050.2441 -3035.9436 -3021.7437 -3007.846 -1589.3738 1031.7535 3299.8992 3299.8992 3299.8992 3299.8992 3299.8992 
-3220.2393 -3205.838 -3190.933 -3176.4312 -3162.2314 -3147.83 -3133.9324 -3120.1355 -3106.3384 -3092.4407 -3079.0466 -3065.5518 -3052.2583 -1435.5927 810.59875 2810.7605 3299.8992 3299.8992 3299.8992 3299.8992 3299.8992 3299.8992 3299.8992 3299.8992 3299.8992 3299.8992 3299.8992 3299.8992 3299.8992 3299.8992 3299.8992 3299.8992 3288.217 782.5012 3287.7136 3299.8992 -3281.067 -3265.7593 -3250.653 -3235.6475 -3220.8435 -3206.4421 -3191.6382 -3177.2368 -3162.9363 -3148.5352 -3134.6375 -3120.7397 -3106.9426 -3093.1458 -3079.651 -3066.156 -3050.949 -1138.0005 1162.2711 3167.166 3299.8992 3299.8992 3299.8992 3299.8992 3299.8992 3299.8992 3299.8992 3299.8992 3299.8992 3299.8992 3299.8992 3299.8992 3299.8992 3299.8992 3299.8992 3298.892 3283.383 -122.561646 3285.901 3299.8992 -3282.8796 -3267.572 -3252.5664 -3237.561 -3222.7568 -3208.255 -3193.1487 -3179.0496 -3164.6484 -3150.247 -3136.4502 -3122.4517 -3108.6548 -3094.9585 -3081.2622 -3067.868 -3052.8625 -1267.6117 984.5215 3054.1716 3299.8992 3299.8992 3299.8992 3299.8992 3299.8992 3299.8992 3299.8992 3299.8992 3299.8992 3299.8992 3299.8992 3299.8992 3299.8992 3299.8992 3299.8992 3298.892 3283.484 -693.57605 3287.6128 3299.8992 -3281.2683 -3265.9607 -3250.955 -3235.8489 -3221.1455 -3206.7444 -3191.9402 -3177.539 -3163.2385 -3148.8372 -3134.9395 -3121.0417 -3107.144 -3093.3472 -3079.953 -3066.458 -2857.5896 -626.4038 1702.8717 3299.8992 3299.8992 3299.8992 3299.8992 3299.8992 3299.8992 3299.8992 3299.8992 3299.8992 3299.8992 3299.8992 3299.8992 3299.8992 3299.8992 3299.8992 3299.8992 3291.9434 3276.535 -1476.0773 3282.9802 3298.6907 -3285.8 -3270.4924 -3255.487 -3240.4814 -3225.5767 -3211.1755 -3196.2708 -3181.8694 -3167.6697 -3153.5706 -3139.3706 -3125.3723 -3111.4746 -3097.6775 -3084.1826 -3070.5872 -2924.5605 -578.7689 1589.1724 3299.8992 3299.8992 3299.8992 3299.8992 3299.8992 3299.8992 3299.8992 3299.8992 3299.8992 3299.8992 3299.8992 3299.8992 3299.8992 3299.8992 3299.8992 3299.8992 3288.7207 3273.2117 -2349.5178 3282.1746 3297.885 -3286.7065 -3271.399 -3256.2927 -3241.287 -3226.5837 -3211.5784 -3197.177 -3182.8765 -3168.576 -3154.5776 -3140.277 -3126.178 -3112.3809 -3098.584 -3084.9883 -3071.5942 -2706.0242 -372.72034 1826.239 3299.8992 3299.8992 3299.8992 3299.8992 3299.8992 
3280.5632 3265.7593 3250.653 3235.9497 3221.1455 3206.4421 3191.336 3176.3306 3162.332 3148.0315 3133.9324 3117.2148 2439.7522 420.65735 -1234.4788 -2653.958 3129.8035 3145.7153 3161.325 3176.9348 3192.343 3207.7515 3222.7568 3237.9639 3252.7678 3267.6726 3282.9802 3297.7844 -3287.8142 -3273.2117 -3258.7097 -3244.2078 -3230.0078 -385.0067 3299.8992 3299.8992 3299.8992 3299.8992 3299.8992 3294.159 3279.3547 3264.45 3249.7466 3234.9426 3220.0378 3205.3345 3190.933 3175.7263 3161.1235 3146.9238 3132.6233 3116.2078 2331.7932 499.81384 -1123.5992 -2579.837 3127.7893 3143.6003 3159.3108 3174.9207 3190.3289 3205.6365 3221.045 3236.1511 3251.5593 3266.464 3281.067 3296.0723 -3289.0227 -3274.4202 -3259.9182 -3245.4163 -3231.2163 139.5813 3299.8992 3299.8992 3299.8992 3299.8992 3299.8992 3290.9363 3276.132 3261.3281 3246.3225 3231.3171 3216.8152 3202.1118 3187.1062 3172.1008 3158.0017 3143.8018 3129.7026 3111.7766 2164.1143 331.43005 -1167.6086 -2512.0605 3126.0771 3141.989 3157.6995 3173.3093 3188.7175 3204.126 3219.1313 3234.439 3249.1423 3264.2485 3279.4556 3294.2595 -3291.339 -3276.7363 -3262.2344 -3247.7324 -3233.432 537.9822 3299.8992 3299.8992 3299.8992 3299.8992 3299.8992 3287.4114 3272.406 3257.6018 3242.9993 3228.0945 3213.1897 3198.4863 3184.1858 3168.8782 3154.3762 3140.277 3126.0771 3108.6548 2228.2654 382.2876 -1211.4166 -2504.2053 3122.351 3138.263 3153.9734 3169.4824 3184.9915 3200.299 3215.9087 3230.713 3246.222 3261.2273 3275.7292 3290.9363 3299.8992 -3279.657 -3265.0542 -3250.653 -3236.2517 1354.6234 3299.8992 3299.8992 3299.8992 3299.8992 3296.173 3281.4697 3266.6655 3251.9622 3236.9568 3221.9512 3207.4492 3192.9473 3177.942 3162.9363 3149.0386 3134.8389 3120.7397 3101.6052 1828.7567 -165.06042 -1598.0347 -2848.7273 3125.07 3140.7805 3156.5918 3172.1008 3187.509 3202.9175 3217.9229 3232.9285 3247.9338 3262.8386 3278.1462 3292.9504 -3292.6482 -3278.0457 -3263.4429 -3249.1423 -3234.7412 1858.7677 3299.8992 3299.8992 3299.8992 3299.8992 3295.6694 3280.966 3266.3635 3251.4587 3236.4531 3221.6492 3207.2478 3192.6453 3178.244 3162.9363 3148.4343 3134.436 3120.236 3078.4424 1588.5681 -287.8235 -1831.073 -3070.0835 3128.4941 3144.104 3159.915 3175.424 
-3076.4282 -3061.9263 -3047.8271 -3033.1238 -3018.9238 -3004.8247 -2990.8264 -2977.0293 -2963.2324 -2949.6367 -2936.2427 -2922.8484 -2909.555 -2570.9746 -1254.2175 186.81335 1479.2999 2674.9053 3299.8992 3299.8992 3299.8992 3299.8992 3299.8992 3299.8992 3299.8992 3299.8992 3299.8992 3299.8992 3299.8992 3299.8992 3299.8992 3299.8992 3299.8992 2744.0918 -3063.5376 -3149.6428 -3134.1338 -3119.0276 -3104.0222 -3089.218 -3074.5146 -3060.0127 -3045.813 -3031.311 -3017.0105 -3002.9114 -2989.1143 -2975.116 -2961.621 -2947.9248 -2934.329 -2921.1365 -2907.7422 -2313.3635 -950.4822 435.26 1605.0842 2695.4497 3299.8992 3299.8992 3299.8992 3299.8992 3299.8992 3299.8992 3299.8992 3299.8992 3299.8992 3299.8992 3299.8992 3299.8992 3299.8992 3299.8992 3299.8992 2451.3335 -3165.6555 -3149.8442 -3134.436 -3119.3298 -3104.2236 -3089.4194 -3074.817 -3060.315 -3046.2158 -3031.7139 -3017.4133 -3003.3142 -2989.4165 -2975.6194 -2962.024 -2948.3276 -2934.8328 -2921.4385 -2908.145 -2197.9521 -788.3423 512.1002 1775.9857 2790.4175 3299.8992 3299.8992 3299.8992 3299.8992 3299.8992 3299.8992 3299.8992 3299.8992 3299.8992 3299.8992 3299.8992 3299.8992 3299.8992 3299.8992 3299.8992 2113.6597 -3166.6626 -3150.9521 -3135.5437 -3120.4375 -3105.4321 -3090.5273 -3075.824 -3061.322 -3046.6187 -3032.62 -3018.4204 -3004.4219 -2990.5242 -2976.7273 -2962.9302 -2949.3347 -2935.8398 -2922.4456 -2909.152 -2297.1497 -949.5758 332.63855 1553.421 2608.438 3299.8992 3299.8992 3299.8992 3299.8992 3299.8992 3299.8992 3299.8992 3299.8992 3299.8992 3299.8992 3299.8992 3299.8992 3299.8992 3299.8992 3299.8992 1874.9817 -3162.6343 -3147.0244 -3131.6162 -3116.4092 -3101.5044 -3086.7004 -3072.0977 -3057.5957 -3042.8923 -3028.7932 -3014.694 -3000.595 -2986.798 -2973.001 -2959.3047 -2945.6084 -2932.2144 -2918.921 -2905.6274 -2085.0586 -656.8176 574.4385 1853.833 2917.4102 3299.8992 3299.8992 3299.8992 3299.8992 3299.8992 3299.8992 3299.8992 3299.8992 3299.8992 3299.8992 3299.8992 3299.8992 3299.8992 3299.8992 3299.8992 1370.5353 -3162.2314 -3146.521 -3131.2134 -3116.1072 -3101.1016 -3086.2976 -3071.6948 -3057.0923 -3043.0938 -3028.5918 -3014.2913 -3000.3936 -2986.4958 -2972.5981 -2958.9019 -2945.3064 -2931.8115 -2918.518 -2905.2246 -2109.43 -675.85144 848.6664 2186.0686 3138.565 3299.8992 3299.8992 
3219.2322 3204.0251 3188.919 3173.6113 3158.1023 3142.8955 3127.6885 3112.5823 3097.6775 3082.2693 3067.9688 3019.8303 2037.8265 589.34326 -639.49585 -1663.8977 -2525.5554 -3233.5327 3086.1968 3102.9143 3119.4304 3135.9465 3152.664 3168.7773 3184.79 3201.004 3216.8152 3232.6262 3248.538 3264.2485 3279.959 3295.468 -3289.1235 -607.0679 3299.8992 3294.3604 3279.1533 3263.9465 3248.639 3233.5327 3218.4265 3203.119 3188.1133 3172.6042 3157.196 3141.8884 3126.6814 3111.676 3096.7712 3081.4636 3066.7603 2904.2175 1686.7584 284.2987 -809.49097 -1717.4744 -2520.822 -3164.5476 3089.5203 3106.3384 3122.754 3139.1692 3155.8867 3172 3188.0127 3204.126 3220.0378 3236.0503 3251.6602 3267.4712 3283.1816 3298.59 -3285.901 -154.48608 3299.8992 3295.166 3279.959 3264.6514 3249.3438 3234.3384 3219.0308 3203.8237 3188.7175 3173.2085 3157.901 3142.5933 3127.2856 3112.2803 3097.3755 3082.0679 3067.566 2956.5857 1804.7882 315.01465 -863.16833 -1782.1289 -2660.4033 3258.9111 3091.2322 3107.9497 3124.5667 3140.982 3157.5989 3173.7122 3189.7246 3205.838 3221.7498 3237.561 3253.372 3269.0825 3284.6924 3299.8992 -3284.3901 124.27368 3299.8992 3295.166 3279.959 3264.7522 3249.5452 3234.3384 3219.1313 3203.9246 3188.214 3173.2085 3157.901 3142.7947 3127.487 3112.3809 3097.6775 3082.1685 3067.566 2977.0293 1769.5404 311.9934 -819.8639 -1755.3406 -2570.5718 -3193.2495 3089.923 3106.842 3123.2573 3139.8743 3155.6853 3172.4028 3188.7175 3204.6294 3220.642 3236.4531 3252.365 3267.9749 3283.5845 3299.295 -3285.2966 465.06958 3299.8992 3292.4468 3277.1392 3261.9324 3246.7253 3231.6191 3216.513 3201.3062 3185.4949 3170.4895 3155.081 3139.7734 3124.6672 3109.6619 3094.9585 3079.3486 3063.4368 2881.7595 1623.6145 104.73633 -949.2737 -1819.5923 -2625.7598 3283.5845 3091.2322 3107.849 3124.3652 3140.982 3157.5989 3173.7122 3189.7246 3205.6365 3221.6492 3237.561 3253.372 3268.982 3284.5916 3299.8992 -3284.3901 1034.0698 3299.8992 3290.4326 3275.125 3259.9182 3244.812 3229.605 3214.4988 3199.0906 3183.9844 3168.0725 3153.1677 3137.86 3122.754 3107.7483 3092.8435 3077.536 3060.617 2871.0845 1619.0826 273.72437 -768.7042 -1734.3933 -2660.3027 3238.6687 3087.808 3104.5256 
-3082.5713 -3068.2708 -3053.8696 -3039.871 -3025.772 -3011.8743 -2852.8564 -2482.8552 -2081.0303 -1815.9668 -1415.9546 -1268.9209 -1043.1335 -826.6113 -561.64856 -326.19324 -166.77246 172.61353 479.87366 1373.9594 2286.1724 3095.9656 3299.8992 3299.8992 3299.8992 3299.8992 3299.8992 3299.8992 3299.8992 3299.8992 3299.8992 3299.8992 3299.8992 1870.3491 96.17615 -1056.0242 -2122.7234 -3141.0828 -3126.0771 -3111.2732 -3096.7712 -3082.1685 -3067.9688 -3053.7688 -3039.569 -3025.6714 -3002.5085 -2586.1816 -2220.5107 -1914.6606 -1609.1125 -1752.0172 -1567.218 -1091.4734 -717.54456 -404.8462 -166.97388 62.942505 473.22693 1382.1167 2180.9326 2877.9326 3299.8992 3299.8992 3299.8992 3299.8992 3299.8992 3299.8992 3299.8992 3299.8992 3299.8992 3299.8992 3299.8992 1492.7948 -337.37183 -1547.6807 -2652.951 -3133.2275 -3118.222 -3103.6194 -3089.1174 -3074.6155 -3060.4155 -3046.3164 -3032.2173 -3018.3196 -3004.3213 -2990.3228 -2729.0862 -2237.4297 -1746.2769 -1416.9617 -1104.9683 -792.97485 -509.4818 -196.1792 -58.61206 41.189575 420.0531 1398.8342 2258.8806 3202.716 3299.8992 3299.8992 3299.8992 3299.8992 3299.8992 3299.8992 3299.8992 3299.8992 3299.8992 3299.8992 3299.8992 1429.3488 -339.386 -1642.8497 -2680.7463 -3128.1921 -3113.2874 -3098.584 -3083.9812 -3069.58 -3055.481 -3041.1804 -3027.0813 -3013.1836 -2997.876 -2711.1602 -2443.1763 -2224.539 -1809.018 -1531.9702 -1238.0035 -847.5586 -543.3197 -406.1554 -127.79846 124.77722 491.8579 1498.0316 2211.0442 3036.5479 3299.8992 3299.8992 3299.8992 3299.8992 3299.8992 3299.8992 3299.8992 3299.8992 3299.8992 3299.8992 3299.8992 1514.0442 -172.91565 -1433.9813 -2554.8613 -3125.7751 -3110.971 -3096.167 -3081.7656 -3067.3645 -3053.1646 -3038.9648 -3024.9663 -3010.968 -2994.754 -2802.9053 -2471.173 -2194.226 -1738.9252 -1499.7437 -1187.7502 -1090.2649 -749.8718 -492.16003 -147.43652 190.53955 650.473 1737.2131 2466.2383 3299.8992 3299.8992 3299.8992 3299.8992 3299.8992 3299.8992 3299.8992 3299.8992 3299.8992 3299.8992 3299.8992 3143.9026 1154.2145 -503.1372 -1686.3556 -2811.4653 -3120.236 -3105.3313 -3090.7288 -3076.2268 -3061.8254 -3047.9277 -3033.5266 -3019.528 -3005.6304 -2906.3323 -2543.3806 -2252.4353 -1852.8259 -1402.1576 -1290.271 -994.693 -810.49805 -521.16394 -178.75671 74.12109 185.60486 561.74927 1610.1196 

-51.05896 -51.05896 -51.05896 -51.05896 -51.05896 -51.05896 -51.05896 -51.05896 -51.05896 -51.05896 -51.05896 -51.05896 -51.05896 -51.05896 -51.05896 -51.05896 -51.05896 -51.05896 -51.05896 -51.05896 -51.05896 -51.05896 -51.05896 -51.05896 -51.05896 -51.05896 -51.05896 -51.05896 -51.05896 -51.05896 -51.05896 -51.05896 -51.05896 -51.05896 -51.05896 -51.05896 -51.05896 -51.05896 -51.05896 -51.05896 -51.05896 -51.05896 -51.05896 -51.05896 -51.05896 -51.05896 -51.05896 -51.05896 -51.05896 -51.05896 -51.05896 -51.05896 -51.05896 -51.05896 -51.05896 -51.05896 -51.05896 -51.05896 -51.05896 -51.05896 -51.05896 -51.05896 -51.05896 -51.05896 -51.05896 -51.05896 -51.05896 -51.05896 -51.05896 -51.05896 -51.05896 -51.05896 -51.05896 -51.05896 -51.05896 -51.05896 -51.05896 -51.05896 -51.05896 -51.05896 -51.05896 -51.05896 -51.05896 -51.05896 -51.05896 -51.05896 -51.05896 -51.05896 -51.05896 -51.05896 -51.05896 -51.05896 -51.05896 -51.05896 -51.05896 -51.05896 -51.05896 -51.05896 -51.05896 -51.05896 -51.05896 -51.05896 -51.05896 -51.05896 -51.05896 -51.05896 -51.05896 -51.05896 -51.05896 -51.05896 -51.05896 -51.05896 -51.05896 -51.05896 -51.05896 -51.05896 -51.05896 -51.05896 -51.05896 -51.05896 -51.05896 -51.05896 -51.05896 -51.05896 -51.05896 -51.05896 -51.05896 -51.05896 -51.05896 -51.05896 -51.05896 -51.05896 -51.05896 -51.05896 -51.05896 -51.05896 -51.05896 -51.05896 -51.05896 -51.05896 -51.05896 -51.05896 -51.05896 -51.05896 -51.05896 -51.05896 -51.05896 -51.05896 -51.05896 -51.05896 -51.05896 -51.05896 -51.05896 -51.05896 -51.05896 -51.05896 -51.05896 -51.05896 -51.05896 -51.05896 -51.05896 -51.05896 -51.05896 -51.05896 -51.05896 -51.05896 -51.05896 -51.05896 -51.05896 -51.05896 -51.05896 -51.05896 -51.05896 -51.05896 -51.05896 -51.05896 -51.05896 -51.05896 -51.05896 -51.05896 -51.05896 -51.05896 -51.05896 -51.05896 -51.05896 -51.05896 -51.05896 -51.05896 -51.05896 -51.05896 -51.05896 -51.05896 -51.05896 -51.05896 -51.05896 -51.05896 -51.05896 -51.05896 -51.05896 -51.05896 
64.956665 56.497192 15.509033 -14.199829 -11.279297 4.8339844 20.645142 31.018066 26.989746 10.675049 -6.6467285 -19.839478 -63.546753 -101.312256 -103.22571 -101.11084 -88.62305 -77.84729 -59.518433 -40.48462 -19.23523 4.9346924 36.657715 38.168335 39.88037 20.544434 34.140015 31.82373 32.629395 44.210815 38.671875 47.53418 60.12268 58.914185 56.19507 48.339844 48.03772 60.72693 65.963745 64.05029 62.338257 75.631714 87.51526 80.56641 82.07703 65.66162 55.18799 41.793823 13.494873 -10.372925 -31.521606 -46.42639 -56.09436 -81.37207 -106.34766 -120.34607 -100.20447 -82.9834 -70.69702 -70.29419 -52.972412 -21.954346 7.5531006 20.24231 29.708862 52.267456 68.38074 66.56799 70.89844 78.149414 87.716675 74.82605 74.32251 68.78357 91.744995 100.40588 87.81738 96.276855 97.58606 77.44446 44.41223 19.839478 -57.000732 -131.62537 -113.69934 -83.88977 -62.74109 -27.694702 10.876465 17.22107 -6.0424805 -59.014893 -103.52783 -105.441284 -102.52075 -114.001465 -130.11475 -122.561646 -81.170654 -42.297363 -32.93152 -61.029053 -63.546753 -34.84497 -7.1502686 32.730103 46.92993 51.260376 50.656128 47.836304 72.81189 83.688354 91.14075 119.13757 119.74182 116.41846 83.688354 69.79065 69.28711 65.76233 59.014893 43.807983 13.796997 -30.413818 -64.65454 -102.62146 -130.719 -140.68909 -132.1289 -125.582886 -113.59863 -117.92908 -128.70483 -114.505005 -96.57898 -94.96765 -91.34216 -80.4657 -63.345337 -37.765503 -7.6538086 3.4240723 4.3304443 6.4453125 13.696289 9.265137 4.7332764 4.6325684 -10.070801 -8.459473 1.3092041 0 18.429565 21.047974 18.933105 18.630981 13.293457 15.509033 31.420898 37.86621 52.56958 77.74658 110.27527 127.093506 127.39563 119.94324 104.63562 95.67261 86.30676 74.62463 67.977905 30.111694 7.2509766 -6.8481445 2.7191162 8.459473 16.314697 37.664795 43.304443 39.37683 63.345337 91.241455 102.72217 88.723755 79.45862 68.88428 44.0094 13.494873 -40.686035 -119.64111 -163.85193 -135.04944 -117.22412 -152.06909 -179.05884 -178.15247 -128.60413 -65.3595 -24.371338 -16.818237 
3299.8992 3299.8992 3299.8992 3299.8992 3299.8992 3299.8992 3299.8992 3299.8992 3299.8992 3299.8992 3299.8992 3299.8992 3299.8992 3299.8992 -3280.0598 -3263.5437 -3247.1282 -3230.9143 -3215.0024 -3199.1912 -3183.4807 -3168.173 -3152.4626 -3137.4573 -3122.5525 -3107.5469 -3092.5415 -3077.8381 -3063.3362 -3048.9348 -3034.6343 -3020.5352 -3006.6375 -1468.7256 1195.3033 3299.8992 3299.8992 3299.8992 3299.8992 3299.8992 3299.8992 3299.8992 3299.8992 3299.8992 3299.8992 3299.8992 3299.8992 3299.8992 3299.8992 3299.8992 3299.8992 3299.8992 3299.8992 3299.8992 -3279.1533 -3262.5366 -3246.121 -3229.9072 -3213.9954 -3198.0835 -3182.4736 -3167.166 -3152.0598 -3136.4502 -3121.344 -3106.5398 -3091.9373 -3077.234 -3062.732 -3048.3306 -3034.1309 -3019.931 -3006.0332 -1109.2987 1729.5593 3299.8992 3299.8992 3299.8992 3299.8992 3299.8992 3299.8992 3299.8992 3299.8992 3299.8992 3299.8992 3299.8992 3299.8992 3299.8992 3299.8992 3299.8992 3299.8992 3299.8992 3299.8992 3299.8992 -3281.2683 -3264.7522 -3248.3367 -3232.2234 -3216.3115 -3200.299 -3184.5886 -3168.8782 -3153.8726 -3138.263 -3123.2573 -3108.3525 -3093.75 -3079.1472 -3064.4438 -3050.1433 -3035.9436 -3021.643 -3007.6445 -916.6443 1768.9362 3299.8992 3299.8992 3299.8992 3299.8992 3299.8992 3299.8992 3299.8992 3299.8992 3299.8992 3299.8992 3299.8992 3299.8992 3299.8992 3299.8992 3299.8992 3299.8992 3299.8992 3299.8992 3299.8992 -3281.6711 -3265.155 -3248.7395 -3232.4248 -3216.4124 -3200.702 -3184.8906 -3169.7844 -3153.9734 -3139.27 -3124.1638 -3109.0576 -3094.052 -3079.3486 -3064.746 -3050.5461 -3036.145 -3022.046 -3008.0474 -1318.0664 1494.5068 3299.8992 3299.8992 3299.8992 3299.8992 3299.8992 3299.8992 3299.8992 3299.8992 3299.8992 3299.8992 3299.8992 3299.8992 3299.8992 3299.8992 3299.8992 3299.8992 3299.8992 3299.8992 -3294.058 -3277.1392 -3260.623 -3244.2078 -3228.195 -3212.0818 -3196.3713 -3180.7617 -3164.8499 -3150.0457 -3134.3352 -3119.4304 -3104.5256 -3089.923 -3075.2197 -3060.9192 -3046.4172 -3032.2173 -3018.0176 -2959.3047 -859.845 1850.9125 3299.8992 3299.8992 3299.8992 3299.8992 3299.8992 
3299.8992 3299.8992 3299.8992 3299.8992 3299.8992 3299.8992 3299.8992 3299.8992 3299.8992 3299.8992 3299.8992 3284.9944 3269.4854 3267.3706 3281.1675 3296.878 -3287.6128 -3272.3052 -3257.199 -3242.395 -3227.3894 -3212.4846 -3197.9827 -3183.4807 -3169.1802 -3155.484 -3141.1833 -3127.0842 -3113.2874 -3099.4902 -3085.8948 -3072.4 -2531.3965 -358.62122 1723.0133 3299.8992 3299.8992 3299.8992 3299.8992 3299.8992 3299.8992 3299.8992 3299.8992 3299.8992 3299.8992 3299.8992 3299.8992 3299.8992 3299.8992 3299.8992 3299.295 3284.2896 3268.6797 3265.0542 3281.2683 3296.7773 -3287.8142 -3272.6074 -3257.2998 -3242.395 -3227.4902 -3212.5854 -3198.285 -3183.8835 -3169.4824 -3155.484 -3141.1833 -3127.185 -3113.388 -3099.6917 -3085.8948 -3072.5005 -2762.2192 -428.41187 1903.9856 3299.8992 3299.8992 3299.8992 3299.8992 3299.8992 3299.8992 3299.8992 3299.8992 3299.8992 3299.8992 3299.8992 3299.8992 3299.8992 3299.8992 3299.8992 3298.59 3283.786 3267.9749 3287.0085 3281.9731 3297.583 -3286.908 -3271.6003 -3256.6956 -3241.4885 -3226.6846 -3212.2832 -3197.3784 -3183.2793 -3168.576 -3154.2754 -3140.3777 -3126.5808 -3112.4817 -3098.6846 -3085.492 -2913.684 -1991.1987 104.03137 1924.53 3299.8992 3299.8992 3299.8992 3299.8992 3299.8992 3299.8992 3299.8992 3299.8992 3299.8992 3299.8992 3299.8992 3299.8992 3299.8992 3299.8992 3299.8992 3294.2595 3278.952 3263.04 3267.6726 3283.484 3299.3958 -3285.3972 -3270.1904 -3254.782 -3240.1794 -3225.2747 -3210.5713 -3196.17 -3181.668 -3167.3674 -3152.9663 -3139.0686 -3125.171 -3111.2732 -3097.6775 -3084.082 -3070.5872 -2055.4504 343.61572 2538.0432 3299.8992 3299.8992 3299.8992 3299.8992 3299.8992 3299.8992 3299.8992 3299.8992 3299.8992 3299.8992 3299.8992 3299.8992 3299.8992 3299.8992 3299.8992 3291.9434 3276.9377 3251.5593 3263.8457 3279.8584 3295.3674 -3289.1235 -3273.9165 -3258.7097 -3243.805 -3229.0007 -3214.4988 -3199.6948 -3185.1929 -3170.8923 -3156.491 -3142.694 -3128.6956 -3114.7979 -3101.1016 -3087.3047 -3073.9104 -2165.1213 225.68665 2452.4414 3299.8992 3299.8992 3299.8992 3299.8992 3299.8992 
3190.8325 3206.0393 3221.5483 3236.4531 3251.9622 3266.867 3281.2683 3296.3745 -3288.7207 -3274.2188 -3259.616 -3245.3154 -3230.9143 2227.359 3299.8992 3299.8992 3299.8992 3299.8992 3298.0864 3283.2825 3268.4783 3253.775 3238.6687 3223.8647 3209.262 3194.6594 3179.7546 3164.6484 3150.65 3136.5508 3122.2502 3040.979 1615.5579 -306.7566 -1793.811 -3072.5005 3130.5083 3146.3196 3162.03 3177.539 3192.8467 3208.255 3223.2605 3238.1653 3253.5735 3268.579 3282.9802 3298.1873 -3287.0085 -3272.5066 -3257.904 -3243.5027 -3229.303 2711.4624 3299.8992 3299.8992 3299.8992 3299.8992 3298.0864 3283.383 3268.6797 3253.775 3238.7695 3224.0662 3209.1614 3194.3572 3180.0566 3164.749 3150.348 3136.2488 3122.1497 2943.5942 1284.1278 -464.46533 -1833.1879 -3043.5974 3132.8247 3148.5352 3164.2456 3179.7546 3195.0623 3210.4705 3225.778 3241.0857 3255.6885 3270.7947 3285.901 3299.8992 -3284.9944 -3270.3918 -3255.89 -3241.4885 -3154.1748 3178.1433 3299.8992 3299.8992 3299.8992 3299.8992 3297.9858 3283.2825 3268.4783 3253.6743 3238.7695 3224.2676 3209.4634 3194.6594 3180.359 3165.0513 3150.5493 3136.5508 3122.1497 3016.104 1400.1434 -433.7494 -1937.0178 -3170.993 3133.2275 3148.938 3164.5476 3180.0566 3195.3643 3210.6719 3226.181 3241.0857 3256.4941 3271.6003 3285.901 3299.8992 -3284.2896 -3269.5862 -3255.1848 -3240.7837 -2958.499 3299.8992 3299.8992 3299.8992 3299.8992 3299.8992 3296.3745 3281.6711 3266.867 3252.063 3236.9568 3222.2534 3207.3486 3192.5444 3178.244 3163.1377 3148.6357 3134.5366 3120.337 2810.559 966.29333 -803.6499 -2249.1118 3172.3022 3137.86 3153.3691 3169.0796 3184.4878 3199.8962 3215.103 3230.612 3245.7183 3260.5225 3275.4272 3290.634 3299.8992 -3280.3618 -3265.7593 -3251.358 -3236.9568 -2666.6472 3299.8992 3299.8992 3299.8992 3299.8992 3299.8992 3298.0864 3283.2825 3268.3777 3253.5735 3238.971 3223.9653 3209.5642 3194.8608 3179.8552 3164.9504 3150.8513 3136.7522 3122.5525 3033.5266 1439.5203 -413.8092 -1943.0603 -3156.6924 3133.2275 3148.938 3164.5476 3180.0566 
3299.8992 3299.8992 3299.8992 3299.8992 3299.8992 3299.8992 3299.8992 3299.8992 3299.8992 3299.8992 3299.8992 3299.8992 3299.8992 1039.6088 -3163.5405 -3147.931 -3132.5225 -3117.4163 -3102.5115 -3087.6067 -3073.0042 -3058.5022 -3044.5037 -3029.8003 -3015.7012 -3001.703 -2987.7043 -2974.008 -2960.2112 -2946.6155 -2933.1206 -2919.8271 -2905.8289 -1784.4452 -418.03894 922.58606 2093.1152 3124.3652 3299.8992 3299.8992 3299.8992 3299.8992 3299.8992 3299.8992 3299.8992 3299.8992 3299.8992 3299.8992 3299.8992 3299.8992 3299.8992 3299.8992 3299.8992 235.65674 -3163.44 -3147.931 -3132.6233 -3117.4163 -3102.5115 -3087.7075 -3073.1047 -3058.6028 -3044.0002 -3029.8003 -3015.802 -3001.8035 -2987.9058 -2974.008 -2960.4126 -2946.7163 -2933.2214 -2919.928 -2906.6345 -1997.7448 -486.8225 880.188 2284.1582 3299.8992 3299.8992 3299.8992 3299.8992 3299.8992 3299.8992 3299.8992 3299.8992 3299.8992 3299.8992 3299.8992 3299.8992 3299.8992 3299.8992 3299.8992 3299.8992 56.295776 -3162.6343 -3147.0244 -3131.7168 -3116.51 -3101.6052 -3087.0024 -3072.299 -3057.797 -3043.5974 -3029.0955 -3014.8955 -3000.7964 -2986.8987 -2973.1018 -2959.506 -2945.9106 -2932.4158 -2919.1223 -2905.6274 -1966.1224 -612.1033 680.5847 1992.4072 3146.0173 3299.8992 3299.8992 3299.8992 3299.8992 3299.8992 3299.8992 3299.8992 3299.8992 3299.8992 3299.8992 3299.8992 3299.8992 3299.8992 3299.8992 3299.8992 -559.03015 -3155.5847 -3140.0757 -3124.768 -3109.7625 -3094.8577 -3080.1543 -3065.451 -3050.949 -3037.0513 -3022.5493 -3008.4502 -2994.452 -2980.5542 -2966.757 -2953.1616 -2939.6667 -2926.1719 -2912.8784 -2859.3018 -1865.8173 -526.9043 745.33997 2023.2239 3199.6948 3299.8992 3299.8992 3299.8992 3299.8992 3299.8992 3299.8992 3299.8992 3299.8992 3299.8992 3299.8992 3299.8992 3299.8992 3299.8992 3299.8992 3299.8992 -760.04333 -3150.4485 -3134.8389 -3119.8333 -3104.727 -3089.923 -3075.119 -3060.5164 -3046.115 -3031.5125 -3017.6147 -3003.6162 -2989.618 -2975.9216 -2962.2253 -2948.529 -2934.9333 -2921.64 -2908.2458 -2822.1404 -1489.27 -56.5979 1151.8982 2498.5657 3299.8992 3299.8992 3299.8992 
3121.0417 3137.6587 3153.6711 3170.288 3186.502 3202.5146 3218.4265 3234.3384 3250.0488 3265.7593 3281.4697 3296.878 -3283.5845 1384.433 3299.8992 3285.3972 3270.291 3254.9834 3239.7766 3224.771 3209.6648 3194.3572 3178.6467 3163.6414 3148.4343 3133.1267 3117.92 3103.2166 3088.3118 3072.9033 3055.2795 2632.1045 1288.8611 -107.05261 -1188.7573 -2077.4048 -2873.401 3101.6052 3092.4407 3109.1582 3125.5737 3142.1904 3158.5051 3174.6184 3190.7317 3206.7444 3222.6562 3238.568 3254.2786 3269.989 3285.5986 3299.8992 -3189.624 1687.4634 3299.8992 3288.1165 3272.8088 3257.6018 3242.395 3227.188 3212.0818 3196.7742 3181.668 3166.159 3150.8513 3135.6445 3120.4375 3105.4321 3090.5273 3075.3203 3057.898 2603.8054 1204.2664 -198.19336 -1196.0083 -2082.6416 -2861.215 3079.0466 3095.8647 3112.4817 3129.0984 3145.413 3162.1306 3178.0425 3194.0552 3210.1685 3226.0803 3241.8914 3257.6018 3273.413 3288.8213 3299.8992 -3011.27 2117.5872 3299.8992 3288.7207 3273.6145 3258.1055 3243.0999 3227.893 3212.686 3197.3784 3181.5674 3166.7632 3151.4556 3136.2488 3121.0417 3106.2378 3091.333 3075.824 3055.1787 2284.8633 894.68994 -477.8595 -1427.3346 -2287.7837 -3068.6736 3087.2039 3104.0222 3120.5383 3137.155 3153.6711 3170.0867 3186.2 3202.1118 3218.0237 3233.9355 3249.7466 3265.457 3281.1675 3296.6765 -3287.8142 -2883.4717 2288.4888 3299.8992 3295.2666 3280.1604 3264.8528 3249.5452 3234.439 3219.1313 3203.9246 3188.617 3173.108 3157.5989 3142.2913 3127.185 3112.1794 3097.2747 3081.967 3064.2424 2514.7795 1145.9564 -99.70093 -1074.9573 -1964.7125 -2828.0823 3157.5989 3100.9001 3117.517 3134.0332 3150.5493 3166.5618 3183.078 3199.1912 3215.103 3231.015 3246.8262 3262.8386 3278.3477 3293.8567 -3290.634 -2593.3318 2725.2593 3299.8992 3290.1306 3274.823 3259.616 3244.5098 3229.303 3214.096 3198.7883 3182.8765 3167.9717 3152.5635 3137.4573 3122.351 3107.3455 3092.5415 3077.0325 3059.5093 2520.7214 1033.7677 -361.84387 -1436.7004 -2241.6594 -3015.4998 3085.794 3102.411 3119.229 
2360.092 3254.782 3299.8992 3299.8992 3299.8992 3299.8992 3299.8992 3299.8992 3299.8992 3299.8992 3299.8992 3299.8992 3094.5557 1082.0068 -535.4645 -1772.4609 -2895.5566 -3123.056 -3108.4534 -3093.75 -3079.1472 -3064.8467 -3050.4456 -3036.447 -3022.5493 -3008.551 -2797.0642 -2402.7922 -2122.0183 -1741.745 -1347.2717 -1253.8147 -923.69385 -729.6295 -559.8358 -367.3828 -118.13049 77.041626 631.94275 1751.1108 2660.7056 3299.8992 3299.8992 3299.8992 3299.8992 3299.8992 3299.8992 3299.8992 3299.8992 3299.8992 3299.8992 3299.8992 3023.4558 900.1282 -666.1835 -1897.0367 -3035.6414 -3127.3865 -3112.4817 -3097.7783 -3083.377 -3068.9758 -3054.8767 -3040.6768 -3026.6785 -3012.68 -2925.769 -2551.1353 -2213.3606 -1875.8881 -1447.6776 -1399.1364 -1118.866 -920.16907 -729.5288 -355.39856 -120.64819 64.55383 726.9104 1969.7479 2766.1467 3299.8992 3299.8992 3299.8992 3299.8992 3299.8992 3299.8992 3299.8992 3299.8992 3299.8992 3299.8992 3299.8992 2887.802 713.91907 -872.7356 -2089.5903 -3139.0686 -3124.2644 -3109.3596 -3094.757 -3080.3557 -3065.7532 -3051.956 -3037.555 -3023.6572 -3009.6587 -2988.3086 -2616.8975 -2370.5657 -2035.1074 -1645.3674 -1559.1614 -1267.9138 -725.6012 -345.02563 -220.65125 7.0495605 254.18701 838.8977 2205.0017 2931.0059 3299.8992 3299.8992 3299.8992 3299.8992 3299.8992 3299.8992 3299.8992 3299.8992 3299.8992 3299.8992 3299.8992 2609.9487 409.47876 -1106.6803 -2331.7932 -3133.731 -3118.7256 -3103.9214 -3089.3188 -3074.9175 -3060.7178 -3046.5178 -3032.318 -3018.4204 -3004.5227 -2911.8713 -2519.412 -2129.1687 -1722.2076 -1226.9257 -1076.1658 -879.48303 -702.8412 -549.16077 -399.60938 -128.70483 107.65686 748.76404 1978.2074 2670.9778 3299.8992 3299.8992 3299.8992 3299.8992 3299.8992 3299.8992 3299.8992 3299.8992 3299.8992 3299.8992 3299.8992 2564.8315 333.74634 -1167.5079 -2380.6365 -3130.9111 -3115.9058 -3101.2024 -3086.7004 -3072.1985 -3057.898 -3043.7988 -3029.6997 -3015.7012 -3001.703 -2851.547 -2500.479 -2251.9316 -1869.5435 -1442.2394 -1164.6881 -843.9331 -553.1891 -249.65515 9.365845 356.10352 450.56763 998.6206 2064.7156 

-51.05896 -51.05896 -51.05896 -51.05896 -51.05896 -51.05896 -51.05896 -51.05896 -51.05896 -51.05896 -51.05896 -51.05896 -51.05896 -51.05896 -51.05896 -51.05896 -51.05896 -51.05896 -51.05896 -51.05896 -51.05896 -51.05896 -51.05896 -51.05896 -51.05896 -51.05896 -51.05896 -51.05896 -51.05896 -51.05896 -51.05896 -51.05896 -51.05896 -51.05896 -51.05896 -51.05896 -51.05896 -51.05896 -51.05896 -51.05896 -51.05896 -51.05896 -51.05896 -51.05896 -51.05896 -51.05896 -51.05896 -51.05896 -51.05896 -51.05896 -51.05896 -51.05896 -51.05896 -51.05896 -51.05896 -51.05896 -51.05896 -51.05896 -51.05896 -51.05896 -51.05896 -51.05896 -51.05896 -51.05896 -51.05896 -51.05896 -51.05896 -51.05896 -51.05896 -51.05896 -51.05896 -51.05896 -51.05896 -51.05896 -51.05896 -51.05896 -51.05896 -51.05896 -51.05896 -51.05896 -51.05896 -51.05896 -51.05896 -51.05896 -51.05896 -51.05896 -51.05896 -51.05896 -51.05896 -51.05896 -51.05896 -51.05896 -51.05896 -51.05896 -51.05896 -51.05896 -51.05896 -51.05896 -51.05896 -51.05896 -51.05896 -51.05896 -51.05896 -51.05896 -51.05896 -51.05896 -51.05896 -51.05896 -51.05896 -51.05896 -51.05896 -51.05896 -51.05896 -51.05896 -51.05896 -51.05896 -51.05896 -51.05896 -51.05896 -51.05896 -51.05896 -51.05896 -51.05896 -51.05896 -51.05896 -51.05896 -51.05896 -51.05896 -51.05896 -51.05896 -51.05896 -51.05896 -51.05896 -51.05896 -51.05896 -51.05896 -51.05896 -51.05896 -51.05896 -51.05896 -51.05896 -51.05896 -51.05896 -51.05896 -51.05896 -51.05896 -51.05896 -51.05896 -51.05896 -51.05896 -51.05896 -51.05896 -51.05896 -51.05896 -51.05896 -51.05896 -51.05896 -51.05896 -51.05896 -51.05896 -51.05896 -51.05896 -51.05896 -51.05896 -51.05896 -51.05896 -51.05896 -51.05896 -51.05896 -51.05896 -51.05896 -51.05896 -51.05896 -51.05896 -51.05896 -51.05896 -51.05896 -51.05896 -51.05896 -51.05896 -51.05896 -51.05896 -51.05896 -51.05896 -51.05896 -51.05896 -51.05896 -51.05896 -51.05896 -51.05896 -51.05896 -51.05896 -51.05896 -51.05896 -51.05896 -51.05896 -51.05896 -51.05896 -51.05896 -51.05896 
-13.394165 -15.710449 -28.701782 -24.27063 -11.380005 -3.1219482 2.4169922 -14.501953 -11.782837 -22.558594 -29.708862 -20.947266 -27.694702 -28.80249 -31.420898 -40.88745 -36.4563 -47.53418 -51.763916 -32.226562 -18.73169 -10.675049 4.3304443 9.567261 14.300537 14.501953 18.22815 20.846558 32.528687 43.40515 54.785156 77.645874 79.055786 81.57349 89.42871 96.67969 92.752075 90.03296 107.455444 105.944824 105.03845 86.50818 71.90552 43.203735 17.523193 -7.5531006 -17.019653 -37.564087 -34.240723 -39.88037 -39.074707 -40.283203 -24.169922 0.10070801 21.853638 49.0448 65.3595 84.79614 93.45703 96.98181 92.34924 87.41455 50.857544 -29.406738 -106.8512 -128.80554 -164.55688 -183.28857 -182.58362 -169.18945 -157.30591 -149.14856 -137.66785 -112.89368 -79.2572 -43.00232 -7.0495605 31.118774 61.23047 65.3595 61.834717 57.70569 55.288696 34.542847 20.544434 -31.924438 -62.942505 -37.261963 -11.279297 25.479126 14.904785 2.3162842 -30.615234 -34.44214 -21.047974 -9.667969 -15.408325 -14.804077 -20.141602 -12.789917 -2.5177002 -2.4169922 -5.2368164 -8.459473 -4.5318604 2.4169922 -5.0354004 -8.560181 1.2084961 9.768677 29.003906 52.770996 59.317017 74.82605 81.7749 98.59314 120.84961 144.31458 167.98096 175.33264 170.90149 198.7976 204.23584 212.29248 197.28699 175.23193 140.8905 80.96924 40.88745 21.047974 -30.81665 -83.184814 -114.70642 -129.00696 -174.32556 -225.48523 -253.58276 -266.27197 -268.78967 -226.08948 -174.12415 -118.13049 -85.80322 -45.721436 -24.572754 -9.063721 4.5318604 22.25647 32.025146 25.479126 -1.3092041 -17.72461 10.473633 3.1219482 26.586914 34.140015 34.140015 38.067627 44.210815 48.641968 57.907104 44.91577 24.77417 3.6254883 -54.382324 -110.77881 -138.57422 -137.96997 -143.20679 -125.582886 -97.787476 -59.014893 -46.224976 -30.715942 -24.27063 -26.385498 -19.940186 -18.127441 -14.300537 2.6184082 3.5247803 10.574341 9.365845 1.7120361 12.487793 20.645142 34.039307 39.98108 36.657715 40.283203 45.01648 67.474365 91.04004 113.497925 127.89917 139.48059 155.9967 161.93848 171.70715 155.59387 
3299.8992 3299.8992 3299.8992 3299.8992 3299.8992 3299.8992 3299.8992 3299.8992 3299.8992 3299.8992 3299.8992 3299.8992 3289.627 -3291.9434 -3274.9236 -3258.4075 -3242.0928 -3225.9795 -3210.0676 -3194.1558 -3178.6467 -3163.44 -3147.83 -3133.0261 -3118.0205 -3102.9143 -3088.0095 -3073.407 -3058.905 -3044.6045 -3030.304 -3016.2048 -2833.5205 -454.49524 2204.4983 3299.8992 3299.8992 3299.8992 3299.8992 3299.8992 3299.8992 3299.8992 3299.8992 3299.8992 3299.8992 3299.8992 3299.8992 3299.8992 3299.8992 3299.8992 3299.8992 3299.8992 3073.1047 -3292.044 -3275.125 -3258.7097 -3242.395 -3226.2817 -3210.269 -3194.458 -3178.8481 -3163.037 -3148.233 -3132.6233 -3117.6177 -3102.8137 -3088.3118 -3073.6084 -3059.1064 -3044.806 -3030.606 -3016.6077 -2803.2073 -530.7312 2331.0881 3299.8992 3299.8992 3299.8992 3299.8992 3299.8992 3299.8992 3299.8992 3299.8992 3299.8992 3299.8992 3299.8992 3299.8992 3299.8992 3299.8992 3299.8992 3299.8992 3299.8992 2730.194 -3290.332 -3273.5137 -3256.897 -3240.7837 -3224.5696 -3208.6577 -3192.7458 -3177.3376 -3161.5264 -3146.1182 -3131.4148 -3116.4092 -3101.303 -3086.3982 -3071.7957 -3057.3943 -3042.9932 -3028.7932 -3014.795 -2661.914 -72.9126 2791.928 3299.8992 3299.8992 3299.8992 3299.8992 3299.8992 3299.8992 3299.8992 3299.8992 3299.8992 3299.8992 3299.8992 3299.8992 3299.8992 3299.8992 3299.8992 3299.8992 3299.8992 2190.802 -3290.4326 -3273.715 -3257.0984 -3240.8843 -3224.8718 -3208.8591 -3193.048 -3177.4382 -3162.332 -3147.1252 -3131.6162 -3116.51 -3101.9072 -3087.2039 -3072.6013 -3058.0994 -3043.7988 -3029.5989 -3015.4998 -2597.8638 29.104614 2925.2654 3299.8992 3299.8992 3299.8992 3299.8992 3299.8992 3299.8992 3299.8992 3299.8992 3299.8992 3299.8992 3299.8992 3299.8992 3299.8992 3299.8992 3299.8992 3299.8992 3299.8992 1694.2108 -3290.5334 -3273.9165 -3257.2998 -3241.0857 -3224.9724 -3209.0605 -3193.2495 -3177.6396 -3161.9292 -3147.0244 -3131.5154 -3116.4092 -3101.7058 -3087.2039 -3072.4 -3058.0994 -3043.7988 -3029.4983 -3015.3992 -2351.6326 389.03503 3272.8088 3299.8992 3299.8992 3299.8992 3299.8992 3299.8992 
3299.8992 3299.8992 3299.8992 3299.8992 3299.8992 3299.8992 3299.8992 3299.8992 3299.8992 3299.8992 3290.0298 3275.125 3074.817 3264.45 3280.4626 3296.0723 -3288.6199 -3273.3123 -3258.307 -3243.3013 -3228.4973 -3213.9954 -3199.0906 -3184.79 -3170.4895 -3155.9875 -3142.1904 -3128.1921 -3114.2944 -3100.5981 -3087.0024 -3073.407 -2212.9578 282.08313 2444.6868 3299.8992 3299.8992 3299.8992 3299.8992 3299.8992 3299.8992 3299.8992 3299.8992 3299.8992 3299.8992 3299.8992 3299.8992 3299.8992 3299.8992 3299.8992 3290.5334 3275.5278 2594.2383 3267.9749 3283.9873 3299.4963 -3284.9944 -3269.7876 -3254.782 -3239.7766 -3225.0732 -3210.5713 -3195.767 -3181.366 -3167.0654 -3152.765 -3138.8672 -3124.8687 -3111.0718 -3097.2747 -3083.6792 -3070.285 -1761.1816 680.484 2860.4094 3299.8992 3299.8992 3299.8992 3299.8992 3299.8992 3299.8992 3299.8992 3299.8992 3299.8992 3299.8992 3299.8992 3299.8992 3299.8992 3299.8992 3299.8992 3288.3179 3273.2117 2288.1865 3267.2698 3283.1816 3298.7915 -3285.901 -3270.5933 -3255.5876 -3240.6829 -3225.879 -3210.974 -3196.4722 -3182.373 -3167.871 -3153.4697 -3139.6729 -3125.6743 -3111.8774 -3098.0803 -3084.4849 -3070.99 -1988.8824 355.09644 2554.257 3299.8992 3299.8992 3299.8992 3299.8992 3299.8992 3299.8992 3299.8992 3299.8992 3299.8992 3299.8992 3299.8992 3299.8992 3299.8992 3299.8992 3299.8992 3291.0369 3275.9307 1821.405 3271.8018 3287.7136 3299.8992 -3281.4697 -3266.162 -3251.056 -3236.2517 -3221.4478 -3207.0464 -3192.343 -3177.942 -3163.6414 -3149.8442 -3135.443 -3121.4446 -3107.7483 -3094.052 -3080.5571 -3066.9617 -1432.37 1096.2067 3234.0361 3299.8992 3299.8992 3299.8992 3299.8992 3299.8992 3299.8992 3299.8992 3299.8992 3299.8992 3299.8992 3299.8992 3299.8992 3299.8992 3299.8992 3299.8992 3286.908 3271.701 1014.9353 3270.5933 3286.4043 3299.8992 -3282.7788 -3267.4712 -3252.4658 -3237.561 -3222.7568 -3207.953 -3193.6523 -3179.251 -3164.9504 -3151.0527 -3136.853 -3122.8545 -3109.0576 -3095.3613 -3081.665 -3068.2708 -1440.1245 951.28784 3083.377 3299.8992 3299.8992 3299.8992 3299.8992 3299.8992 
3195.465 3210.8733 3225.778 3241.287 3256.0913 3271.1975 3285.6995 3299.8992 -3284.491 -3269.989 -3255.3862 -3241.0857 -2438.1409 3299.8992 3299.8992 3299.8992 3299.8992 3299.8992 3292.6482 3277.8442 3263.1409 3248.3367 3233.2305 3218.4265 3203.7231 3189.0198 3174.6184 3159.4116 3145.111 3130.9111 3116.7114 2719.1162 774.9481 -983.6151 -2328.2683 3126.6814 3136.7522 3152.5635 3168.274 3183.5815 3198.9897 3214.2974 3229.7058 3244.812 3259.616 3274.6216 3289.7278 3299.8992 -3281.2683 -3266.7664 -3252.2644 -3237.863 -1998.8525 3299.8992 3299.8992 3299.8992 3299.8992 3299.8992 3293.2524 3278.4485 3263.6443 3248.941 3234.2375 3219.1313 3204.8308 3190.1274 3175.2227 3160.2173 3146.3196 3132.1196 3115.805 2469.461 565.5762 -1158.3435 -2441.464 3125.7751 3141.5862 3157.196 3172.8057 3188.3147 3203.6223 3218.8293 3233.9355 3249.1423 3264.148 3279.0527 3293.4539 -3291.5405 -3276.8372 -3262.2344 -3247.8333 -3233.5327 -1606.0913 3299.8992 3299.8992 3299.8992 3299.8992 3299.8992 3295.6694 3280.8655 3266.162 3251.2573 3236.1511 3221.5483 3206.6436 3191.8396 3177.539 3162.332 3147.83 3133.6304 3117.4163 2464.224 649.46594 -1023.5962 -2390.808 3125.8757 3141.687 3157.498 3173.007 3188.516 3203.9246 3219.0308 3234.439 3249.5452 3264.3494 3279.2542 3294.3604 -3290.8354 -3276.535 -3262.033 -3247.6318 -3233.3313 -1281.6101 3299.8992 3299.8992 3299.8992 3299.8992 3299.8992 3294.6624 3279.959 3265.155 3250.3508 3235.6475 3220.944 3205.838 3191.2354 3177.1362 3161.8286 3147.3267 3133.2275 3115.9058 2355.1575 484.0027 -1146.8628 -2473.7915 3127.7893 3143.7012 3159.3108 3175.0212 3190.5303 3205.7373 3220.944 3236.3525 3251.358 3266.464 3281.4697 3295.9717 -3289.0227 -3274.3193 -3259.8174 -3245.3154 -3231.1157 -767.4957 3299.8992 3299.8992 3299.8992 3299.8992 3299.8992 3294.5618 3279.8584 3265.0542 3250.1494 3235.144 3220.1384 3205.536 3190.933 3175.9277 3161.023 3147.1252 3133.0261 3114.9993 2115.7744 115.10925 -1433.075 -2744.998 3133.2275 3148.938 3164.6484 3180.359 3195.6665 
3299.8992 3299.8992 3299.8992 3299.8992 3299.8992 3299.8992 3299.8992 3299.8992 3299.8992 3299.8992 3299.8992 3299.8992 3299.8992 -1027.7252 -3153.2683 -3137.86 -3122.5525 -3107.6477 -3092.743 -3078.0396 -3063.4368 -3048.9348 -3034.4329 -3020.2332 -3006.3354 -2992.337 -2978.54 -2964.743 -2951.1475 -2937.5518 -2924.2583 -2910.7634 -2562.3137 -1072.4396 406.65894 1544.458 2581.4482 3299.8992 3299.8992 3299.8992 3299.8992 3299.8992 3299.8992 3299.8992 3299.8992 3299.8992 3299.8992 3299.8992 3299.8992 3299.8992 3299.8992 3299.8992 3299.8992 -1403.2654 -3160.5193 -3145.0103 -3129.8035 -3114.6973 -3099.6917 -3085.089 -3070.3857 -3055.8838 -3041.7847 -3027.3833 -3013.0828 -2998.9836 -2985.1868 -2971.289 -2957.7942 -2944.1985 -2930.8044 -2917.4102 -2727.5757 -1457.6477 -106.64978 1169.6228 2391.513 3299.8992 3299.8992 3299.8992 3299.8992 3299.8992 3299.8992 3299.8992 3299.8992 3299.8992 3299.8992 3299.8992 3299.8992 3299.8992 3299.8992 3299.8992 3299.8992 -1921.7102 -3157.196 -3141.7876 -3126.48 -3111.4746 -3096.5698 -3081.8665 -3067.2637 -3052.7617 -3038.864 -3024.362 -3010.1624 -2996.1638 -2982.266 -2968.4692 -2954.8735 -2941.3787 -2927.8838 -2914.5903 -2772.9949 -1597.8333 -201.91956 1186.3403 2424.3438 3299.8992 3299.8992 3299.8992 3299.8992 3299.8992 3299.8992 3299.8992 3299.8992 3299.8992 3299.8992 3299.8992 3299.8992 3299.8992 3299.8992 3299.8992 3151.7578 -2540.863 -3150.8513 -3135.443 -3120.337 -3105.2307 -3090.4265 -3075.6226 -3061.1206 -3046.7192 -3032.318 -3018.219 -3004.3213 -2990.3228 -2976.526 -2962.8296 -2949.1333 -2935.5376 -2922.2441 -2908.9507 -2612.3657 -1226.3214 229.21143 1537.4084 2719.821 3299.8992 3299.8992 3299.8992 3299.8992 3299.8992 3299.8992 3299.8992 3299.8992 3299.8992 3299.8992 3299.8992 3299.8992 3299.8992 3299.8992 3299.8992 3136.6516 -2658.1877 -3152.362 -3136.9536 -3121.7468 -3106.7412 -3091.8364 -3077.234 -3062.631 -3048.3306 -3033.728 -3019.629 -3005.6304 -2991.7327 -2977.835 -2964.1387 -2950.5432 -2936.9475 -2923.654 -2910.1592 -2667.453 -1398.0286 58.410645 1599.7467 2783.267 3299.8992 3299.8992 3299.8992 
3135.745 3152.1606 3167.9717 3184.4878 3200.601 3216.6138 3232.3242 3248.3367 3264.148 3279.657 3295.468 -3289.325 -2348.5107 3114.2944 3299.8992 3289.4255 3274.3193 3258.9111 3243.704 3228.4973 3213.2903 3198.0835 3182.1716 3167.166 3151.9592 3136.5508 3121.5454 3106.6406 3091.8364 3076.2268 3056.6895 2225.7476 696.5973 -545.03174 -1471.1426 -2326.2542 -3090.628 3090.0237 3106.6406 3123.1567 3139.8743 3156.189 3172.705 3188.7175 3204.6294 3220.5413 3236.554 3252.365 3267.9749 3283.6853 3299.1943 -3285.3972 -1944.7723 3299.8992 3299.8992 3290.332 3275.2258 3259.9182 3244.7112 3229.4036 3214.2974 3198.8892 3183.6821 3168.173 3152.765 3137.5579 3122.4517 3107.4463 3092.5415 3077.133 3047.8271 2097.9492 531.23474 -695.4895 -1661.8835 -2505.313 3299.8992 3095.6633 3112.4817 3129.0984 3145.514 3161.9292 3178.1433 3194.3572 3210.269 3226.2817 3242.0928 3257.904 3273.6145 3289.1235 3299.8992 -3279.959 -1725.3296 3299.8992 3299.8992 3294.3604 3279.1533 3263.9465 3248.639 3233.3313 3218.1243 3202.6152 3187.4084 3171.7986 3156.491 3141.2842 3126.0771 3110.971 3096.167 3080.7585 3061.624 2202.3833 669.0033 -593.6737 -1613.0402 -2401.6846 -3142.694 3096.0662 3112.7837 3129.2998 3145.9167 3162.2314 3178.7476 3194.76 3210.6719 3226.5837 3242.395 3258.206 3273.9165 3289.627 3299.8992 -3279.5562 -1462.7838 3299.8992 3299.8992 3293.4539 3278.247 3262.9395 3247.7324 3232.4248 3217.218 3201.8096 3186.502 3171.0938 3155.5847 3140.3777 3125.171 3110.1653 3095.3613 3079.953 3059.1064 2116.8823 657.01904 -513.91296 -1462.381 -2411.554 -3246.524 3095.462 3112.1794 3128.6956 3145.3125 3161.5264 3177.539 3194.0552 3209.967 3226.0803 3241.7908 3257.904 3273.413 3288.922 3299.8992 -3280.1604 -915.3351 3299.8992 3299.8992 3289.8284 3274.4202 3259.2131 3244.0063 3228.7993 3213.693 3198.184 3182.373 3167.2668 3152.0598 3136.853 3121.5454 3106.7412 3091.8364 3076.3274 3050.7476 2073.175 555.9082 -606.1615 -1534.6893 -2362.4084 -3024.6643 3092.4407 3109.1582 3125.6743 
2611.963 3299.8992 3299.8992 3299.8992 3299.8992 3299.8992 3299.8992 3299.8992 3299.8992 3299.8992 3299.8992 3299.8992 2071.8657 -40.38391 -1502.0599 -2583.4624 -3127.9907 -3113.086 -3098.4832 -3083.9812 -3069.6807 -3055.2795 -3041.0796 -3026.9805 -3013.0828 -2999.286 -2922.4456 -2554.358 -2104.2937 -1726.5381 -1532.7759 -1271.1365 -978.2776 -866.4917 -596.0907 -426.80054 -131.62537 201.71814 1018.4601 2262.0024 3045.813 3299.8992 3299.8992 3299.8992 3299.8992 3299.8992 3299.8992 3299.8992 3299.8992 3299.8992 3299.8992 3299.8992 2393.3257 225.38452 -1274.9634 -2532.1013 -3124.5667 -3109.561 -3094.8577 -3080.3557 -3065.9546 -3051.5532 -3037.555 -3023.5564 -3009.558 -2995.761 -2825.7659 -2468.051 -2233.5022 -1895.8282 -1333.7769 -1106.8817 -849.0692 -663.36365 -417.5354 -31.018066 211.68823 498.0011 1244.046 2404.1016 3167.4683 3299.8992 3299.8992 3299.8992 3299.8992 3299.8992 3299.8992 3299.8992 3299.8992 3299.8992 3299.8992 3299.8992 2371.6736 259.1217 -1269.8273 -2455.966 -3131.314 -3116.3086 -3101.6052 -3087.0024 -3072.702 -3058.2 -3044.1008 -3030.1025 -3016.104 -3002.2063 -2977.4321 -2530.9937 -2146.994 -1882.4341 -1508.7067 -1289.3646 -907.9834 -513.4094 -206.95496 102.21863 291.34827 613.11035 1460.1654 2529.9866 3220.5413 3299.8992 3299.8992 3299.8992 3299.8992 3299.8992 3299.8992 3299.8992 3299.8992 3299.8992 3299.8992 3299.8992 2131.6863 101.01013 -1391.3818 -2600.9856 -3136.7522 -3121.646 -3106.842 -3092.4407 -3077.9387 -3063.4368 -3049.4385 -3035.3394 -3021.3408 -3007.3425 -2993.2434 -2782.7637 -2484.0637 -2164.3157 -1501.355 -1220.8832 -684.1095 -312.59766 -105.23987 64.65454 217.02576 499.51172 1382.016 2456.369 3153.1677 3299.8992 3299.8992 3299.8992 3299.8992 3299.8992 3299.8992 3299.8992 3299.8992 3299.8992 3299.8992 3299.8992 1857.6599 -159.11865 -1475.8759 -2745.0989 -3134.6375 -3119.7327 -3104.9285 -3090.4265 -3076.0254 -3061.7249 -3047.4243 -3033.5266 -3019.528 -3005.6304 -2781.958 -2368.048 -2222.7263 -1872.2626 -1349.8901 -1032.2571 -734.4635 -475.74463 -250.66223 29.003906 83.08411 267.07764 1170.3278 2241.458 

-51.05896 -51.05896 -51.05896 -51.05896 -51.05896 -51.05896 -51.05896 -51.05896 -51.05896 -51.05896 -51.05896 -51.05896 -51.05896 -51.05896 -51.05896 -51.05896 -51.05896 -51.05896 -51.05896 -51.05896 -51.05896 -51.05896 -51.05896 -51.05896 -51.05896 -51.05896 -51.05896 -51.05896 -51.05896 -51.05896 -51.05896 -51.05896 -51.05896 -51.05896 -51.05896 -51.05896 -51.05896 -51.05896 -51.05896 -51.05896 -51.05896 -51.05896 -51.05896 -51.05896 -51.05896 -51.05896 -51.05896 -51.05896 -51.05896 -51.05896 -51.05896 -51.05896 -51.05896 -51.05896 -51.05896 -51.05896 -51.05896 -51.05896 -51.05896 -51.05896 -51.05896 -51.05896 -51.05896 -51.05896 -51.05896 -51.05896 -51.05896 -51.05896 -51.05896 -51.05896 -51.05896 -51.05896 -51.05896 -51.05896 -51.05896 -51.05896 -51.05896 -51.05896 -51.05896 -51.05896 -51.05896 -51.05896 -51.05896 -51.05896 -51.05896 -51.05896 -51.05896 -51.05896 -51.05896 -51.05896 -51.05896 -51.05896 -51.05896 -51.05896 -51.05896 -51.05896 -51.05896 -51.05896 -51.05896 -51.05896 -51.05896 -51.05896 -51.05896 -51.05896 -51.05896 -51.05896 -51.05896 -51.05896 -51.05896 -51.05896 -51.05896 -51.05896 -51.05896 -51.05896 -51.05896 -51.05896 -51.05896 -51.05896 -51.05896 -51.05896 -51.05896 -51.05896 -51.05896 -51.05896 -51.05896 -51.05896 -51.05896 -51.05896 -51.05896 -51.05896 -51.05896 -51.05896 -51.05896 -51.05896 -51.05896 -51.05896 -51.05896 -51.05896 -51.05896 -51.05896 -51.05896 -51.05896 -51.05896 -51.05896 -51.05896 -51.05896 -51.05896 -51.05896 -51.05896 -51.05896 -51.05896 -51.05896 -51.05896 -51.05896 -51.05896 -51.05896 -51.05896 -51.05896 -51.05896 -51.05896 -51.05896 -51.05896 -51.05896 -51.05896 -51.05896 -51.05896 -51.05896 -51.05896 -51.05896 -51.05896 -51.05896 -51.05896 -51.05896 -51.05896 -51.05896 -51.05896 -51.05896 -51.05896 -51.05896 -51.05896 -51.05896 -51.05896 -51.05896 -51.05896 -51.05896 -51.05896 -51.05896 -51.05896 -51.05896 -51.05896 -51.05896 -51.05896 -51.05896 -51.05896 -51.05896 -51.05896 -51.05896 -51.05896 -51.05896 -51.05896 -51.05896 -51.05896 -51.05896 -51.05896 -51.05896 -51.05896 -51.05896 -51.05896 -51.05896 -51.05896 -51.05896 -51.05896 -51.05896 -51.05896 -51.05896 -51.05896 -51.05896 -51.05896 -51.05896 -51.05896 
146.83228 137.86926 125.7843 116.31775 108.1604 71.09985 15.307617 -26.083374 -62.036133 -88.0188 -116.015625 -148.3429 -179.15955 -195.37354 -204.9408 -180.46875 -158.81653 -152.47192 -131.72607 -80.06287 -47.53418 -25.27771 -0.10070801 14.703369 21.450806 17.926025 20.443726 19.839478 15.710449 23.364258 8.157349 10.775757 11.077881 16.918945 20.040894 15.911865 24.77417 35.95276 56.396484 46.829224 7.5531006 18.530273 18.933105 18.429565 24.572754 35.34851 37.36267 32.730103 27.996826 59.417725 35.751343 24.371338 32.226562 35.046387 22.558594 26.78833 49.749756 47.93701 76.7395 132.83386 185.20203 194.46716 172.41211 180.06592 168.78662 155.39246 121.554565 97.48535 82.58057 42.095947 -21.148682 -92.95349 -141.29333 -184.69849 -197.99194 -206.45142 -218.93921 -221.75903 -193.96362 -155.49316 -139.682 -113.09509 -101.815796 -89.42871 -63.345337 -51.260376 -38.671875 -36.254883 -60.12268 -80.163574 -74.020386 -50.55542 -34.744263 -12.387085 -2.5177002 3.9276123 0.30212402 -19.638062 -21.954346 -19.940186 -52.267456 -56.396484 -48.138428 -25.479126 -21.652222 -3.1219482 5.5389404 15.408325 14.904785 31.219482 38.36975 24.069214 18.933105 19.537354 13.192749 19.23523 38.067627 60.827637 79.35791 66.06445 34.643555 49.145508 87.01172 94.262695 90.43579 71.80481 68.78357 76.23596 92.85278 105.84412 101.312256 81.27136 77.44446 110.77881 126.48926 121.9574 110.37598 102.923584 94.96765 111.08093 130.8197 138.87634 106.75049 42.196655 -35.549927 -134.04236 -178.95813 -208.36487 -226.99585 -224.67957 -195.07141 -170.39795 -160.12573 -152.06909 -129.6112 -100.808716 -85.60181 -72.006226 -59.014893 -70.79773 -65.15808 -51.05896 -41.99524 -40.48462 -36.95984 -55.18799 -57.907104 -58.309937 -42.49878 -12.387085 -6.8481445 -13.293457 -14.703369 -17.523193 -10.574341 15.509033 33.737183 34.643555 31.219482 27.694702 18.127441 6.6467285 1.1077881 5.0354004 19.940186 32.93152 27.79541 26.586914 27.191162 38.47046 34.84497 40.48462 45.41931 52.972412 63.848877 82.681274 84.695435 100.00305 94.06128 66.56799 41.4917 29.205322 43.103027 71.20056 104.434204 123.66943 113.497925 115.20996 107.455444 83.28552 58.007812 38.36975 22.055054 16.21399 -36.35559 -86.30676 -112.89368 -135.25085 -125.38147 -92.65137 
3299.8992 3299.8992 3299.8992 3299.8992 3299.8992 3299.8992 3299.8992 3299.8992 3299.8992 3299.8992 3299.8992 3299.8992 1021.88416 -3291.641 -3274.823 -3258.307 -3241.9922 -3225.9795 -3209.967 -3194.1558 -3178.6467 -3163.44 -3147.83 -3133.0261 -3118.0205 -3103.0151 -3088.1104 -3073.5076 -3059.0056 -3044.705 -3030.4045 -3016.3054 -2227.8625 465.77454 3239.273 3299.8992 3299.8992 3299.8992 3299.8992 3299.8992 3299.8992 3299.8992 3299.8992 3299.8992 3299.8992 3299.8992 3299.8992 3299.8992 3299.8992 3299.8992 3299.8992 3299.8992 234.34753 -3291.5405 -3274.823 -3258.307 -3242.0928 -3225.9795 -3210.0676 -3194.3572 -3178.7476 -3162.8357 -3148.1323 -3132.5225 -3117.517 -3102.713 -3088.1104 -3073.5076 -3059.1064 -3044.705 -3030.5054 -3016.4062 -2102.6824 641.81213 3299.8992 3299.8992 3299.8992 3299.8992 3299.8992 3299.8992 3299.8992 3299.8992 3299.8992 3299.8992 3299.8992 3299.8992 3299.8992 3299.8992 3299.8992 3299.8992 3299.8992 3299.8992 -606.3629 -3290.5334 -3273.816 -3257.4004 -3241.0857 -3225.0732 -3209.1614 -3193.35 -3177.841 -3162.7349 -3147.0244 -3132.2205 -3117.1143 -3102.1086 -3087.4053 -3072.702 -3058.2 -3043.8994 -3029.6997 -3015.6006 -1906.2012 825.60425 3299.8992 3299.8992 3299.8992 3299.8992 3299.8992 3299.8992 3299.8992 3299.8992 3299.8992 3299.8992 3299.8992 3299.8992 3299.8992 3299.8992 3299.8992 3299.8992 3299.8992 3299.8992 -1530.2582 -3289.325 -3272.708 -3256.0913 -3239.978 -3223.8647 -3207.953 -3192.2424 -3176.532 -3161.6272 -3146.4202 -3130.9111 -3115.805 -3101.2024 -3086.499 -3071.8962 -3057.3943 -3043.1946 -3028.9946 -3014.8955 -1675.882 1073.4467 3299.8992 3299.8992 3299.8992 3299.8992 3299.8992 3299.8992 3299.8992 3299.8992 3299.8992 3299.8992 3299.8992 3299.8992 3299.8992 3299.8992 3299.8992 3299.8992 3299.8992 3299.8992 -2738.0493 -3288.6199 -3271.9023 -3255.5876 -3239.273 -3223.361 -3207.3486 -3191.6382 -3176.1292 -3160.3179 -3145.0103 -3130.307 -3115.3015 -3100.296 -3085.391 -3070.7886 -3056.3872 -3041.986 -3027.887 -3013.7878 -1549.7955 1290.5731 3299.8992 3299.8992 3299.8992 3299.8992 3299.8992 3299.8992 3299.8992 3299.8992 3299.8992 3299.8992 3299.8992 3299.8992 3299.8992 3299.8992 3299.8992 3299.8992 3299.8992 3299.8992 3294.9646 -3288.1165 -3271.4995 -3255.0842 -3238.87 -3222.8577 -3206.9458 -3191.2354 
3299.8992 3299.8992 3299.8992 3299.8992 3299.8992 3299.8992 3299.8992 3299.8992 3299.8992 3299.8992 3286.8071 3271.6003 392.4591 3272.5066 3288.217 3299.8992 -3280.966 -3265.6584 -3250.5522 -3235.8489 -3220.944 -3206.1401 -3191.7388 -3177.4382 -3163.1377 -3149.24 -3135.0403 -3121.1426 -3107.2449 -3093.6492 -3080.0537 -3061.322 -999.12415 1541.7389 3299.8992 3299.8992 3299.8992 3299.8992 3299.8992 3299.8992 3299.8992 3299.8992 3299.8992 3299.8992 3299.8992 3299.8992 3299.8992 3299.8992 3299.8992 3297.0793 3282.2754 3266.9678 14.804077 3268.982 3284.793 3299.8992 -3284.2896 -3269.0825 -3254.0771 -3239.1724 -3224.3682 -3209.5642 -3195.1628 -3180.7617 -3166.5618 -3152.664 -3138.263 -3124.2644 -3110.568 -3096.7712 -3083.2764 -3052.057 -772.0276 1482.3212 3299.8992 3299.8992 3299.8992 3299.8992 3299.8992 3299.8992 3299.8992 3299.8992 3299.8992 3299.8992 3299.8992 3299.8992 3299.8992 3299.8992 3299.8992 3293.756 3278.8513 3263.4429 -1015.53955 3268.6797 3284.2896 3299.8992 -3284.6924 -3269.4854 -3254.48 -3239.5752 -3224.771 -3209.967 -3195.6665 -3181.1646 -3166.864 -3153.067 -3138.6658 -3124.6672 -3111.0718 -3097.2747 -3083.5784 -3065.8538 -905.96924 1498.8373 3297.1802 3299.8992 3299.8992 3299.8992 3299.8992 3299.8992 3299.8992 3299.8992 3299.8992 3299.8992 3299.8992 3299.8992 3299.8992 3299.8992 3299.8992 3294.3604 3279.4556 3264.148 -1697.1313 3270.996 3286.8071 3299.8992 -3282.376 -3267.1692 -3252.1636 -3237.2588 -3222.5554 -3208.1543 -3193.2495 -3179.0496 -3164.749 -3150.8513 -3136.5508 -3122.5525 -3108.7554 -3095.16 -3081.665 -2921.7407 -690.7562 1651.0071 3299.8992 3299.8992 3299.8992 3299.8992 3299.8992 3299.8992 3299.8992 3299.8992 3299.8992 3299.8992 3299.8992 3299.8992 3299.8992 3299.8992 3299.8992 3293.3533 3278.3477 3262.9395 -2586.2822 3272.406 3288.217 3299.8992 -3281.067 -3265.8599 -3250.8545 -3236.0503 -3221.2463 -3206.845 -3192.041 -3177.841 -3163.44 -3149.1394 -3135.3423 -3121.344 -3107.5469 -3093.9514 -3080.3557 -2972.699 -768.1 1446.6705 3299.8992 3299.8992 3299.8992 3299.8992 3299.8992 3299.8992 3299.8992 3299.8992 3299.8992 3299.8992 3299.8992 3299.8992 3299.8992 3299.8992 3299.8992 3296.0723 3281.1675 3265.6584 -2997.4731 3276.132 3291.742 3299.8992 -3277.4414 -3262.3352 -3247.3296 -3232.4248 
3210.974 3226.181 3241.0857 3256.192 3270.996 3285.901 3299.8992 -3284.2896 -3270.0896 -3255.487 -3241.0857 -3226.886 -424.18213 3299.8992 3299.8992 3299.8992 3299.8992 3299.8992 3297.4822 3282.4768 3267.572 3252.6672 3237.9639 3223.2605 3208.255 3193.6523 3179.3518 3164.0442 3149.6428 3135.443 3118.6248 2367.8467 357.71484 -1317.9657 -2757.3853 3132.9253 3148.8372 3164.6484 3180.0566 3195.465 3210.8733 3225.9795 3241.4885 3256.3933 3271.4995 3286.5051 3299.8992 -3284.1887 -3269.3848 -3254.9834 -3240.4814 -3226.2817 -41.99524 3299.8992 3299.8992 3299.8992 3299.8992 3299.8992 3296.3745 3281.5703 3266.7664 3251.9622 3236.856 3221.8506 3207.4492 3192.7458 3177.7405 3162.7349 3148.8372 3134.738 3116.9128 2107.315 169.7937 -1480.5084 -2826.9744 3135.3423 3151.1536 3166.7632 3182.373 3197.7812 3212.9883 3228.195 3243.2007 3258.4075 3273.0103 3287.8142 3299.8992 -3282.376 -3268.0754 -3253.5735 -3239.273 -3224.9724 609.18274 3299.8992 3299.8992 3299.8992 3299.8992 3299.8992 3295.166 3280.4626 3265.5579 3250.8545 3235.9497 3221.347 3206.3416 3191.4368 3177.3376 3162.1306 3147.6287 3133.6304 3115.805 2100.5676 63.64746 -1500.4486 -2865.6462 3134.9395 3150.7507 3166.4612 3181.9702 3197.2778 3212.5854 3227.893 3243.2007 3258.0046 3273.413 3288.3179 3299.8992 -3282.2754 -3267.7734 -3253.2715 -3238.87 -3224.6704 1158.847 3299.8992 3299.8992 3299.8992 3299.8992 3299.8992 3293.756 3278.7505 3263.8457 3249.1423 3234.0361 3219.2322 3204.6294 3190.0269 3175.0212 3160.0159 3146.1182 3132.019 3111.5752 1781.0211 -155.69458 -1770.2454 -2993.042 3138.0615 3153.772 3169.4824 3184.8906 3200.3997 3215.6067 3230.8135 3245.819 3260.7239 3275.9307 3290.7349 3299.8992 -3279.959 -3265.2556 -3250.7537 -3236.3525 -3222.2534 1665.2069 3299.8992 3299.8992 3299.8992 3299.8992 3299.8992 3293.9575 3279.1533 3264.3494 3249.4446 3234.3384 3219.4336 3204.7302 3190.1274 3175.7263 3160.4187 3146.0173 3131.8176 3104.1228 1767.627 -128.80554 -1596.4233 -2732.5103 3136.0474 3151.8584 3167.5688 3183.078 3198.4863 3213.693 3228.9001 3244.3083 3259.2131 3274.4202 3289.325 3299.8992 -3281.4697 -3266.6655 -3252.2644 -3237.7625 -3223.6633 2120.8098 3299.8992 3299.8992 3299.8992 3299.8992 3299.8992 3291.0369 3276.132 
3299.8992 3299.8992 3299.8992 3299.8992 3299.8992 3299.8992 3299.8992 3299.8992 3299.8992 3299.8992 3299.8992 3299.8992 2672.2869 -3164.0442 -3148.3337 -3133.0261 -3117.819 -3102.8137 -3088.0095 -3073.407 -3058.7036 -3044.403 -3030.4045 -3016.0034 -3001.8035 -2987.9058 -2974.109 -2960.4126 -2946.817 -2933.322 -2919.928 -2906.735 -2486.1785 -1204.9713 168.68591 1582.9285 2680.545 3299.8992 3299.8992 3299.8992 3299.8992 3299.8992 3299.8992 3299.8992 3299.8992 3299.8992 3299.8992 3299.8992 3299.8992 3299.8992 3299.8992 3299.8992 2567.2485 -3162.1306 -3146.4202 -3131.1125 -3115.9058 -3100.9001 -3086.0962 -3071.3928 -3056.8909 -3042.4895 -3028.5918 -3014.1907 -3000.0916 -2986.1938 -2972.3967 -2958.7004 -2945.105 -2931.5093 -2918.1152 -2904.9224 -2385.974 -1094.696 295.3766 1646.6766 2810.861 3299.8992 3299.8992 3299.8992 3299.8992 3299.8992 3299.8992 3299.8992 3299.8992 3299.8992 3299.8992 3299.8992 3299.8992 3299.8992 3299.8992 3299.8992 2170.9624 -3160.5193 -3144.8088 -3129.2998 -3114.2944 -3099.2888 -3084.5854 -3069.882 -3055.3801 -3040.979 -3026.3762 -3012.4785 -2998.4802 -2984.5825 -2970.8862 -2957.19 -2943.5942 -2929.9988 -2916.806 -2903.5125 -2659.6985 -1483.429 -230.62134 1130.246 2324.4414 3299.8992 3299.8992 3299.8992 3299.8992 3299.8992 3299.8992 3299.8992 3299.8992 3299.8992 3299.8992 3299.8992 3299.8992 3299.8992 3299.8992 3299.8992 1812.9456 -3147.3267 -3131.7168 -3116.3086 -3101.303 -3086.3982 -3071.6948 -3057.0923 -3042.5903 -3028.2898 -3014.392 -2999.9907 -2986.093 -2972.1953 -2958.3984 -2944.9036 -2931.4087 -2918.0144 -2904.721 -2891.629 -2115.4724 -682.5989 823.08655 2258.377 3299.8992 3299.8992 3299.8992 3299.8992 3299.8992 3299.8992 3299.8992 3299.8992 3299.8992 3299.8992 3299.8992 3299.8992 3299.8992 3299.8992 3299.8992 3299.8992 1424.7162 -3153.8726 -3138.263 -3122.8545 -3107.7483 -3092.9443 -3078.1401 -3063.4368 -3049.0356 -3034.6343 -3020.938 -3006.436 -2992.4377 -2978.54 -2964.743 -2951.0466 -2937.6526 -2924.1577 -2910.8643 -2897.6714 -2432.7026 -1074.8566 406.96106 1804.4861 2883.3708 3299.8992 3299.8992 3299.8992 3299.8992 3299.8992 3299.8992 3299.8992 3299.8992 3299.8992 3299.8992 3299.8992 3299.8992 3299.8992 3299.8992 3299.8992 1033.8684 -3148.5352 -3132.9253 -3117.6177 -3102.6123 -3087.7075 -3073.0042 -3058.4014 
3142.1904 3158.7065 3174.417 3190.933 3207.0464 3222.8577 3238.7695 3254.5806 3270.3918 3286.0015 3299.8992 -3283.081 -768.5028 3299.8992 3299.8992 3286.0015 3270.6938 3255.487 3240.3809 3225.1738 3209.8662 3194.5586 3178.5461 3163.5405 3148.3337 3133.3281 3118.0205 3103.1157 3088.3118 3072.8027 3032.9224 2051.724 647.6532 -524.4873 -1539.624 -2444.5862 -3215.7073 3089.4194 3106.4392 3122.8545 3139.3706 3155.8867 3171.698 3188.214 3204.428 3220.1384 3236.2517 3251.9622 3267.6726 3283.1816 3298.892 -3285.5986 -378.86353 3299.8992 3296.475 3281.369 3266.0613 3250.8545 3235.7483 3220.5413 3205.3345 3190.0269 3174.2156 3159.1094 3143.8018 3128.7964 3113.8916 3098.7854 3084.1826 3068.573 3002.71 1939.032 421.66443 -814.42566 -1796.1273 -2582.4553 -3212.1826 3090.225 3106.9426 3123.761 3140.1763 3156.491 3172.9065 3188.919 3204.8308 3220.7427 3236.7554 3252.4658 3268.1763 3283.786 3299.295 -3285.2966 -113.1958 3299.8992 3295.5688 3280.3618 3265.155 3249.948 3234.7412 3219.635 3204.3274 3189.0198 3173.8127 3158.4045 3142.996 3127.7893 3112.7837 3097.879 3083.075 3067.0623 2939.9688 1789.682 371.71326 -818.454 -1813.0463 -2677.826 3278.65 3091.333 3108.1511 3124.6672 3141.0828 3157.5989 3174.0142 3190.0269 3206.0393 3221.9512 3237.6616 3253.6743 3269.284 3284.8938 3299.8992 -3284.1887 482.69348 3299.8992 3293.4539 3278.3477 3263.1409 3247.8333 3232.727 3217.52 3202.4138 3187.0056 3171.7986 3156.189 3140.982 3125.7751 3110.8704 3095.8647 3081.1614 3064.8467 2860.1074 1619.8883 32.83081 -1188.2538 -2130.6792 -2951.7517 3080.96 3097.7783 3114.395 3130.8105 3147.4272 3163.8428 3180.0566 3195.9685 3212.0818 3227.9937 3243.9055 3259.616 3275.2258 3290.8354 3299.8992 -3278.3477 984.21936 3299.8992 3296.475 3281.369 3266.162 3250.955 3235.7483 3220.5413 3205.2336 3190.0269 3174.7192 3159.2102 3143.9026 3128.6956 3113.5894 3098.6846 3083.9812 3066.6594 2830.197 1536.2 76.43738 -1030.6458 -1924.2279 -2727.6763 3290.332 3097.174 3113.7908 3130.4077 3146.823 3163.1377 3179.0496 3195.5657 3211.4775 3227.6917 3243.402 3259.1125 3274.9236 3290.4326 3299.8992 -3273.3123 1425.0183 3299.8992 3294.058 3278.952 3263.6443 3248.4375 3233.3313 3218.1243 
3103.9214 3299.8992 3299.8992 3299.8992 3299.8992 3299.8992 3299.8992 3299.8992 3299.8992 3299.8992 3299.8992 3299.8992 1698.1384 -237.57019 -1539.7247 -2773.599 -3132.8247 -3117.819 -3103.2166 -3088.5132 -3074.1118 -3059.912 -3045.7122 -3031.8145 -3017.7153 -3003.8176 -2759.2986 -2320.3125 -2008.7219 -1726.8402 -1279.3945 -1050.9888 -710.5957 -547.0459 -330.22156 -153.98254 -22.357178 280.3711 1256.4331 2357.1716 3236.9568 3299.8992 3299.8992 3299.8992 3299.8992 3299.8992 3299.8992 3299.8992 3299.8992 3299.8992 3299.8992 3299.8992 1460.7697 -454.1931 -1827.7496 -3058.8042 -3128.0913 -3113.2874 -3098.6846 -3084.1826 -3069.7815 -3055.5815 -3041.4824 -3027.3833 -3013.5864 -2999.3865 -2800.186 -2448.3123 -2259.6863 -1987.9761 -1694.0094 -1470.8405 -1286.0413 -895.99915 -477.9602 -153.98254 63.446045 494.87915 1559.6649 2805.8257 3299.8992 3299.8992 3299.8992 3299.8992 3299.8992 3299.8992 3299.8992 3299.8992 3299.8992 3299.8992 3299.8992 3299.8992 1261.6699 -647.04895 -1972.1649 -3097.7783 -3115.805 -3100.9001 -3086.2976 -3071.8962 -3057.5957 -3043.396 -3029.3975 -3015.4998 -3001.5015 -2915.396 -2407.8276 -2001.7731 -1715.9637 -1511.023 -1046.8597 -816.74194 -453.38745 -311.28845 -99.60022 198.6969 404.64478 798.6145 1871.3562 2927.179 3299.8992 3299.8992 3299.8992 3299.8992 3299.8992 3299.8992 3299.8992 3299.8992 3299.8992 3299.8992 3299.8992 3252.6672 1224.3073 -625.0946 -1978.006 -3087.7075 -3132.5225 -3117.6177 -3102.9143 -3088.3118 -3074.0112 -3059.7107 -3045.5107 -3031.5125 -3017.514 -3003.6162 -2902.9082 -2624.8535 -2297.5525 -1917.8833 -1563.1897 -1225.8179 -1019.7693 -767.99927 -477.25525 -165.46326 11.984253 418.54248 1572.4548 2545.0928 3299.8992 3299.8992 3299.8992 3299.8992 3299.8992 3299.8992 3299.8992 3299.8992 3299.8992 3299.8992 3299.8992 3220.2393 1114.2334 -767.59644 -2058.5723 -3132.4219 -3117.3157 -3102.6123 -3088.0095 -3073.5076 -3059.207 -3045.108 -3031.0088 -3016.9097 -3003.1128 -2989.3157 -2709.3474 -2388.0889 -2109.027 -1811.1328 -1337.1002 -1010.70557 -637.9852 -341.80298 -54.785156 211.58752 165.06042 543.6218 1740.7379 2460.498 3299.8992 3299.8992 3299.8992 3299.8992 3299.8992 3299.8992 3299.8992 3299.8992 3299.8992 3299.8992 3299.8992 3089.1174 937.79297 -768.7042 -2006.0028 -3131.6162 -3116.51 -3101.8066 -3087.2039 -3072.702 

-51.05896 -51.05896 -51.05896 -51.05896 -51.05896 -51.05896 -51.05896 -51.05896 -51.05896 -51.05896 -51.05896 -51.05896 -51.05896 -51.05896 -51.05896 -51.05896 -51.05896 -51.05896 -51.05896 -51.05896 -51.05896 -51.05896 -51.05896 -51.05896 -51.05896 -51.05896 -51.05896 -51.05896 -51.05896 -51.05896 -51.05896 -51.05896 -51.05896 -51.05896 -51.05896 -51.05896 -51.05896 -51.05896 -51.05896 -51.05896 -51.05896 -51.05896 -51.05896 -51.05896 -51.05896 -51.05896 -51.05896 -51.05896 -51.05896 -51.05896 -51.05896 -51.05896 -51.05896 -51.05896 -51.05896 -51.05896 -51.05896 -51.05896 -51.05896 -51.05896 -51.05896 -51.05896 -51.05896 -51.05896 -51.05896 -51.05896 -51.05896 -51.05896 -51.05896 -51.05896 -51.05896 -51.05896 -51.05896 -51.05896 -51.05896 -51.05896 -51.05896 -51.05896 -51.05896 -51.05896 -51.05896 -51.05896 -51.05896 -51.05896 -51.05896 -51.05896 -51.05896 -51.05896 -51.05896 -51.05896 -51.05896 -51.05896 -51.05896 -51.05896 -51.05896 -51.05896 -51.05896 -51.05896 -51.05896 -51.05896 -51.05896 -51.05896 -51.05896 -51.05896 -51.05896 -51.05896 -51.05896 -51.05896 -51.05896 -51.05896 -51.05896 -51.05896 -51.05896 -51.05896 -51.05896 -51.05896 -51.05896 -51.05896 -51.05896 -51.05896 -51.05896 -51.05896 -51.05896 -51.05896 -51.05896 -51.05896 -51.05896 -51.05896 -51.05896 -51.05896 -51.05896 -51.05896 -51.05896 -51.05896 -51.05896 -51.05896 -51.05896 -51.05896 -51.05896 -51.05896 6.1431885 -0.70495605 23.364258 9.869385 -49.649048 -75.32959 -72.9126 -82.88269 -98.0896 -77.041626 -52.871704 -31.924438 -21.853638 -19.638062 2.2155762 20.24231 25.78125 24.572754 11.077881 -6.0424805 -14.300537 0.50354004 -0.80566406 -22.659302 -36.557007 -45.318604 -48.742676 -30.212402 -27.694702 -39.276123 -51.05896 -30.615234 -22.659302 -5.1361084 -5.8410645 -6.1431885 -21.047974 -18.630981 -21.954346 -24.371338 -24.371338 -24.371338 -24.371338 -24.371338 -24.371338 -24.371338 -24.371338 -24.371338 -24.371338 -24.371338 -24.371338 -24.371338 -24.371338 -24.371338 -24.371338 -24.371338 -24.371338 -24.371338 -24.371338 -24.371338 
-96.47827 -114.60571 -102.52075 -80.667114 -84.49402 -94.96765 -92.85278 -69.79065 -56.497192 -41.290283 -55.490112 -64.05029 -67.57507 -50.656128 -19.134521 2.9205322 12.084961 1.9134521 -19.638062 -22.961426 -22.961426 -22.961426 -22.961426 -22.961426 -22.961426 -22.961426 -22.961426 -22.961426 -22.961426 -22.961426 -22.961426 -22.961426 -22.961426 -22.961426 -22.961426 -22.961426 -22.961426 -22.961426 -22.961426 -22.961426 -42.49878 -44.815063 -42.90161 -43.00232 -40.98816 -13.595581 -11.581421 5.3375244 9.869385 20.74585 27.29187 47.03064 49.649048 58.511353 84.49402 124.27368 150.65918 172.91565 184.69849 195.17212 218.23425 228.8086 226.99585 214.70947 190.33813 177.95105 173.11707 150.55847 96.47827 19.537354 -56.295776 -107.85828 -165.26184 -213.8031 -237.6709 -245.12329 -244.11621 -232.43408 -191.74805 -125.28076 -102.52075 -88.52234 -62.64038 -48.138428 -41.4917 -46.02356 -18.630981 -8.862305 -19.134521 -51.260376 -103.02429 -140.28625 -102.420044 -69.38782 -54.885864 -62.23755 -80.06287 -70.59631 -53.17383 -40.38391 -34.84497 -16.21399 10.372925 19.134521 14.703369 6.3446045 7.0495605 7.7545166 2.3162842 7.4523926 26.586914 -0.80566406 -12.789917 -4.7332764 -5.1361084 -3.4240723 -10.675049 -7.7545166 11.279297 9.265137 10.372925 6.5460205 -11.782837 6.4453125 22.558594 18.933105 24.169922 25.479126 30.010986 31.32019 33.132935 33.233643 25.78125 11.581421 17.422485 29.406738 29.003906 52.06604 56.799316 72.006226 64.65454 64.25171 70.89844 73.61755 67.8772 58.813477 41.89453 56.5979 77.645874 96.276855 123.16589 147.63794 153.57971 122.86377 86.60889 67.67578 49.649048 30.715942 18.73169 6.7474365 -5.4382324 -27.191162 -50.354004 -87.11243 -116.922 -138.47351 -132.43103 -119.33899 -99.298096 -65.66162 -20.947266 28.701782 68.17932 96.67969 105.13916 112.18872 112.79297 100.305176 49.54834 -10.977173 -23.062134 -44.714355 -40.88745 -13.394165 16.415405 0 -1.5106201 -11.279297 -24.77417 -66.06445 -122.76306 -149.04785 -120.547485 -98.59314 -87.716675 -71.09985 -75.027466 -89.93225 -94.262695 -94.766235 
-3175.6255 -3160.5193 -3144.9097 -3130.2063 -3115.2007 -3100.1953 -3085.391 -3070.5872 -3056.1858 -3041.8853 -3027.7861 -3013.687 -1459.1583 1367.8162 3299.8992 3299.8992 3299.8992 3299.8992 3299.8992 3299.8992 3299.8992 3299.8992 3299.8992 3299.8992 3299.8992 3299.8992 3299.8992 3299.8992 3299.8992 3299.8992 3299.8992 3299.8992 3295.8708 -3286.908 -3270.291 -3253.8757 -3237.7625 -3221.6492 -3205.838 -3190.0269 -3174.417 -3159.3108 -3144.3054 -3128.6956 -3113.7908 -3099.1882 -3084.4849 -3069.983 -3055.481 -3041.281 -3026.9805 -3012.9822 -1206.6833 1565.6067 3299.8992 3299.8992 3299.8992 3299.8992 3299.8992 3299.8992 3299.8992 3299.8992 3299.8992 3299.8992 3299.8992 3299.8992 3299.8992 3299.8992 3299.8992 3299.8992 3299.8992 3298.4893 3296.173 -3286.8071 -3270.1904 -3253.775 -3237.6616 -3221.5483 -3205.6365 -3190.0269 -3174.417 -3158.606 -3143.2983 -3128.595 -3113.6902 -3098.584 -3083.7798 -3069.2778 -3054.776 -3040.4753 -3026.3762 -3012.277 -1270.2301 1480.6091 3299.8992 3299.8992 3299.8992 3299.8992 3299.8992 3299.8992 3299.8992 3299.8992 3299.8992 3299.8992 3299.8992 3299.8992 3299.8992 3299.8992 3299.8992 3299.8992 3299.8992 3299.3958 3299.8992 -3282.9802 -3266.2627 -3249.948 -3233.7341 -3217.7214 -3201.8096 -3186.099 -3170.691 -3155.5847 -3139.9749 -3125.2715 -3110.3667 -3095.3613 -3080.5571 -3065.9546 -3051.5532 -3037.2527 -3023.2544 -3005.127 -731.34155 2173.178 3299.8992 3299.8992 3299.8992 3299.8992 3299.8992 3299.8992 3299.8992 3299.8992 3299.8992 3299.8992 3299.8992 3299.8992 3299.8992 3299.8992 3299.8992 3299.8992 3299.8992 3295.166 3298.993 -3284.0881 -3267.4712 -3251.056 -3235.0432 -3218.93 -3203.018 -3187.4084 -3171.7986 -3156.0881 -3141.3848 -3125.8757 -3110.971 -3096.2676 -3081.7656 -3067.2637 -3052.7617 -3038.4612 -3024.362 -2899.7864 -606.4636 2154.547 3299.8992 3299.8992 3299.8992 3299.8992 3299.8992 3299.8992 3299.8992 3299.8992 3299.8992 3299.8992 3299.8992 3299.8992 3299.8992 3299.8992 3299.8992 3299.8992 3299.8992 3278.65 3299.8992 -3283.1816 -3266.565 -3250.2502 -3234.137 -3218.0237 -3202.2124 -3186.6028 
