71.40198 71.40198 71.40198 71.40198 71.40198 71.40198 71.40198 71.40198 71.40198 71.40198 71.40198 71.40198 71.40198 71.40198 71.40198 71.40198 71.40198 71.40198 
39.88037 24.069214 21.450806 -43.304443 26.385498 17.825317 -21.853638 -73.21472 -74.42322 -129.6112 -154.38538 -181.1737 -177.74963 -158.4137 -220.24841 -184.69849 -244.11621 -211.99036 
-3102.9143 -3088.4124 -3074.0112 -3059.207 -3044.806 -3030.7068 -2679.84 -210.27832 2396.347 3299.8992 3299.8992 3299.8992 3299.8992 3299.8992 3299.8992 3299.8992 3299.8992 3299.8992 
-3139.27 -3125.2715 -3111.676 -3097.577 -3084.2834 -3070.6877 -1780.6183 566.58325 2553.0486 3299.8992 3299.8992 3299.8992 3299.8992 3299.8992 3299.8992 3299.8992 3299.8992 3299.8992 
3158.0017 3143.4998 3129.1992 3114.9993 2952.1545 1867.3279 -261.23657 -2025.5402 -3036.0442 -3082.1685 -3186.4014 3226.4832 3174.3164 3189.8254 3204.9316 3220.2393 3235.446 3250.3508 
-2986.093 -2971.994 -2958.197 -2944.7021 -2931.2073 -2917.9138 -2619.818 -1050.6866 239.48364 1495.0104 2674.0996 3299.8992 3299.8992 3299.8992 3299.8992 3299.8992 3299.8992 3299.8992 
3132.321 3117.517 3102.9143 3087.909 3069.7815 2235.214 1115.3412 -126.086426 -1212.6251 -2088.3818 -2878.0334 3092.34 3109.1582 3125.7751 3142.3918 3158.8074 3175.0212 3191.1345 
-2672.992 -2256.7656 -2009.729 -1811.2335 -1629.3549 -1385.2386 -1062.7716 -720.7672 -297.69287 -106.24695 40.98816 288.32703 956.9275 2048.1995 2759.198 3299.8992 3299.8992 3299.8992 

-33.43506 -44.110107 -34.34143 -8.358765 11.581421 30.715942 33.636475 29.30603 16.918945 7.5531006 -9.365845 -16.21399 -14.904785 -9.970093 -13.696289 -8.660889 -10.272217 -12.084961 -18.530273 -21.551514 -18.832397 -8.056641 1.4099121 4.5318604 12.789917 24.572754 10.372925 -5.2368164 15.005493 19.73877 24.673462 29.80957 50.152588 67.07153 77.545166 76.7395 80.06287 61.431885 19.537354 -3.2226562 -7.1502686 -26.78833 -50.05188 -32.32727 -27.896118 -24.169922 14.199829 32.629395 52.56958 58.511353 52.166748 26.78833 8.560181 -14.401245 -12.084961 -19.537354 -30.615234 3.7261963 50.354004 54.0802 34.140015 -10.171509 -94.16199 -137.56714 -136.35864 -103.62854 -70.09277 -34.542847 6.6467285 41.89453 74.62463 83.28552 85.40039 26.78833 1.5106201 -8.660889 -16.918945 -42.095947 -89.42871 -71.40198 -44.815063 -27.392578 -21.853638 -21.148682 -20.141602 -4.8339844 29.406738 51.159668 39.98108 34.44214 25.680542 -11.480713 -59.014893 -103.02429 -124.4751 -116.21704 -90.13367 -38.974 -8.358765 20.040894 42.90161 36.95984 39.88037 58.813477 56.497192 58.20923 86.206055 107.05261 118.13049 134.5459 141.19263 64.85596 -32.42798 -93.255615 -142.30042 -167.88025 -120.24536 -69.992065 -31.82373 -22.558594 -26.586914 -31.420898 -22.25647 -8.963013 -1.5106201 -6.2438965 25.579834 27.191162 32.629395 45.620728 43.50586 -3.4240723 -28.701782 -20.74585 -8.963013 4.7332764 9.869385 -3.9276123 -3.7261963 -1.9134521 -7.3516846 -6.4453125 4.6325684 13.394165 15.911865 2.3162842 -3.9276123 1.5106201 10.473633 -4.8339844 -10.977173 0 18.630981 27.896118 46.02356 47.93701 57.20215 40.585327 -24.169922 -51.5625 -54.885864 -42.49878 -26.586914 -51.965332 -80.26428 -92.752075 -74.72534 -57.20215 -13.696289 28.601074 23.968506 23.76709 31.723022 36.95984 29.507446 21.148682 27.29187 34.744263 38.772583 52.871704 60.928345 59.014893 34.039307 7.7545166 6.6467285 -25.378418 -68.28003 -75.83313 -34.643555 -32.025146 -15.911865 -5.2368164 -1.9134521 -1.3092041 11.380005 27.191162 50.454712 60.525513 69.68994 61.6333 33.233643 27.996826 42.196655 56.799316 69.488525 62.942505 73.81897 46.325684 21.652222 17.120361 -24.673462 -67.8772 -70.999146 -40.38391 -29.80957 -19.134521 -5.5389404 19.73877 44.210815 50.454712 
-205.0415 -234.75037 -239.48364 -220.85266 -192.65442 -199.50256 -110.77881 -98.99597 -78.048706 -68.481445 -59.1156 -59.417725 -49.95117 -42.39807 -35.751343 -9.869385 -4.1290283 11.178589 35.85205 22.860718 9.667969 32.528687 17.926025 39.578247 43.203735 -82.27844 15.206909 25.378418 49.44763 50.05188 47.634888 25.680542 44.91577 49.346924 54.885864 41.693115 -0.70495605 27.593994 -23.062134 13.595581 -22.055054 20.343018 -32.528687 -23.565674 -12.890625 -70.69702 13.998413 -2.3162842 31.420898 53.878784 67.8772 62.13684 70.29419 73.013306 72.006226 85.80322 72.61047 90.13367 81.87561 71.80481 82.177734 50.756836 47.43347 47.836304 40.182495 -71.90552 -15.307617 -70.89844 -26.889038 -17.825317 20.443726 27.996826 38.36975 32.025146 32.629395 27.29187 21.047974 40.48462 -41.088867 -9.869385 -57.10144 -12.084961 -27.694702 2.1148682 21.24939 16.918945 55.792236 30.31311 56.19507 80.96924 83.28552 53.878784 22.25647 5.1361084 -3.9276123 -0.40283203 -12.387085 -21.24939 -16.012573 -3.3233643 -4.0283203 -37.765503 -20.24231 20.74585 60.324097 103.02429 122.46094 87.61597 184.49707 183.99353 195.37354 173.41919 171.60645 126.79138 83.38623 26.385498 -230.92346 -148.54431 -231.52771 -224.17603 -302.72827 -261.7401 -231.82983 -238.77869 -239.98718 -307.9651 -191.1438 -181.073 -94.766235 -70.59631 -65.76233 -73.71826 -55.08728 -36.95984 -39.88037 -31.622314 -12.689209 -1.0070801 40.283203 37.564087 42.297363 49.649048 63.546753 81.47278 83.58765 48.03772 88.42163 96.47827 84.59473 24.673462 54.18091 48.54126 47.43347 51.05896 50.756836 55.892944 32.528687 93.45703 8.660889 56.295776 44.613647 75.631714 69.992065 80.26428 31.420898 -0.70495605 -32.93152 -68.28003 -76.33667 -106.8512 -180.56946 -210.78186 -207.15637 -175.03052 -144.51599 -107.25403 -80.06287 -40.98816 -34.140015 16.516113 49.850464 27.79541 25.881958 65.76233 84.99756 92.34924 45.620728 18.429565 77.84729 52.06604 98.69385 115.008545 132.63245 136.05652 136.56006 129.20837 -2.6184082 84.695435 -6.8481445 52.770996 -0.9063721 -4.5318604 -88.62305 -68.28003 -100.6073 -167.98096 -116.11633 -138.3728 -149.45068 -140.48767 -117.32483 -107.55615 -107.455444 -99.70093 -81.57349 -44.714355 -22.357178 2.1148682 26.586914 46.728516 
3299.8992 3299.8992 3299.8992 3299.8992 3299.8992 3299.8992 3299.8992 3299.8992 2729.9927 3294.2595 -3288.8213 -3272.2046 -3255.89 -3239.7766 -3223.5625 -3207.953 -3192.1416 -3176.532 -3161.1235 -3145.9167 -3130.8105 -3116.2078 -3101.5044 -3086.2976 -3071.7957 -3057.495 -3043.1946 -3029.196 -2694.4426 -219.34204 2434.314 3299.8992 3299.8992 3299.8992 3299.8992 3299.8992 3299.8992 3299.8992 3299.8992 3299.8992 3299.8992 3299.8992 3299.8992 3299.8992 3299.8992 3299.8992 3299.8992 3299.8992 2460.498 3297.1802 -3286.0015 -3269.4854 -3253.1707 -3236.9568 -3220.8435 -3205.133 -3189.3218 -3174.0142 -3158.5051 -3143.2983 -3128.1921 -3113.5894 -3098.3826 -3083.9812 -3069.4792 -3054.9773 -3040.5762 -3026.3762 -2563.5222 -106.75049 2541.165 3299.8992 3299.8992 3299.8992 3299.8992 3299.8992 3299.8992 3299.8992 3299.8992 3299.8992 3299.8992 3299.8992 3299.8992 3299.8992 3299.8992 3299.8992 3299.8992 3299.8992 2316.0828 3298.59 -3284.5916 -3267.9749 -3251.6602 -3235.5469 -3219.4336 -3203.6223 -3188.0127 -3172.4028 -3157.0952 -3141.8884 -3126.7822 -3112.1794 -3097.577 -3082.3699 -3067.7673 -3053.5674 -3039.3677 -3025.3691 -2586.786 -123.2666 2533.3098 3299.8992 3299.8992 3299.8992 3299.8992 3299.8992 3299.8992 3299.8992 3299.8992 3299.8992 3299.8992 3299.8992 3299.8992 3299.8992 3299.8992 3299.8992 3299.8992 3299.8992 1913.0493 3299.8992 -3281.7717 -3265.155 -3248.941 -3232.8276 -3216.8152 -3201.004 -3185.2935 -3169.7844 -3154.4768 -3139.27 -3124.2644 -3109.0576 -3094.1528 -3079.8523 -3065.3503 -3050.7476 -3036.3464 -3022.348 -2484.4666 17.422485 2719.821 3299.8992 3299.8992 3299.8992 3299.8992 3299.8992 3299.8992 3299.8992 3299.8992 3299.8992 3299.8992 3299.8992 3299.8992 3299.8992 3299.8992 3299.8992 3299.8992 3299.8992 1665.2069 3299.8992 -3279.7576 -3263.1409 -3246.9268 -3230.612 -3214.801 -3198.9897 -3183.2793 -3167.7703 -3152.4626 -3137.3564 -3122.2502 -3107.6477 -3092.5415 -3078.241 -3063.739 -3049.237 -3034.8357 -3020.7366 -2520.0164 47.332764 2756.9824 3299.8992 3299.8992 3299.8992 3299.8992 3299.8992 3299.8992 3299.8992 3299.8992 3299.8992 3299.8992 3299.8992 3299.8992 3299.8992 3299.8992 3299.8992 3299.8992 3299.8992 1101.947 -3293.756 -3276.9377 -3260.4216 -3244.2078 -3227.9937 -3212.1826 -3196.2708 -3180.7617 -3165.2527 -3149.945 -3134.738 
3299.8992 3299.8992 3299.8992 3299.8992 3299.8992 3299.8992 3288.922 3274.2188 2165.3228 3269.0825 3284.9944 3299.8992 -3284.0881 -3268.881 -3253.775 -3238.87 -3224.1667 -3209.4634 -3194.8608 -3180.5603 -3166.2598 -3152.2612 -3137.9607 -3124.063 -3110.266 -3096.3684 -3082.8735 -3069.4792 -1819.9951 666.4856 2823.0469 3299.8992 3299.8992 3299.8992 3299.8992 3299.8992 3299.8992 3299.8992 3299.8992 3299.8992 3299.8992 3299.8992 3299.8992 3299.8992 3299.8992 3299.8992 3288.922 3274.2188 2103.8909 3269.1833 3284.8938 3299.8992 -3284.0881 -3268.7805 -3253.6743 -3238.87 -3224.0662 -3209.3628 -3194.8608 -3180.4595 -3166.159 -3152.1606 -3137.86 -3123.9624 -3110.1653 -3096.6704 -3082.8735 -3069.2778 -1796.4294 562.4542 2671.9849 3299.8992 3299.8992 3299.8992 3299.8992 3299.8992 3299.8992 3299.8992 3299.8992 3299.8992 3299.8992 3299.8992 3299.8992 3299.8992 3299.8992 3299.8992 3289.7278 3274.9236 1908.8196 3270.7947 3286.7065 3299.8992 -3282.4768 -3267.1692 -3252.1636 -3237.2588 -3222.4548 -3207.7515 -3193.2495 -3178.949 -3164.6484 -3150.247 -3136.4502 -3122.5525 -3108.6548 -3095.2605 -3081.3628 -3067.9688 -1901.6693 334.552 2393.225 3299.8992 3299.8992 3299.8992 3299.8992 3299.8992 3299.8992 3299.8992 3299.8992 3299.8992 3299.8992 3299.8992 3299.8992 3299.8992 3299.8992 3299.8992 3293.6553 3278.7505 1426.4282 3276.535 3292.2454 3299.8992 -3276.8372 -3261.5295 -3246.524 -3231.72 -3216.9158 -3202.4138 -3187.9119 -3173.5107 -3159.3108 -3144.9097 -3131.1125 -3117.3157 -3103.5186 -3090.1245 -3076.3274 -3036.2456 -911.5082 1477.3865 3299.8992 3299.8992 3299.8992 3299.8992 3299.8992 3299.8992 3299.8992 3299.8992 3299.8992 3299.8992 3299.8992 3299.8992 3299.8992 3299.8992 3299.8992 3299.8992 3285.2966 3270.3918 1198.6267 3269.0825 3284.8938 3299.8992 -3284.2896 -3269.0825 -3253.8757 -3238.971 -3224.1667 -3209.5642 -3195.0623 -3180.5603 -3166.3604 -3151.8584 -3138.0615 -3124.1638 -3110.266 -3096.9727 -3083.075 -3069.58 -1586.9568 648.45886 2745.0989 3299.8992 3299.8992 3299.8992 3299.8992 3299.8992 3299.8992 3299.8992 3299.8992 3299.8992 3299.8992 3299.8992 3299.8992 3299.8992 3299.8992 3299.8992 3287.8142 3273.0103 915.7379 3272.5066 3288.3179 3299.8992 -3280.7646 -3265.457 -3250.5522 -3235.6475 -3220.8435 -3206.2407 -3191.8396 -3177.3376 
3265.3564 3280.4626 3295.0652 -3290.2312 -3275.7292 -3261.3281 -3246.524 -3232.3242 -1743.457 3299.8992 3299.8992 3299.8992 3299.8992 3299.8992 3297.4822 3282.6782 3267.7734 3252.9692 3238.0645 3223.1597 3208.5571 3193.753 3179.251 3164.5476 3150.4485 3136.148 3121.4446 2848.8281 1141.2231 -463.86108 -2015.0665 -3209.8662 3134.9395 3150.65 3166.3604 3181.8694 3197.2778 3212.4846 3227.6917 3242.7979 3257.8032 3272.8088 3287.5122 3299.8992 -3282.9802 -3268.3777 -3254.2786 -3239.6758 -1555.133 3299.8992 3299.8992 3299.8992 3299.8992 3299.8992 3289.627 3274.823 3260.1196 3245.4163 3230.5115 3215.7073 3200.9033 3186.3005 3171.4966 3157.0952 3142.4927 3128.1921 3114.395 2730.597 971.8323 -652.18506 -2207.1167 3126.48 3131.012 3146.823 3162.332 3177.841 3193.2495 3208.5571 3223.764 3238.87 3253.9763 3268.7805 3283.8867 3298.6907 -3286.8071 -3272.2046 -3257.4004 -3242.9993 -1449.4904 3299.8992 3299.8992 3299.8992 3299.8992 3299.8992 3285.498 3270.6938 3255.6885 3240.985 3226.181 3211.4775 3196.6736 3182.0708 3167.7703 3152.9663 3139.0686 3124.8687 3109.6619 2595.9502 686.4258 -953.302 -2401.2817 3116.3086 3131.6162 3147.528 3163.037 3178.6467 3193.9543 3209.262 3224.469 3239.4744 3254.6814 3269.5862 3284.2896 3298.7915 -3286.1023 -3271.4995 -3257.4004 -3242.7979 -1154.3152 3299.8992 3299.8992 3299.8992 3299.8992 3299.3958 3284.6924 3269.989 3255.0842 3240.5823 3225.5767 3210.7727 3196.17 3181.5674 3166.864 3152.4626 3137.86 3123.6602 3107.9497 2495.9473 469.1986 -1128.5339 -2627.472 3118.5242 3134.436 3150.1465 3165.6555 3181.1646 3196.4722 3211.7798 3226.9866 3242.1936 3257.0984 3272.0032 3287.1094 3299.8992 -3283.5845 -3269.0825 -3254.2786 -3239.978 -920.5719 3299.8992 3299.8992 3299.8992 3299.8992 3299.8992 3286.0015 3271.1975 3256.4941 3241.7908 3226.886 3212.2832 3197.4792 3182.8765 3168.3745 3154.074 3139.3706 3125.171 3109.9639 2363.0127 497.79968 -1049.4781 -2480.0354 3119.1284 3135.0403 3150.65 3166.5618 3181.9702 3197.0764 3212.384 3227.4902 3242.5964 3257.7026 3272.6074 3287.7136 3299.8992 -3282.8796 -3268.1763 -3254.0771 -3239.5752 -728.421 3299.8992 3299.8992 3299.8992 3299.8992 3299.8992 3286.3037 3271.4995 3256.6956 3241.9922 3227.0874 3212.384 
3299.8992 3299.8992 3299.8992 3299.8992 3299.8992 3299.8992 3299.8992 3299.8992 3299.8992 -1741.745 -3165.0513 -3149.5422 -3134.3352 -3119.229 -3104.3242 -3089.4194 -3074.817 -3060.4155 -3046.0144 -3031.7139 -3017.6147 -3003.4148 -2989.92 -2975.8208 -2962.1245 -2948.4282 -2935.1348 -2921.7407 -2501.587 -985.6293 193.15796 1483.5297 2643.6858 3299.8992 3299.8992 3299.8992 3299.8992 3299.8992 3299.8992 3299.8992 3299.8992 3299.8992 3299.8992 3299.8992 3299.8992 3299.8992 3299.8992 3299.8992 3195.1628 -2359.2864 -3166.159 -3150.65 -3135.2417 -3120.236 -3105.5327 -3090.5273 -3075.9246 -3061.4226 -3047.0215 -3032.8215 -3018.7224 -3004.6233 -2990.5242 -2976.9287 -2963.2324 -2949.7375 -2936.2427 -2922.9492 -2576.2114 -1267.8131 -220.1477 1229.3427 2333.606 3299.8992 3299.8992 3299.8992 3299.8992 3299.8992 3299.8992 3299.8992 3299.8992 3299.8992 3299.8992 3299.8992 3299.8992 3299.8992 3299.8992 3299.8992 3154.6782 -2372.882 -3161.023 -3145.514 -3130.2063 -3115.2007 -3100.296 -3085.5925 -3070.99 -3056.5886 -3042.0867 -3027.887 -3013.8884 -2999.8901 -2985.6902 -2971.994 -2958.3984 -2944.9036 -2931.4087 -2918.1152 -2598.8708 -1210.611 -37.96692 1272.345 2440.8599 3299.8992 3299.8992 3299.8992 3299.8992 3299.8992 3299.8992 3299.8992 3299.8992 3299.8992 3299.8992 3299.8992 3299.8992 3299.8992 3299.8992 3299.8992 3066.6594 -2558.084 -3157.3975 -3141.989 -3126.7822 -3111.7766 -3096.7712 -3082.0679 -3067.566 -3053.064 -3038.6626 -3024.5635 -3010.3638 -2996.466 -2982.8704 -2968.872 -2955.075 -2941.58 -2928.0852 -2914.8926 -2244.4792 -757.2235 327.20032 1540.6311 2608.5388 3299.8992 3299.8992 3299.8992 3299.8992 3299.8992 3299.8992 3299.8992 3299.8992 3299.8992 3299.8992 3299.8992 3299.8992 3299.8992 3299.8992 3299.8992 2879.242 -2903.009 -3159.5122 -3144.104 -3128.897 -3113.7908 -3098.886 -3084.1826 -3069.58 -3055.1787 -3040.8782 -3026.5776 -3012.4785 -2998.4802 -2984.9854 -2970.8862 -2957.19 -2943.5942 -2930.2002 -2916.806 -2552.6458 -1132.0587 -17.926025 1222.4945 2374.8962 3299.8992 3299.8992 3299.8992 3299.8992 3299.8992 3299.8992 3299.8992 3299.8992 3299.8992 3299.8992 3299.8992 3299.8992 3299.8992 3299.8992 3299.8992 2776.6204 -3063.2354 -3153.772 -3138.3635 -3123.1567 -3108.1511 -3093.3472 -3078.543 -3064.041 -3049.64 -3035.3394 -3021.1394 
3207.3486 3223.2605 3238.7695 3254.8828 3270.4924 3286.1023 3299.8992 -3282.8796 -1615.0543 3299.8992 3299.8992 3290.5334 3275.4272 3260.2202 3245.0134 3229.7058 3214.4988 3199.1912 3183.783 3168.4753 3153.067 3137.86 3122.1497 3107.7483 3092.8435 3078.1401 3059.0056 2042.0563 901.23596 -352.98157 -1522.8058 -2401.3823 -3091.2322 3090.4265 3107.2449 3123.9624 3140.3777 3156.7932 3173.007 3189.2212 3205.133 3221.1455 3236.6545 3252.9692 3268.6797 3284.1887 3299.6978 -3284.6924 -1684.7443 3299.8992 3299.8992 3289.0227 3273.816 3258.7097 3243.3013 3228.195 3212.9883 3197.882 3182.2722 3166.9646 3151.657 3136.3494 3121.2432 3106.2378 3091.333 3076.5288 3051.8555 1843.2587 736.37695 -439.79187 -1449.4904 -2316.1833 -3068.1702 3090.4265 3107.2449 3123.9624 3140.3777 3156.6924 3173.108 3189.1204 3205.2336 3221.1455 3237.3596 3252.8687 3268.579 3284.1887 3299.7986 -3284.793 -1520.7916 3299.8992 3299.8992 3288.0156 3272.8088 3257.5012 3242.4956 3227.2888 3212.0818 3196.6736 3181.366 3165.857 3150.65 3135.3423 3120.337 3105.3313 3090.5273 3075.7231 3056.3872 1891.9006 714.92615 -377.3529 -1486.3495 -2454.3547 -3157.196 3090.326 3107.0435 3123.6602 3140.1763 3156.491 3172.8057 3189.0198 3205.0322 3221.045 3237.0574 3252.8687 3268.4783 3283.9873 3299.5972 -3284.9944 -1268.7195 3299.8992 3299.8992 3286.4043 3271.298 3255.9905 3240.8843 3225.6775 3210.4705 3195.1628 3179.8552 3164.5476 3149.0386 3133.8318 3118.927 3103.9214 3089.0166 3074.2126 3049.4385 1758.0597 627.8137 -522.0703 -1621.4996 -2402.2888 -3116.3086 3091.0308 3107.849 3124.4658 3140.982 3157.2966 3173.6113 3189.8254 3205.7373 3221.6492 3237.2588 3253.473 3269.0825 3284.8938 3299.8992 -3284.2896 -1022.3877 3299.8992 3299.8992 3285.6995 3270.5933 3255.3862 3240.1794 3224.9724 3209.8662 3194.5586 3179.0496 3163.742 3148.5352 3133.2275 3117.6177 3103.1157 3088.5132 3073.6084 3027.3833 1761.7859 650.473 -522.9767 -1556.1401 -2378.9246 -3051.956 3089.6208 3106.4392 3123.1567 3139.572 3155.8867 3172.3022 3188.3147 3204.3274 3220.4407 3235.7483 3252.063 3267.7734 3283.383 3298.993 -3285.498 -896.7041 3299.8992 3298.6907 3283.786 3268.579 3253.372 3238.1653 3223.1597 3207.953 3192.5444 3177.2368 3161.9292 
3299.8992 3299.8992 3299.8992 3299.8992 3299.8992 3299.8992 3299.8992 3299.8992 2201.88 176.74255 -1178.3844 -2451.4343 -3153.8726 -3138.9678 -3124.063 -3109.4604 -3094.8577 -3080.4565 -3066.3574 -3052.057 -3038.0583 -2972.4976 -2511.557 -2183.1482 -1909.9274 -1684.3414 -1379.9011 -1167.3065 -913.3209 -540.7013 -222.5647 -73.21472 55.18799 295.98083 1014.9353 2104.7974 2806.9336 3299.8992 3299.8992 3299.8992 3299.8992 3299.8992 3299.8992 3299.8992 3299.8992 3299.8992 3299.8992 3299.8992 1825.4333 -35.751343 -1202.5543 -2385.5713 -3154.779 -3139.7734 -3124.9695 -3110.3667 -3095.8647 -3081.4636 -3067.163 -3053.064 -3038.864 -3014.4927 -2544.0857 -2082.4402 -1777.6978 -1508.7067 -1347.2717 -1031.955 -716.13464 -412.80212 -69.488525 24.77417 45.41931 183.48999 867.09595 2030.777 2726.065 3299.8992 3299.8992 3299.8992 3299.8992 3299.8992 3299.8992 3299.8992 3299.8992 3299.8992 3299.8992 3299.8992 1973.3734 60.22339 -1077.475 -2320.7153 -3160.4187 -3145.3125 -3130.5083 -3115.9058 -3101.303 -3086.9019 -3072.702 -3058.5022 -3044.3022 -3029.5989 -2610.855 -2205.0017 -1895.7275 -1782.9346 -1475.3723 -1158.5449 -800.2258 -525.6958 -188.12256 -183.5907 10.574341 240.69214 1057.4341 2179.6233 2879.4434 3299.8992 3299.8992 3299.8992 3299.8992 3299.8992 3299.8992 3299.8992 3299.8992 3299.8992 3299.8992 3299.8992 1612.4359 -265.16418 -1320.1813 -2480.9417 -3156.9946 -3142.0898 -3127.2856 -3112.4817 -3097.9797 -3083.6792 -3069.3787 -3055.2795 -3041.0796 -2956.8877 -2554.5593 -2166.4307 -1826.3397 -1613.8458 -1491.7877 -1262.4756 -1032.6599 -670.5139 -287.62207 -148.94714 -43.707275 184.09424 981.39954 1970.4529 2647.714 3299.8992 3299.8992 3299.8992 3299.8992 3299.8992 3299.8992 3299.8992 3299.8992 3299.8992 3299.8992 3299.8992 1508.7067 -365.46936 -1425.5219 -2591.217 -3147.7295 -3132.8247 -3118.1213 -3103.418 -3088.916 -3074.817 -3060.5164 -3046.3164 -3032.318 -2964.34 -2454.5562 -2062.0972 -1822.11 -1530.9631 -1100.235 -844.53735 -614.52026 -457.01294 -172.10999 -67.37366 78.45154 429.72107 1281.5094 2374.6948 3173.3093 3299.8992 3299.8992 3299.8992 3299.8992 3299.8992 3299.8992 3299.8992 3299.8992 3299.8992 3299.8992 3276.233 1428.0396 -350.16174 -1427.2339 -2580.7434 -3154.5776 -3139.572 -3124.8687 -3110.1653 -3095.6633 -3081.3628 -3067.0623 -3052.8625 

6.5460205 -73.21472 -112.89368 -88.92517 -60.827637 -15.609741 -8.660889 -25.982666 -0.10070801 13.998413 -29.30603 -56.295776 -59.71985 -56.69861 -75.73242 -87.81738 -75.93384 -18.630981 -9.567261 26.083374 56.396484 72.81189 62.539673 52.670288 24.572754 -4.4311523 -37.161255 -56.799316 -61.73401 -43.304443 -46.728516 -51.159668 -55.993652 -32.226562 -18.630981 11.279297 37.060547 34.84497 42.800903 41.99524 46.5271 59.417725 35.44922 -1.2084961 -13.293457 -3.9276123 -6.0424805 13.595581 27.090454 70.999146 132.53174 189.12964 233.23975 233.03833 217.12646 171.90857 95.773315 -7.9559326 -127.29492 -201.3153 -200.71106 -141.19263 -78.75366 -49.44763 -68.78357 -104.23279 -115.41138 -120.64819 -106.14624 -80.4657 -50.656128 -37.96692 -22.961426 -26.78833 -35.95276 -25.78125 -10.574341 -19.537354 -4.4311523 1.0070801 16.71753 27.996826 23.26355 9.667969 1.0070801 7.8552246 18.429565 28.601074 32.528687 35.650635 26.28479 21.652222 24.572754 26.28479 52.166748 60.424805 74.523926 85.5011 46.5271 16.21399 6.6467285 -0.20141602 -14.501953 -5.9417725 2.8198242 13.897705 37.564087 64.75525 91.94641 111.28235 19.839478 -104.837036 -144.51599 -91.94641 -53.67737 -64.453125 -103.427124 -90.5365 -47.93701 -15.408325 -15.408325 -15.408325 -15.408325 -15.408325 -15.408325 -15.408325 -15.408325 -15.408325 -15.408325 -15.408325 -15.408325 -15.408325 -15.408325 -15.408325 -15.408325 -15.408325 -15.408325 -15.408325 -15.408325 -15.408325 -156.70166 -104.23279 -51.5625 -30.212402 -31.118774 -42.90161 -31.219482 -20.74585 -43.00232 -38.47046 -16.113281 6.6467285 15.206909 12.286377 5.7403564 13.897705 25.378418 44.41223 37.060547 38.772583 39.175415 -16.918945 -60.021973 -37.96692 -5.8410645 8.761597 1.5106201 9.970093 11.984253 26.385498 20.544434 22.961426 33.83789 41.793823 63.14392 51.159668 36.154175 32.730103 29.003906 21.75293 15.307617 30.111694 32.730103 22.76001 7.8552246 26.083374 29.003906 52.56958 59.61914 66.467285 30.212402 -24.371338 -45.620728 -89.12659 -130.01404 -148.64502 -149.24927 -131.52466 -112.59155 -82.37915 
55.08728 75.027466 58.410645 68.07861 61.834717 78.25012 23.565674 -16.314697 18.832397 38.36975 71.80481 55.288696 50.454712 9.466553 -21.853638 -32.629395 -56.900024 -3.1219482 -31.82373 23.666382 2.3162842 39.074707 49.95117 49.95117 30.81665 34.84497 8.258057 -16.012573 -47.735596 -57.70569 -48.54126 -38.87329 -43.00232 -34.240723 -11.480713 32.528687 76.034546 88.723755 82.58057 97.98889 110.57739 94.262695 92.14783 66.970825 52.871704 50.253296 39.175415 46.224976 19.134521 -44.110107 -41.088867 -44.311523 -9.164429 20.645142 46.02356 42.49878 10.372925 26.486206 -101.312256 -26.989746 -69.89136 -16.415405 -22.659302 -11.380005 -63.74817 -56.799316 -63.74817 -84.39331 -95.06836 -105.03845 -108.05969 -107.25403 -87.51526 -77.84729 -87.91809 -55.490112 -11.178589 -6.8481445 55.792236 31.82373 26.78833 47.634888 37.161255 51.361084 23.062134 26.184082 27.493286 72.20764 78.45154 4.1290283 31.32019 -1.9134521 36.758423 50.656128 71.60339 86.00464 49.95117 35.650635 -28.80249 15.911865 -28.500366 51.763916 21.450806 79.86145 94.3634 82.47986 88.723755 77.34375 74.42322 70.3949 33.535767 3.3233643 -4.0283203 18.026733 23.26355 13.394165 -5.2368164 -23.162842 -28.80249 -22.860718 -71.80481 -73.91968 -98.291016 -66.26587 -68.38074 -51.461792 -133.74023 -72.40906 -33.233643 -51.461792 -10.876465 -4.5318604 -3.8269043 10.372925 28.601074 -2.9205322 25.579834 27.493286 -44.613647 -47.332764 -154.98962 -60.424805 -107.35474 -47.735596 -62.841797 -56.295776 -62.841797 -20.947266 -36.154175 -33.737183 -30.212402 -23.26355 -15.911865 -22.659302 -26.586914 -21.954346 -3.2226562 -9.164429 50.55542 10.775757 29.205322 -6.4453125 -23.162842 -4.6325684 -7.2509766 14.904785 -4.1290283 -14.099121 50.656128 40.686035 50.454712 35.247803 33.132935 28.500366 31.018066 -24.371338 -7.5531006 -24.572754 -59.518433 -27.29187 -59.317017 -43.807983 -95.97473 -19.537354 -4.5318604 27.996826 11.581421 54.68445 54.0802 70.69702 67.8772 60.424805 65.66162 65.25879 75.631714 132.1289 163.04626 162.84485 183.79211 159.42078 
-3119.7327 -3104.5256 -3090.225 -3075.2197 -3060.617 -3046.5178 -3032.4187 -3018.3196 -2207.1167 431.83594 3101.1016 3299.8992 3299.8992 3299.8992 3299.8992 3299.8992 3299.8992 3299.8992 3299.8992 3299.8992 3299.8992 3299.8992 3299.8992 3299.8992 3299.8992 3299.8992 3299.8992 3299.8992 855.1117 3299.8992 -3277.6428 -3261.2273 -3244.812 -3228.7993 -3212.7869 -3197.0764 -3181.366 -3165.857 -3150.65 -3135.5437 -3120.4375 -3105.2307 -3090.4265 -3076.126 -3061.624 -3047.223 -3032.721 -3018.6218 -2189.0898 426.59912 2974.8137 3299.8992 3299.8992 3299.8992 3299.8992 3299.8992 3299.8992 3299.8992 3299.8992 3299.8992 3299.8992 3299.8992 3299.8992 3299.8992 3299.8992 3299.8992 3299.8992 3299.8992 443.71948 -3293.1519 -3276.4343 -3259.9182 -3243.704 -3227.4902 -3211.5784 -3195.767 -3180.1575 -3164.749 -3149.3408 -3134.2346 -3119.4304 -3104.6265 -3090.1245 -3074.9175 -3060.5164 -3046.3164 -3032.2173 -3018.219 -1943.866 744.635 3299.8992 3299.8992 3299.8992 3299.8992 3299.8992 3299.8992 3299.8992 3299.8992 3299.8992 3299.8992 3299.8992 3299.8992 3299.8992 3299.8992 3299.8992 3299.8992 3299.8992 3299.8992 -169.18945 3299.8992 -3278.0457 -3261.5295 -3245.3154 -3229.2021 -3213.2903 -3197.5798 -3181.8694 -3166.4612 -3151.0527 -3135.9465 -3120.9412 -3105.835 -3091.333 -3076.3274 -3061.7249 -3047.6257 -3033.5266 -3019.528 -2094.0215 553.99475 3202.011 3299.8992 3299.8992 3299.8992 3299.8992 3299.8992 3299.8992 3299.8992 3299.8992 3299.8992 3299.8992 3299.8992 3299.8992 3299.8992 3299.8992 3299.8992 3299.8992 3299.8992 -601.62964 -3292.5476 -3275.83 -3259.314 -3242.9993 -3226.9866 -3211.0747 -3195.2637 -3179.6538 -3164.2456 -3148.8372 -3133.731 -3118.7256 -3104.2236 -3089.0166 -3074.817 -3060.315 -3045.813 -3031.5125 -3017.4133 -1846.2799 868.808 3299.8992 3299.8992 3299.8992 3299.8992 3299.8992 3299.8992 3299.8992 3299.8992 3299.8992 3299.8992 3299.8992 3299.8992 3299.8992 3299.8992 3299.8992 3299.8992 3299.8992 3299.8992 -793.277 -3293.8567 -3277.24 -3260.7239 -3244.4092 -3228.3965 -3212.4846 -3196.5728 -3181.0637 -3165.5547 -3150.348 -3135.1409 
-3163.1377 -3148.938 -3134.9395 -3121.0417 -3107.2449 -3093.75 -3080.0537 -3066.5588 -1303.8666 980.6946 3081.967 3299.8992 3299.8992 3299.8992 3299.8992 3299.8992 3299.8992 3299.8992 3299.8992 3299.8992 3299.8992 3299.8992 3299.8992 3299.8992 3299.8992 3299.8992 3286.908 3272.0032 300.31128 3273.5137 3289.325 3299.8992 -3279.7576 -3264.5508 -3249.5452 -3234.6404 -3220.0378 -3205.3345 -3190.8325 -3176.532 -3162.2314 -3147.931 -3134.0332 -3120.236 -3106.3384 -3092.8435 -3079.1472 -3034.5337 -1186.1389 1037.1918 2887.1978 3299.8992 3299.8992 3299.8992 3299.8992 3299.8992 3299.8992 3299.8992 3299.8992 3299.8992 3299.8992 3299.8992 3299.8992 3299.8992 3299.8992 3299.8992 3287.4114 3272.5066 41.4917 3274.823 3290.634 3299.8992 -3278.549 -3263.3423 -3248.3367 -3233.5327 -3218.7285 -3204.0251 -3189.624 -3175.3235 -3161.023 -3147.1252 -3132.5225 -3119.0276 -3105.2307 -3091.333 -3078.0396 -3064.5447 -1268.1152 1027.121 3079.1472 3299.8992 3299.8992 3299.8992 3299.8992 3299.8992 3299.8992 3299.8992 3299.8992 3299.8992 3299.8992 3299.8992 3299.8992 3299.8992 3299.8992 3299.8992 3288.4185 3273.3123 -445.0287 3277.1392 3293.051 3299.8992 -3276.233 -3261.026 -3246.0205 -3231.2163 -3216.513 -3201.8096 -3187.4084 -3173.007 -3158.8074 -3145.0103 -3130.7097 -3116.812 -3103.1157 -3089.3188 -3075.824 -3034.5337 -971.42944 1320.7855 3299.8992 3299.8992 3299.8992 3299.8992 3299.8992 3299.8992 3299.8992 3299.8992 3299.8992 3299.8992 3299.8992 3299.8992 3299.8992 3299.8992 3299.8992 3299.8992 3286.8071 3271.6003 -860.75134 3276.7363 3292.5476 3299.8992 -3276.7363 -3261.5295 -3246.6248 -3231.72 -3216.9158 -3202.4138 -3187.9119 -3173.5107 -3159.2102 -3145.413 -3130.9111 -3117.3157 -3103.5186 -3089.7217 -3076.3274 -3016.4062 -807.77893 1497.3267 3299.8992 3299.8992 3299.8992 3299.8992 3299.8992 3299.8992 3299.8992 3299.8992 3299.8992 3299.8992 3299.8992 3299.8992 3299.8992 3299.8992 3299.8992 3299.8992 3284.2896 3269.3848 -846.5515 3274.4202 3290.332 3299.8992 -3278.8513 -3263.745 -3248.639 -3233.8347 -3219.0308 -3204.5288 -3190.0269 -3175.7263 
3197.6807 3183.078 3168.173 3153.5706 3139.6729 3125.3723 3107.849 2334.7136 403.03345 -1185.1318 -2579.0312 3121.1426 3136.9536 3152.664 3168.274 3183.6821 3199.0906 3214.2974 3229.4036 3244.4092 3259.5154 3274.4202 3289.224 3299.8992 -3281.6711 -3267.0684 -3252.365 -3237.9639 -340.6952 3299.8992 3299.8992 3299.8992 3299.8992 3299.8992 3285.6995 3270.996 3256.3933 3241.388 3226.5837 3211.8804 3197.0764 3182.4736 3167.9717 3153.4697 3139.0686 3124.9695 3107.9497 2249.1118 233.844 -1287.149 -2681.8542 3122.754 3138.6658 3154.2754 3169.8853 3185.2935 3200.702 3215.9087 3231.1157 3246.222 3261.1267 3276.0315 3291.2383 3299.8992 -3279.3547 -3264.8528 -3250.7537 -3236.1511 -150.55847 3299.8992 3299.8992 3299.8992 3299.8992 3299.8992 3287.21 3272.3052 3257.6018 3242.8984 3228.0945 3213.2903 3198.587 3183.8835 3169.0796 3154.779 3140.0757 3125.8757 3108.6548 2217.8923 297.39075 -1252.2034 -2755.2703 3123.8616 3139.6729 3155.3833 3170.993 3186.502 3201.8096 3216.9158 3232.1228 3247.1282 3262.1338 3277.0386 3292.1448 -3292.9504 -3278.7505 -3264.2485 -3249.4446 -3235.0432 -15.206909 3299.8992 3299.8992 3299.8992 3299.8992 3299.8992 3287.3108 3272.5066 3257.7026 3242.8984 3228.0945 3213.391 3198.6877 3183.9844 3169.583 3155.182 3140.579 3126.2786 3109.6619 2343.7773 544.6289 -907.077 -2382.6506 3118.927 3134.738 3150.4485 3166.159 3181.5674 3196.9756 3212.1826 3227.3894 3242.4956 3257.5012 3272.406 3287.4114 3299.8992 -3282.8796 -3268.2769 -3254.2786 -3239.6758 235.55603 3299.8992 3299.8992 3299.8992 3299.8992 3296.878 3282.2754 3267.572 3252.7678 3238.0645 3223.2605 3208.3557 3193.8538 3179.251 3164.5476 3150.0457 3135.443 3121.344 3105.2307 2255.2551 416.3269 -1108.493 -2570.874 3117.0134 3133.0261 3148.6357 3164.2456 3179.7546 3195.0623 3210.3699 3225.476 3240.5823 3255.5876 3270.5933 3285.5986 3299.8992 -3285.1958 -3270.5933 -3255.789 -3241.388 659.3353 3299.8992 3299.8992 3299.8992 3299.8992 3293.2524 3278.8513 3263.8457 3249.0417 3234.3384 3219.5342 3204.8308 
-3007.0403 -2993.042 -2979.1443 -2965.448 -2952.0537 -2938.3574 -2925.064 -2911.7705 -2384.967 -897.7112 272.9187 1573.764 2693.8384 3299.8992 3299.8992 3299.8992 3299.8992 3299.8992 3299.8992 3299.8992 3299.8992 3299.8992 3299.8992 3299.8992 3299.8992 3299.8992 3299.8992 3299.8992 2624.7527 -3169.8853 -3154.1748 -3138.7664 -3123.5596 -3108.554 -3093.75 -3079.1472 -3064.5447 -3050.0427 -3035.7422 -3021.643 -3007.443 -2993.5454 -2979.4463 -2965.9514 -2952.356 -2938.861 -2925.3662 -2912.1733 -2196.5422 -560.33936 740.9088 1845.4742 2752.1484 3299.8992 3299.8992 3299.8992 3299.8992 3299.8992 3299.8992 3299.8992 3299.8992 3299.8992 3299.8992 3299.8992 3299.8992 3299.8992 3299.8992 3299.8992 2360.797 -3174.0142 -3158.3037 -3142.8955 -3127.588 -3112.5823 -3097.6775 -3082.974 -3068.3716 -3053.9702 -3039.6697 -3025.47 -3011.3708 -2997.2717 -2983.7769 -2969.7783 -2956.082 -2942.3857 -2928.9917 -2915.7988 -2230.2795 -693.0725 445.43152 1750.5066 2854.1655 3299.8992 3299.8992 3299.8992 3299.8992 3299.8992 3299.8992 3299.8992 3299.8992 3299.8992 3299.8992 3299.8992 3299.8992 3299.8992 3299.8992 3299.8992 2339.6484 -3175.6255 -3159.8145 -3144.406 -3129.1992 -3114.1936 -3099.2888 -3084.5854 -3069.983 -3055.481 -3041.1804 -3027.0813 -3012.7808 -2998.7822 -2985.3882 -2971.289 -2957.6934 -2944.098 -2930.603 -2917.2087 -2150.5188 -693.57605 453.18604 1771.4539 2771.6858 3299.8992 3299.8992 3299.8992 3299.8992 3299.8992 3299.8992 3299.8992 3299.8992 3299.8992 3299.8992 3299.8992 3299.8992 3299.8992 3299.8992 3299.8992 2053.4363 -3175.7263 -3160.0159 -3144.5068 -3129.2998 -3114.2944 -3099.3896 -3084.7869 -3070.0835 -3055.783 -3041.3818 -3027.182 -3013.0828 -2999.0845 -2984.9854 -2971.289 -2957.7942 -2944.1985 -2930.8044 -2917.511 -2062.2986 -641.91284 462.35046 1725.9338 2734.1216 3299.8992 3299.8992 3299.8992 3299.8992 3299.8992 3299.8992 3299.8992 3299.8992 3299.8992 3299.8992 3299.8992 3299.8992 3299.8992 3299.8992 3299.8992 2072.6714 -3176.3306 -3160.62 -3145.2117 -3130.005 -3114.9993 -3100.0945 -3085.492 -3070.6877 -3056.3872 -3041.986 -3027.7861 
3146.521 3131.4148 3115.7043 3101.2024 3086.3982 3071.7957 3015.6006 1609.2133 361.34033 -682.49817 -1649.8993 -2445.0896 -3085.5925 3091.635 3108.3525 3125.171 3141.5862 3157.901 3174.115 3190.3289 3206.2407 3222.354 3237.6616 3253.9763 3269.6868 3285.1958 3299.8992 -3283.8867 -540.19775 3299.8992 3298.4893 3283.484 3268.4783 3253.1707 3238.1653 3222.9583 3207.7515 3192.4438 3176.9348 3161.7278 3146.3196 3131.2134 3115.7043 3101.1016 3086.2976 3071.5942 2934.329 1511.023 374.13025 -668.9026 -1664.6027 -2584.671 3263.6443 3094.052 3110.8704 3127.2856 3143.9026 3160.3179 3176.4312 3192.5444 3208.6577 3224.5696 3240.0786 3256.192 3271.8018 3287.4114 3299.8992 -3281.5703 -373.6267 3299.8992 3299.7986 3284.6924 3269.5862 3254.48 3239.273 3224.0662 3208.96 3193.451 3178.1433 3162.8357 3147.4272 3132.2205 3116.7114 3102.008 3087.4053 3072.5005 2937.4512 1407.3944 243.20984 -818.8568 -1698.1384 -2367.8467 -3095.7642 3095.059 3111.7766 3128.3936 3145.0103 3161.1235 3177.3376 3193.753 3209.6648 3225.476 3241.4885 3257.2998 3272.8088 3288.4185 3299.8992 -3280.7646 -249.45374 3299.8992 3299.8992 3285.0952 3269.8882 3254.6814 3239.6758 3224.3682 3209.1614 3193.8538 3178.4453 3163.037 3147.7295 3132.5225 3117.517 3102.5115 3087.7075 3072.9033 2963.1316 1518.6768 379.16565 -710.3943 -1706.0944 -2473.3887 -3128.9978 3094.2534 3110.971 3127.588 3144.0032 3160.3179 3176.532 3192.7458 3208.8591 3224.6704 3240.8843 3256.3933 3272.1038 3287.8142 3299.8992 -3281.369 -84.191895 3299.8992 3298.59 3283.5845 3268.4783 3253.1707 3238.1653 3222.9583 3207.6506 3192.343 3177.0354 3161.5264 3146.3196 3131.1125 3116.2078 3101.001 3086.3982 3070.8892 2854.7698 1316.8579 197.89124 -827.3163 -1796.228 -2630.4932 3287.915 3097.6775 3114.2944 3130.8105 3147.2258 3163.5405 3179.956 3195.9685 3211.8804 3227.893 3243.3013 3259.5154 3275.125 3290.8354 3299.8992 -3278.3477 308.77075 3299.8992 3299.5972 3284.5916 3269.4854 3254.1777 3239.0715 3223.9653 3208.5571 3193.35 3178.0425 3162.5334 
-3038.7634 -2894.5496 -2513.3696 -2122.3206 -1720.1935 -1456.3385 -1546.7743 -1262.8784 -804.7577 -451.87683 -121.9574 -45.01648 124.4751 366.77856 1186.3403 2219.2017 2978.842 3299.8992 3299.8992 3299.8992 3299.8992 3299.8992 3299.8992 3299.8992 3299.8992 3299.8992 3299.8992 3299.8992 1729.3579 -132.53174 -1305.4779 -2440.8599 -3159.3108 -3144.3054 -3129.5012 -3114.7979 -3100.3967 -3085.9954 -3071.6948 -3057.495 -3043.396 -2962.6282 -2565.1335 -2147.5981 -1813.2477 -1616.565 -1513.5406 -1251.3977 -1018.9636 -749.2676 -303.63464 -247.43958 -98.69385 195.07141 1039.508 1859.372 2699.6794 3299.8992 3299.8992 3299.8992 3299.8992 3299.8992 3299.8992 3299.8992 3299.8992 3299.8992 3299.8992 3142.996 1240.0177 -534.3567 -1599.646 -2765.744 -3144.9097 -3130.005 -3115.402 -3100.6987 -3086.2976 -3071.8962 -3057.6965 -3043.5974 -3029.4983 -2919.928 -2373.0835 -1993.7164 -1670.2423 -1360.5652 -1270.1294 -1035.1776 -669.90967 -341.60156 130.21545 225.0824 323.0713 663.46436 1545.3644 2383.4563 3196.4722 3299.8992 3299.8992 3299.8992 3299.8992 3299.8992 3299.8992 3299.8992 3299.8992 3299.8992 3299.8992 3180.8623 1154.1138 -503.43933 -1661.6821 -2828.6865 -3154.074 -3139.0686 -3124.3652 -3109.7625 -3095.462 -3081.0608 -3066.8608 -3052.6611 -3038.562 -2912.7776 -2474.5972 -2128.1616 -1927.8534 -1698.0377 -1283.6243 -939.90784 -728.2196 -452.98462 -84.99756 13.696289 132.93457 522.37244 1495.816 2334.7136 3102.008 3299.8992 3299.8992 3299.8992 3299.8992 3299.8992 3299.8992 3299.8992 3299.8992 3299.8992 3299.8992 3126.5808 1045.1477 -624.49036 -1575.6775 -2813.4795 -3153.6711 -3138.7664 -3123.9624 -3109.3596 -3094.8577 -3080.3557 -3066.156 -3051.956 -3037.9578 -2868.164 -2315.277 -1903.0792 -1537.3077 -1319.2749 -998.3185 -708.48083 -531.13403 -375.13733 -19.73877 33.132935 89.227295 490.85083 1424.1119 2222.6257 3059.4084 3299.8992 3299.8992 3299.8992 3299.8992 3299.8992 3299.8992 3299.8992 3299.8992 3299.8992 3299.8992 3131.1125 1131.4545 -544.4275 -1546.3715 -2680.8472 -3162.4329 -3147.3267 -3132.6233 -3117.92 -3103.418 -3088.916 -3074.817 -3060.7178 

-58.71277 -62.23755 -69.992065 -79.76074 -73.31543 -37.86621 7.0495605 -4.8339844 22.961426 31.622314 46.02356 57.302856 63.949585 66.56799 75.22888 50.958252 30.917358 4.0283203 -1.9134521 -5.9417725 9.265137 17.926025 18.328857 -16.21399 -28.80249 -13.595581 15.911865 31.118774 40.48462 46.02356 39.578247 25.579834 21.75293 10.876465 -19.134521 -27.593994 -2.0141602 16.113281 16.012573 1.1077881 -0.80566406 -9.667969 -12.084961 -19.537354 -15.408325 -14.501953 -11.480713 -15.811157 25.27771 37.46338 34.140015 23.666382 42.095947 68.984985 36.35559 4.0283203 21.047974 54.785156 75.128174 86.60889 124.072266 124.37439 126.18713 94.766235 45.217896 -45.52002 -153.3783 -182.58362 -163.24768 -139.88342 -114.10217 -105.23987 -83.78906 -67.67578 -39.47754 -6.4453125 12.890625 22.860718 40.88745 55.18799 61.834717 51.663208 2.2155762 -44.91577 -50.958252 -18.630981 32.629395 90.13367 119.74182 120.547485 70.999146 52.468872 73.21472 76.538086 43.50586 -11.480713 -54.281616 -75.83313 -70.3949 -45.92285 -17.22107 27.191162 54.483032 47.332764 45.217896 30.514526 20.040894 -8.963013 -65.66162 -87.61597 -65.963745 -39.074707 -44.613647 -78.75366 -115.31067 -106.64978 -90.33508 -76.638794 -65.66162 -35.549927 -35.549927 -35.549927 -35.549927 -35.549927 -35.549927 -35.549927 -35.549927 -35.549927 -35.549927 -35.549927 -35.549927 -35.549927 -35.549927 -35.549927 -35.549927 -35.549927 -35.549927 -35.549927 -35.549927 -35.549927 3.4240723 2.3162842 10.574341 10.372925 8.258057 11.883545 -0.10070801 -1.3092041 11.077881 23.76709 33.83789 50.857544 53.274536 43.304443 29.104614 -7.3516846 -14.804077 13.595581 22.155762 36.758423 82.37915 86.60889 98.99597 90.03296 47.131348 -20.645142 -112.28943 -181.47583 -193.25867 -156.70166 -110.57739 -79.86145 -60.928345 -29.910278 8.157349 4.1290283 20.544434 26.586914 17.321777 9.567261 19.23523 42.39807 48.94409 29.708862 22.860718 21.954346 3.4240723 8.560181 4.0283203 -62.23755 -100.50659 -73.91968 -35.95276 4.6325684 41.39099 34.94568 -21.954346 -68.58215 -80.76782 -63.043213 -38.571167 -7.7545166 17.72461 23.76709 7.1502686 -6.6467285 5.1361084 29.910278 51.159668 62.64038 66.36658 45.620728 39.578247 23.162842 17.019653 22.457886 38.772583 54.281616 61.431885 37.564087 
164.6576 181.073 174.62769 124.072266 67.8772 49.850464 37.96692 -34.643555 -63.546753 -133.53882 -149.14856 -154.38538 -154.18396 -148.24219 -135.65369 -138.2721 -108.462524 -75.631714 -110.57739 -55.69153 -26.385498 -17.422485 -76.7395 -18.933105 12.890625 10.070801 12.890625 39.578247 55.69153 74.2218 93.35632 110.6781 119.036865 93.55774 67.57507 54.0802 58.914185 29.003906 -3.9276123 -51.461792 -49.0448 -43.00232 -31.018066 -31.32019 -55.490112 -63.24463 -41.793823 -65.66162 -18.328857 -30.615234 -24.472046 -17.825317 1.8127441 24.371338 53.778076 59.417725 103.930664 120.7489 70.79773 124.97864 99.19739 123.87085 90.43579 74.92676 82.58057 66.36658 8.358765 -32.93152 -110.17456 -176.84326 -201.61743 -190.74097 -158.01086 -155.19104 -154.28467 -123.77014 -81.06995 -54.483032 -25.479126 12.487793 45.620728 59.518433 64.75525 44.41223 42.095947 38.47046 38.571167 60.525513 106.04553 104.73633 102.62146 131.92749 163.14697 182.2815 166.47034 114.70642 112.69226 23.464966 55.08728 47.634888 -105.13916 -52.368164 -112.79297 -139.27917 -196.58203 -207.86133 -210.17761 -218.43567 -198.19336 -146.02661 -107.05261 -96.17615 -82.9834 -79.96216 -84.89685 -76.43738 -63.24463 -48.138428 -20.947266 -15.408325 -1.8127441 -1.5106201 5.4382324 17.321777 22.558594 33.737183 20.141602 39.779663 43.304443 22.558594 15.609741 -8.761597 14.703369 20.040894 26.687622 28.601074 16.314697 22.357178 7.7545166 1.4099121 40.98816 12.185669 -1.5106201 11.178589 -33.33435 1.0070801 -60.827637 -13.192749 4.6325684 6.0424805 3.7261963 5.5389404 16.113281 16.012573 28.500366 42.800903 94.86694 134.94873 150.55847 151.16272 191.44592 164.45618 140.7898 134.5459 125.079346 129.10767 129.30908 115.91492 120.14465 98.0896 79.055786 53.475952 65.25879 39.779663 5.3375244 -98.89526 -93.0542 -91.744995 -92.14783 -94.96765 -148.4436 -56.69861 -90.13367 -45.318604 -71.7041 -84.79614 -68.68286 -76.034546 -69.68994 -90.63721 -85.198975 -82.88269 -88.0188 -75.83313 -35.549927 -27.090454 15.509033 7.9559326 7.7545166 -7.2509766 -44.815063 -45.01648 -52.871704 8.660889 27.996826 -9.466553 -20.343018 21.148682 17.019653 24.27063 -7.1502686 -12.789917 5.5389404 11.480713 9.869385 -75.83313 -44.311523 -3.2226562 13.796997 34.039307 
-3120.0347 -3104.9285 -3090.628 -3075.5217 -3061.0198 -3046.9207 -3032.721 -3018.6218 -1936.3129 684.1095 3299.8992 3299.8992 3299.8992 3299.8992 3299.8992 3299.8992 3299.8992 3299.8992 3299.8992 3299.8992 3299.8992 3299.8992 3299.8992 3299.8992 3299.8992 3299.8992 3299.8992 3299.8992 -1173.9532 -3292.2454 -3275.4272 -3259.0117 -3242.7979 -3226.6846 -3210.7727 -3195.0623 -3179.3518 -3163.9434 -3148.6357 -3133.5295 -3118.4233 -3103.418 -3088.5132 -3074.3132 -3059.8113 -3045.3093 -3030.9082 -3016.809 -1800.357 752.89307 3261.026 3299.8992 3299.8992 3299.8992 3299.8992 3299.8992 3299.8992 3299.8992 3299.8992 3299.8992 3299.8992 3299.8992 3299.8992 3299.8992 3299.8992 3299.8992 3299.8992 3299.8992 -1618.5791 -3290.0298 -3273.2117 -3256.7961 -3240.4814 -3224.469 -3208.5571 -3192.8467 -3177.2368 -3161.7278 -3146.521 -3131.4148 -3116.4092 -3101.9072 -3087.2039 -3072.1985 -3057.6965 -3043.4966 -3029.4983 -3015.4998 -1746.9818 857.8308 3299.8992 3299.8992 3299.8992 3299.8992 3299.8992 3299.8992 3299.8992 3299.8992 3299.8992 3299.8992 3299.8992 3299.8992 3299.8992 3299.8992 3299.8992 3299.8992 3299.8992 3299.8992 -2225.1433 -3288.6199 -3271.8018 -3255.487 -3239.273 -3223.1597 -3207.3486 -3191.5374 -3175.9277 -3160.4187 -3145.3125 -3130.1055 -3115.1 -3100.0945 -3085.1897 -3071.0906 -3056.5886 -3042.0867 -3027.7861 -3013.7878 -1598.7396 1105.9753 3299.8992 3299.8992 3299.8992 3299.8992 3299.8992 3299.8992 3299.8992 3299.8992 3299.8992 3299.8992 3299.8992 3299.8992 3299.8992 3299.8992 3299.8992 3299.8992 3299.8992 3299.8992 -2951.1475 -3287.3108 -3270.6938 -3254.1777 -3237.863 -3221.9512 -3206.0393 -3190.2283 -3174.7192 -3159.3108 -3144.104 -3128.897 -3113.8916 -3099.591 -3084.384 -3070.1843 -3055.783 -3041.281 -3026.9805 -3012.9822 -1427.7374 1264.389 3299.8992 3299.8992 3299.8992 3299.8992 3299.8992 3299.8992 3299.8992 3299.8992 3299.8992 3299.8992 3299.8992 3299.8992 3299.8992 3299.8992 3299.8992 3299.8992 3299.8992 3299.8992 3298.892 -3287.3108 -3270.6938 -3254.2786 -3237.9639 -3221.9512 -3206.0393 -3190.3289 -3174.7192 -3159.3108 -3144.104 -3129.0984 -3114.093 -3098.886 -3084.6863 -3069.58 -3055.0781 -3040.979 -3026.9805 -3012.9822 -1319.0735 1338.1073 3299.8992 3299.8992 3299.8992 3299.8992 3299.8992 3299.8992 3299.8992 3299.8992 3299.8992 3299.8992 
-3161.4258 -3147.528 -3133.2275 -3119.4304 -3105.6335 -3091.635 -3078.3416 -3060.4155 -1209.906 1058.3405 3224.2676 3299.8992 3299.8992 3299.8992 3299.8992 3299.8992 3299.8992 3299.8992 3299.8992 3299.8992 3299.8992 3299.8992 3299.8992 3299.8992 3299.8992 3299.8992 3287.0085 3271.9023 -1173.4497 3277.8442 3293.756 3299.8992 -3275.5278 -3260.321 -3245.3154 -3230.5115 -3215.7073 -3201.1047 -3186.7034 -3172.5037 -3158.1023 -3144.2046 -3130.1055 -3116.2078 -3102.5115 -3088.6138 -3075.3203 -3057.797 -889.3524 1355.9326 3191.9402 3299.8992 3299.8992 3299.8992 3299.8992 3299.8992 3299.8992 3299.8992 3299.8992 3299.8992 3299.8992 3299.8992 3299.8992 3299.8992 3299.8992 3299.8992 3287.4114 3272.2046 -1729.0558 3279.8584 3295.5688 -3288.8213 -3273.715 -3258.5083 -3243.5027 -3228.6987 -3213.9954 -3199.3926 -3184.9915 -3170.59 -3156.3904 -3142.0898 -3128.2927 -3114.4958 -3100.6987 -3087.2039 -3073.6084 -3035.44 -1113.0249 1096.4081 3015.3992 3299.8992 3299.8992 3299.8992 3299.8992 3299.8992 3299.8992 3299.8992 3299.8992 3299.8992 3299.8992 3299.8992 3299.8992 3299.8992 3299.8992 3299.8992 3291.5405 3276.3335 -2384.7656 3285.6995 3299.8992 -3283.1816 -3267.9749 -3252.8687 -3237.9639 -3223.059 -3208.4563 -3193.8538 -3179.5532 -3165.1519 -3150.9521 -3136.6516 -3122.9553 -3109.1582 -3095.462 -3082.1685 -3068.3716 -2754.5654 -388.6322 1976.5961 3299.8992 3299.8992 3299.8992 3299.8992 3299.8992 3299.8992 3299.8992 3299.8992 3299.8992 3299.8992 3299.8992 3299.8992 3299.8992 3299.8992 3299.8992 3299.8992 3286.908 3271.6003 -2440.2556 3281.2683 3296.9788 -3287.6128 -3272.2046 -3257.0984 -3242.1936 -3227.3894 -3212.686 -3197.9827 -3183.6821 -3169.281 -3155.081 -3140.7805 -3127.0842 -3113.1865 -3099.3896 -3086.1968 -3072.299 -2772.8943 -547.348 1676.5869 3299.8992 3299.8992 3299.8992 3299.8992 3299.8992 3299.8992 3299.8992 3299.8992 3299.8992 3299.8992 3299.8992 3299.8992 3299.8992 3299.8992 3299.8992 3299.8992 3285.0952 3269.8882 -2988.9128 3281.1675 3296.878 -3287.6128 -3272.3052 -3257.199 -3242.1936 -3227.4902 -3212.686 -3198.285 -3183.6821 -3169.3816 -3155.2825 -3140.8813 -3127.185 -3113.2874 -3099.4902 -3086.1968 -3072.5005 -2818.4143 -499.2096 1766.4185 3299.8992 3299.8992 3299.8992 3299.8992 3299.8992 3299.8992 3299.8992 3299.8992 3299.8992 3299.8992 
3190.2283 3175.525 3161.1235 3146.7224 3132.321 3118.0205 3099.0874 1901.77 -82.177734 -1555.3345 -2864.9414 3121.344 3137.2559 3152.8655 3168.3745 3183.783 3199.292 3214.3982 3229.605 3244.6106 3259.8174 3274.5208 3289.627 3299.8992 -3280.8655 -3266.2627 -3252.2644 -3237.561 838.8977 3299.8992 3299.8992 3299.8992 3299.8992 3296.576 3281.7717 3267.0684 3252.365 3237.6616 3222.8577 3208.1543 3193.5515 3178.8481 3164.1448 3149.5422 3135.5437 3121.1426 3103.6194 2138.4338 321.7621 -1199.3317 -2734.323 3119.4304 3135.2417 3151.0527 3166.5618 3182.0708 3197.3784 3212.5854 3227.7922 3242.8984 3257.904 3272.9094 3287.5122 3299.8992 -3282.8796 -3268.3777 -3254.2786 -3239.6758 1131.253 3299.8992 3299.8992 3299.8992 3299.8992 3293.5547 3278.8513 3264.148 3249.4446 3234.6404 3219.937 3205.133 3190.5303 3175.9277 3161.1235 3146.823 3132.2205 3118.1213 3099.994 1990.7959 124.97864 -1343.4448 -2788.0005 3118.6248 3134.5366 3150.1465 3165.857 3181.4666 3196.5728 3211.7798 3226.886 3242.0928 3257.0984 3272.0032 3287.1094 3299.8992 -3283.383 -3268.881 -3254.6814 -3240.0786 1437.6068 3299.8992 3299.8992 3299.8992 3299.8992 3292.044 3277.3406 3262.6372 3247.9338 3233.13 3218.3257 3203.6223 3188.919 3174.3164 3159.613 3145.2117 3130.8105 3116.7114 3091.7358 1822.6135 -41.39099 -1575.5768 -2981.4604 3121.1426 3136.9536 3152.5635 3168.173 3183.5815 3198.8892 3214.1968 3229.303 3244.4092 3259.314 3274.3193 3289.0227 3299.8992 -3281.5703 -3266.9678 -3252.8687 -3238.2659 1583.3313 3299.8992 3299.8992 3299.8992 3299.8992 3293.3533 3278.65 3263.9465 3248.941 3234.137 3219.5342 3204.9316 3190.3289 3175.6255 3160.8215 3146.3196 3131.9182 3117.7185 3099.0874 1865.6158 45.117188 -1389.1663 -2794.9492 3119.4304 3135.3423 3150.9521 3166.5618 3182.0708 3197.3784 3212.5854 3227.7922 3242.8984 3257.904 3272.8088 3287.8142 3299.8992 -3282.6782 -3268.0754 -3253.9763 -3239.273 2130.3772 3299.8992 3299.8992 3299.8992 3299.8992 3290.1306 3275.5278 3260.8245 3246.0205 3231.2163 3216.4124 3201.709 3187.1062 3172.5037 3157.8003 3143.2983 3129.2998 3115.1 3088.6138 1689.5782 -204.9408 -1562.2833 -2983.9783 3120.7397 3136.5508 3152.2612 3167.871 3183.3801 3198.587 3213.794 3229.0007 3244.107 
-3013.687 -2999.588 -2985.5896 -2971.8933 -2958.3984 -2944.9036 -2931.4087 -2918.1152 -2230.3801 -698.41003 384.8053 1673.3643 2761.2122 3299.8992 3299.8992 3299.8992 3299.8992 3299.8992 3299.8992 3299.8992 3299.8992 3299.8992 3299.8992 3299.8992 3299.8992 3299.8992 3299.8992 3299.8992 1715.3595 -3172.8057 -3157.196 -3141.687 -3126.5808 -3111.5752 -3096.8718 -3082.0679 -3067.465 -3053.064 -3038.6626 -3024.5635 -3010.3638 -2996.466 -2982.8704 -2968.9727 -2955.1758 -2941.681 -2928.186 -2914.7917 -2261.2976 -713.51624 405.95398 1621.4996 2738.15 3299.8992 3299.8992 3299.8992 3299.8992 3299.8992 3299.8992 3299.8992 3299.8992 3299.8992 3299.8992 3299.8992 3299.8992 3299.8992 3299.8992 3299.8992 1563.4918 -3169.0796 -3153.3691 -3138.0615 -3122.8545 -3107.7483 -3092.9443 -3078.241 -3063.8396 -3049.3376 -3034.9365 -3020.7366 -3006.8389 -2992.8406 -2979.4463 -2965.448 -2951.651 -2938.2568 -2924.762 -2911.569 -2121.817 -595.1843 556.8146 1769.1376 2819.0186 3299.8992 3299.8992 3299.8992 3299.8992 3299.8992 3299.8992 3299.8992 3299.8992 3299.8992 3299.8992 3299.8992 3299.8992 3299.8992 3299.8992 3299.8992 1445.0592 -3168.0725 -3152.4626 -3136.853 -3121.8474 -3106.842 -3091.9373 -3077.3345 -3062.732 -3048.3306 -3034.03 -3019.8303 -3005.8318 -2991.8335 -2977.9358 -2964.2395 -2950.8452 -2937.2498 -2923.9563 -2910.562 -1838.0219 -308.67004 861.557 2086.267 3094.4548 3299.8992 3299.8992 3299.8992 3299.8992 3299.8992 3299.8992 3299.8992 3299.8992 3299.8992 3299.8992 3299.8992 3299.8992 3299.8992 3299.8992 3299.8992 1047.464 -3171.698 -3155.9875 -3140.68 -3125.473 -3110.4675 -3095.6633 -3080.8594 -3066.3574 -3051.956 -3037.6555 -3023.4558 -3009.3567 -2995.3582 -2981.3599 -2967.5627 -2954.1687 -2940.6738 -2927.2795 -2913.986 -2009.9304 -580.17883 485.81543 1846.6827 2885.385 3299.8992 3299.8992 3299.8992 3299.8992 3299.8992 3299.8992 3299.8992 3299.8992 3299.8992 3299.8992 3299.8992 3299.8992 3299.8992 3299.8992 3299.8992 707.47375 -3167.0654 -3151.5564 -3136.2488 -3121.0417 -3106.137 -3091.333 -3076.6296 -3062.1277 -3047.7263 -3033.4258 -3019.226 -3005.2275 -2991.2292 -2977.7344 -2963.8367 -2950.241 -2936.6455 -2923.1506 -2849.533 -1557.7515 -65.460205 1036.2854 2281.2378 3242.697 3299.8992 3299.8992 3299.8992 3299.8992 3299.8992 3299.8992 3299.8992 
3147.2258 3132.1196 3116.51 3101.9072 3087.3047 3071.7957 2940.7744 1402.7618 306.65588 -710.3943 -1714.3524 -2560.8032 -3233.8347 3095.6633 3112.4817 3128.9978 3145.514 3161.8286 3178.0425 3194.2566 3210.269 3226.0803 3241.5894 3257.7026 3273.5137 3288.922 3299.8992 -3280.1604 525.09155 3299.8992 3296.6765 3281.7717 3266.565 3251.2573 3236.2517 3220.944 3205.6365 3190.4297 3175.0212 3159.613 3144.5068 3129.1992 3113.6902 3099.1882 3084.5854 3067.7673 2942.3857 1414.9475 262.64648 -837.5885 -1865.8173 -2661.8132 3276.6357 3095.2605 3111.978 3128.6956 3145.2117 3161.5264 3177.539 3193.6523 3209.967 3225.778 3241.1865 3257.2998 3273.0103 3288.7207 3299.8992 -3280.5632 547.2473 3299.8992 3296.173 3281.1675 3265.9607 3250.7537 3235.7483 3220.5413 3205.2336 3189.926 3174.6184 3159.3108 3143.8018 3128.7964 3113.086 3098.6846 3084.082 3068.2708 2947.2197 1440.1245 323.87695 -787.93945 -1810.025 -2688.9038 -3272.5066 3093.75 3110.568 3127.185 3143.6003 3159.915 3176.1292 3192.1416 3208.3557 3224.2676 3239.6758 3255.789 3271.4995 3287.21 3299.8992 -3282.074 901.5381 3299.8992 3293.1519 3277.9448 3262.738 3247.7324 3232.6262 3217.4194 3202.2124 3186.8042 3171.4966 3156.0881 3140.7805 3125.7751 3110.7695 3095.7642 3081.0608 3063.3362 2729.0862 1152.2003 143.10608 -916.8457 -1768.3319 -2578.427 -3236.4531 3093.6492 3110.266 3126.8828 3143.1975 3159.613 3175.827 3192.041 3208.0535 3223.9653 3239.978 3255.6885 3271.399 3286.908 3299.8992 -3282.1746 805.8655 3299.8992 3293.1519 3278.1462 3263.04 3247.8333 3232.727 3217.52 3202.4138 3187.1062 3171.5972 3156.189 3140.8813 3125.8757 3111.0718 3096.0662 3081.3628 3066.0552 2805.3223 1083.5175 55.59082 -956.9275 -1965.1154 -2833.9233 3082.1685 3097.577 3114.1936 3130.7097 3147.2258 3163.5405 3179.8552 3195.868 3211.7798 3227.6917 3243.805 3259.5154 3275.0244 3290.7349 3299.8992 -3278.549 1195.7062 3299.8992 3294.7632 3279.657 3264.5508 3249.3438 3234.2375 3218.93 3203.8237 3188.516 3173.108 3157.6995 3142.2913 3127.0842 3111.7766 3097.2747 3082.4707 3064.746 2638.5498 930.8441 -143.4082 -1082.309 -2044.7754 -2807.5378 3257.199 3101.5044 3118.1213 3134.738 3151.1536 3167.3674 3183.5815 3199.6948 
-3046.6187 -2948.4282 -2377.716 -1946.1823 -1629.9591 -1390.5762 -1135.6842 -905.96924 -753.3966 -525.5951 -116.21704 13.092041 144.11316 470.4071 1425.7233 2228.8696 3215.4053 3299.8992 3299.8992 3299.8992 3299.8992 3299.8992 3299.8992 3299.8992 3299.8992 3299.8992 3299.8992 3095.6633 1098.523 -607.4707 -1655.2368 -2807.135 -3164.2456 -3149.3408 -3134.5366 -3119.934 -3105.3313 -3091.0308 -3076.7302 -3062.631 -3048.4314 -3020.636 -2503.601 -2083.145 -1783.9417 -1578.9001 -1543.9545 -1259.3536 -894.89136 -523.1781 -85.5011 -69.992065 75.631714 464.46533 1353.717 2146.4905 3082.7727 3299.8992 3299.8992 3299.8992 3299.8992 3299.8992 3299.8992 3299.8992 3299.8992 3299.8992 3299.8992 3051.3518 1015.64026 -601.93176 -1562.5854 -2630.4932 -3158.7065 -3143.9026 -3128.9978 -3114.2944 -3099.893 -3085.391 -3071.1914 -3057.0923 -3040.979 -2741.7754 -2241.2566 -1874.9817 -1776.9928 -1676.7883 -1274.5605 -897.20764 -757.92847 -585.7178 -370.60547 -221.65833 -84.79614 376.54724 1357.2418 2127.2551 3019.4275 3299.8992 3299.8992 3299.8992 3299.8992 3299.8992 3299.8992 3299.8992 3299.8992 3299.8992 3299.8992 2971.994 872.5342 -690.7562 -1740.6372 -2862.2222 -3153.3691 -3138.3635 -3123.5596 -3108.9568 -3094.4548 -3080.3557 -3066.0552 -3051.8555 -3037.7563 -2884.4788 -2282.5469 -1911.2366 -1739.7308 -1569.0308 -1343.1427 -1068.512 -779.3793 -456.5094 -22.055054 85.29968 227.29797 594.07654 1610.8246 2292.517 3231.1157 3299.8992 3299.8992 3299.8992 3299.8992 3299.8992 3299.8992 3299.8992 3299.8992 3299.8992 3299.8992 3006.9397 890.5609 -655.1056 -1849.3011 -3125.2715 -3153.8726 -3139.0686 -3124.1638 -3109.561 -3095.2605 -3080.7585 -3066.5588 -3052.4597 -3038.3606 -2926.5747 -2470.468 -2114.4653 -1828.0518 -1499.5422 -1286.6455 -1084.2224 -976.56555 -635.3668 -255.99976 -108.86536 -12.286377 542.9169 1593.3014 2350.9277 3299.8992 3299.8992 3299.8992 3299.8992 3299.8992 3299.8992 3299.8992 3299.8992 3299.8992 3299.8992 3299.8992 2957.5928 882.20215 -693.9789 -1774.9786 -2953.665 -3149.1394 -3134.1338 -3119.4304 -3104.9285 -3090.5273 -3076.126 -3062.0269 -3047.8271 -3033.728 -2954.37 -2520.3186 -2086.972 -1701.059 -1365.1978 -1386.3464 -1089.4592 -659.9396 -359.8297 32.125854 158.11157 306.55518 701.6327 1743.457 2506.9243 3299.8992 3299.8992 3299.8992 3299.8992 

2.3162842 0.70495605 20.343018 24.069214 24.975586 9.063721 0.9063721 -6.6467285 -5.7403564 3.6254883 -9.567261 -11.380005 -13.293457 -20.74585 -33.33435 -22.558594 -16.616821 -11.380005 -5.9417725 -1.0070801 -9.667969 1.8127441 10.977173 -7.1502686 -22.155762 -18.630981 -10.574341 -1.1077881 4.6325684 -4.1290283 1.3092041 -10.574341 -15.509033 -3.0212402 8.761597 12.487793 12.185669 -13.696289 -4.3304443 6.4453125 6.4453125 6.4453125 6.4453125 6.4453125 6.4453125 6.4453125 6.4453125 6.4453125 6.4453125 6.4453125 6.4453125 6.4453125 6.4453125 6.4453125 6.4453125 6.4453125 6.4453125 6.4453125 6.4453125 6.4453125 -133.43811 -232.83691 -264.55994 -207.96204 -128.90625 -59.317017 19.73877 87.81738 126.690674 165.06042 181.1737 175.03052 138.87634 98.19031 62.74109 -20.343018 -77.84729 -83.48694 -69.58923 -57.806396 -19.436646 -5.2368164 -13.494873 -24.77417 -67.37366 -83.88977 -103.427124 -104.333496 -174.22485 -192.65442 -164.15405 -117.32483 -65.05737 -20.24231 1.0070801 -53.274536 -103.125 -83.78906 -32.629395 11.682129 11.682129 11.682129 11.682129 11.682129 11.682129 11.682129 11.682129 11.682129 11.682129 11.682129 11.682129 11.682129 11.682129 11.682129 11.682129 11.682129 11.682129 11.682129 11.682129 11.682129 -61.6333 -64.05029 -34.643555 -20.846558 -12.588501 -3.0212402 8.258057 -1.3092041 -5.1361084 -8.761597 -12.185669 2.9205322 3.5247803 -10.574341 -15.911865 -11.178589 4.6325684 39.37683 50.656128 29.205322 -21.75293 -46.42639 -31.018066 6.7474365 39.175415 57.70569 66.970825 76.034546 77.44446 63.14392 18.73169 -34.34143 -57.70569 -60.324097 -33.233643 -6.8481445 1.7120361 14.099121 27.593994 -9.567261 -40.88745 -41.39099 -45.92285 -43.807983 -56.69861 -64.75525 -87.11243 -99.90234 -59.317017 -12.588501 -12.689209 -32.226562 -27.090454 -12.487793 -2.4169922 17.321777 42.39807 48.03772 48.742676 56.799316 60.324097 47.131348 15.609741 -24.27063 -49.44763 -45.318604 -29.003906 -22.457886 -40.081787 -49.0448 -22.961426 5.9417725 42.39807 67.27295 76.43738 37.96692 9.365845 10.775757 24.169922 22.25647 
1.6113281 16.616821 -44.91577 -41.4917 -90.03296 -70.09277 -113.497925 -62.036133 -53.274536 -38.671875 -21.551514 -14.099121 -16.21399 -23.464966 -20.74585 6.2438965 9.265137 37.261963 23.162842 22.357178 -13.696289 13.293457 42.599487 65.15808 46.224976 129.00696 137.66785 192.05017 219.24133 215.61584 220.55054 208.86841 197.89124 202.62451 232.53479 188.7268 191.2445 115.008545 101.01013 48.843384 -24.371338 5.0354004 1.4099121 -3.9276123 -51.763916 -76.538086 -157.60803 -162.03918 -175.83618 -199.30115 -202.82593 -165.16113 -129.20837 -107.65686 -88.82446 -70.19348 -55.892944 -34.34143 -33.33435 -30.81665 -50.958252 -80.26428 -126.79138 -132.73315 -180.06592 -136.66077 -167.276 -78.652954 -75.531006 -39.47754 -22.055054 -30.212402 1.3092041 22.357178 32.226562 -64.453125 6.3446045 -30.615234 8.459473 -32.125854 10.372925 34.84497 3.0212402 31.420898 -49.44763 9.063721 3.4240723 20.343018 10.473633 -2.4169922 -24.371338 -17.321777 -0.80566406 -17.623901 -20.846558 -7.9559326 -5.5389404 -8.258057 -6.5460205 -18.933105 10.574341 47.332764 39.678955 51.159668 46.02356 40.786743 -47.836304 21.148682 28.399658 14.401245 7.7545166 -8.459473 -12.185669 9.869385 14.602661 -19.839478 8.761597 -62.64038 -5.9417725 -23.26355 -13.092041 -1.5106201 -85.90393 -13.696289 -85.5011 -20.343018 -57.20215 -18.026733 -1.6113281 11.480713 13.998413 19.134521 25.479126 22.155762 26.28479 23.26355 24.472046 19.23523 25.982666 18.933105 3.6254883 -9.365845 -7.2509766 0.60424805 -4.6325684 37.96692 4.6325684 83.78906 94.96765 97.18323 86.40747 94.766235 129.71191 133.2367 127.89917 140.38696 107.15332 26.586914 65.05737 40.585327 51.965332 18.832397 58.914185 81.674194 33.737183 84.79614 112.18872 83.48694 78.95508 102.319336 102.52075 71.30127 46.42639 14.401245 -37.564087 -63.949585 -125.18005 -173.11707 -130.719 -124.77722 -111.78589 -111.68518 -113.90076 -95.16907 -105.441284 -57.60498 9.164429 -12.185669 -36.053467 0.40283203 19.134521 37.46338 53.07312 48.138428 30.212402 -109.06677 -36.254883 -64.25171 -5.9417725 3.1219482 
3299.8992 3299.8992 3299.8992 3299.8992 3299.8992 3299.8992 3299.8992 3299.8992 3295.3674 -3287.6128 -3270.8953 -3254.48 -3238.1653 -3222.2534 -3206.2407 -3190.631 -3175.0212 -3159.5122 -3144.406 -3129.1992 -3114.2944 -3099.1882 -3084.2834 -3070.1843 -3055.6824 -3041.1804 -3026.88 -3012.7808 -1220.3796 1495.816 3299.8992 3299.8992 3299.8992 3299.8992 3299.8992 3299.8992 3299.8992 3299.8992 3299.8992 3299.8992 3299.8992 3299.8992 3299.8992 3299.8992 3299.8992 3299.8992 3299.8992 3298.892 3295.2666 -3287.7136 -3271.0967 -3254.5806 -3238.3667 -3222.354 -3206.543 -3190.7317 -3175.122 -3159.7136 -3144.5068 -3129.4006 -3114.395 -3099.893 -3085.2905 -3070.285 -3055.8838 -3041.6838 -3027.6855 -3013.687 -1089.0564 1583.2306 3299.8992 3299.8992 3299.8992 3299.8992 3299.8992 3299.8992 3299.8992 3299.8992 3299.8992 3299.8992 3299.8992 3299.8992 3299.8992 3299.8992 3299.8992 3299.8992 3299.8992 3296.878 3294.9646 -3288.0156 -3271.298 -3254.9834 -3238.6687 -3222.5554 -3206.845 -3191.034 -3175.525 -3160.1165 -3144.9097 -3129.7026 -3114.8987 -3099.591 -3085.2905 -3070.285 -3055.8838 -3041.7847 -3027.5847 -3013.5864 -1155.9265 1552.5146 3299.8992 3299.8992 3299.8992 3299.8992 3299.8992 3299.8992 3299.8992 3299.8992 3299.8992 3299.8992 3299.8992 3299.8992 3299.8992 3299.8992 3299.8992 3299.8992 3299.8992 3297.3816 3296.9788 -3286.0015 -3269.3848 -3252.9692 -3236.856 -3220.7427 -3204.9316 -3189.2212 -3173.6113 -3158.2031 -3143.097 -3127.9907 -3113.086 -3098.4832 -3083.4778 -3069.1772 -3054.776 -3040.274 -3025.8728 -3010.3638 -908.1848 1828.656 3299.8992 3299.8992 3299.8992 3299.8992 3299.8992 3299.8992 3299.8992 3299.8992 3299.8992 3299.8992 3299.8992 3299.8992 3299.8992 3299.8992 3299.8992 3299.8992 3299.8992 3295.7703 3296.173 -3286.8071 -3270.1904 -3253.8757 -3237.561 -3221.5483 -3205.536 -3190.0269 -3174.417 -3159.0088 -3143.7012 -3128.6956 -3113.6902 -3098.584 -3084.2834 -3069.2778 -3054.8767 -3040.7776 -3026.6785 -3008.6516 -791.9678 1929.2633 3299.8992 3299.8992 3299.8992 3299.8992 3299.8992 3299.8992 3299.8992 3299.8992 3299.8992 3299.8992 
3299.8992 3299.8992 3299.8992 3299.8992 3299.8992 3299.8992 3284.491 3269.1833 -3192.8467 3280.966 3296.576 -3287.915 -3272.708 -3257.5012 -3242.5964 -3227.7922 -3213.0889 -3198.4863 -3183.9844 -3169.6838 -3155.3833 -3141.1833 -3127.3865 -3113.5894 -3099.893 -3085.9954 -3072.702 -2761.2122 -456.10657 1813.4491 3299.8992 3299.8992 3299.8992 3299.8992 3299.8992 3299.8992 3299.8992 3299.8992 3299.8992 3299.8992 3299.8992 3299.8992 3299.8992 3299.8992 3299.8992 3299.5972 3283.6853 3268.2769 3265.9607 3281.9731 3297.7844 -3286.8071 -3271.4995 -3256.4941 -3241.4885 -3226.5837 -3211.9812 -3197.3784 -3182.9773 -3168.7773 -3154.5776 -3140.68 -3126.48 -3112.5823 -3098.9868 -3085.089 -3071.7957 -2504.2053 -263.85498 1951.3184 3299.8992 3299.8992 3299.8992 3299.8992 3299.8992 3299.8992 3299.8992 3299.8992 3299.8992 3299.8992 3299.8992 3299.8992 3299.8992 3299.8992 3299.8992 3298.2878 3282.2754 3266.7664 3265.457 3281.4697 3297.1802 -3287.3108 -3272.1038 -3256.9976 -3242.0928 -3227.188 -3212.5854 -3197.9827 -3183.5815 -3169.1802 -3155.081 -3141.1833 -3126.8828 -3113.1865 -3099.2888 -3085.5925 -3072.1985 -2673.4954 -527.40784 1736.6089 3299.8992 3299.8992 3299.8992 3299.8992 3299.8992 3299.8992 3299.8992 3299.8992 3299.8992 3299.8992 3299.8992 3299.8992 3299.8992 3299.8992 3299.8992 3299.8992 3284.3901 3268.881 3268.7805 3284.793 3299.8992 -3284.1887 -3268.881 -3253.775 -3238.7695 -3223.9653 -3209.262 -3194.76 -3180.4595 -3166.0583 -3151.9592 -3138.162 -3123.9624 -3110.0647 -3096.469 -3082.5713 -3069.3787 -2527.5696 -11.178589 2137.4268 3299.8992 3299.8992 3299.8992 3299.8992 3299.8992 3299.8992 3299.8992 3299.8992 3299.8992 3299.8992 3299.8992 3299.8992 3299.8992 3299.8992 3299.8992 3298.2878 3282.376 3263.1409 3268.6797 3284.6924 3299.8992 -3284.2896 -3269.0825 -3253.8757 -3238.971 -3224.1667 -3209.5642 -3194.9614 -3180.5603 -3166.2598 -3152.0598 -3138.162 -3124.063 -3110.1653 -3096.469 -3082.7727 -3069.4792 -2356.2651 -4.9346924 2150.116 3299.8992 3299.8992 3299.8992 3299.8992 3299.8992 3299.8992 3299.8992 3299.8992 3299.8992 3299.8992 
3259.1125 3273.816 3288.6199 3299.8992 -3281.7717 -3267.2698 -3253.1707 -3238.568 2221.5178 3299.8992 3299.8992 3299.8992 3299.8992 3290.4326 3275.6287 3260.9253 3246.4233 3231.6191 3216.8152 3202.1118 3187.6099 3172.9065 3158.2031 3143.8018 3129.2998 3115.2007 3075.4211 1653.5248 -227.29797 -1675.6805 -2907.0374 3121.344 3137.155 3152.8655 3168.3745 3183.783 3199.0906 3214.2974 3229.5044 3244.5098 3259.616 3274.4202 3289.5264 3299.8992 -3281.369 -3266.867 -3251.9622 -3237.7625 2615.0847 3299.8992 3299.8992 3299.8992 3299.8992 3289.8284 3275.0244 3260.321 3245.5168 3230.8135 3216.0095 3201.3062 3186.7034 3172.1008 3157.5989 3143.1975 3129.1992 3114.9993 2951.248 1337.4023 -484.70764 -1858.9691 -3156.6924 3125.9766 3141.687 3157.3975 3173.007 3188.3147 3203.6223 3218.8293 3233.9355 3249.0417 3263.9465 3278.952 3293.6553 -3291.8425 -3277.0386 -3262.4358 -3248.4375 -3228.4973 2969.275 3299.8992 3299.8992 3299.8992 3299.8992 3292.3462 3277.8442 3263.1409 3248.4375 3233.6333 3218.8293 3204.126 3189.4226 3174.8198 3160.0159 3145.6145 3131.314 3117.1143 3047.0215 1599.4446 -251.97144 -1574.0662 -2981.4604 3123.4587 3139.27 3154.9805 3170.59 3185.8977 3201.3062 3216.513 3231.6191 3246.6248 3261.6301 3276.535 3291.5405 3299.8992 -3279.0527 -3264.5508 -3249.948 -3203.2195 3106.842 3299.8992 3299.8992 3299.8992 3299.8992 3289.9292 3275.2258 3260.4216 3245.7183 3231.015 3216.11 3201.5076 3186.9048 3172.2014 3157.901 3143.4998 3129.2998 3115.2007 3047.223 1485.6445 -462.35046 -1874.2767 -3179.5532 3125.2715 3141.0828 3156.6924 3172.3022 3187.7104 3202.9175 3218.225 3233.3313 3248.538 3263.3423 3278.3477 3293.051 -3292.5476 -3277.542 -3262.9395 -3249.0417 -3071.292 3299.8992 3299.8992 3299.8992 3299.8992 3299.8992 3289.8284 3275.3264 3260.623 3245.819 3231.1157 3216.3115 3201.6082 3187.0056 3172.3022 3157.6995 3143.2983 3128.897 3114.5964 2964.038 1339.0137 -497.19543 -1966.626 -3282.8796 3126.5808 3142.2913 3158.1023 3173.41 3188.919 3204.2266 3219.4336 3234.5398 3249.646 
3299.8992 3299.8992 3299.8992 3299.8992 3299.8992 3299.8992 3299.8992 3299.8992 387.12158 -3171.8994 -3156.189 -3140.8813 -3125.7751 -3110.669 -3095.7642 -3081.2622 -3066.6594 -3052.1575 -3037.9578 -3023.7578 -3009.6587 -2995.761 -2982.266 -2968.2678 -2954.4707 -2940.9758 -2927.6824 -2898.175 -1653.5248 -40.081787 901.9409 2112.7532 3064.041 3299.8992 3299.8992 3299.8992 3299.8992 3299.8992 3299.8992 3299.8992 3299.8992 3299.8992 3299.8992 3299.8992 3299.8992 3299.8992 3299.8992 3299.8992 476.4496 -3174.2156 -3158.5051 -3143.1975 -3127.89 -3112.985 -3098.1812 -3083.4778 -3068.875 -3054.4739 -3040.1733 -3025.9734 -3011.8743 -2997.9766 -2983.8774 -2970.1812 -2956.6863 -2943.0908 -2929.596 -2910.1592 -1824.1241 -398.703 604.5502 1778.6041 2822.0398 3299.8992 3299.8992 3299.8992 3299.8992 3299.8992 3299.8992 3299.8992 3299.8992 3299.8992 3299.8992 3299.8992 3299.8992 3299.8992 3299.8992 3299.8992 -157.60803 -3166.864 -3151.2542 -3135.846 -3120.8403 -3105.9355 -3091.0308 -3076.4282 -3061.8254 -3047.525 -3033.2244 -3019.0247 -3005.127 -2991.0278 -2977.1301 -2963.5344 -2950.1404 -2936.5447 -2923.1506 -2871.0845 -1754.7363 -220.24841 1024.2004 2393.1243 3299.8992 3299.8992 3299.8992 3299.8992 3299.8992 3299.8992 3299.8992 3299.8992 3299.8992 3299.8992 3299.8992 3299.8992 3299.8992 3299.8992 3299.8992 3299.8992 47.03064 -3169.3816 -3153.8726 -3138.4644 -3123.3582 -3108.3525 -3093.5486 -3078.8452 -3064.3433 -3049.942 -3035.5408 -3021.4417 -3007.3425 -2993.4448 -2979.95 -2965.9514 -2952.2551 -2938.7603 -2925.3662 -2862.2222 -1641.037 -162.64343 820.9717 2029.4678 3168.9788 3299.8992 3299.8992 3299.8992 3299.8992 3299.8992 3299.8992 3299.8992 3299.8992 3299.8992 3299.8992 3299.8992 3299.8992 3299.8992 3299.8992 3299.8992 -501.828 -3166.5618 -3150.8513 -3135.6445 -3120.4375 -3105.5327 -3090.7288 -3076.126 -3061.5234 -3047.122 -3032.8215 -3018.7224 -3004.724 -2990.8264 -2976.828 -2963.333 -2949.7375 -2936.3433 -2922.9492 -2815.4937 -1416.5588 166.0675 1339.6179 2513.0676 3299.8992 3299.8992 3299.8992 3299.8992 3299.8992 3299.8992 3299.8992 3299.8992 
3215.808 3231.6191 3247.531 3263.2415 3278.952 3294.3604 -3290.1306 -3273.715 1490.2771 3299.8992 3297.0793 3282.074 3266.867 3251.6602 3236.4531 3221.2463 3206.0393 3190.631 3175.2227 3159.8145 3144.6074 3129.2998 3113.8916 3099.3896 3084.6863 3067.163 2741.272 1054.4128 -56.497192 -1044.1406 -1985.257 -2817.2058 3094.8577 3102.31 3119.1284 3135.6445 3151.9592 3168.3745 3184.3872 3200.702 3216.513 3232.4248 3247.9338 3264.047 3279.657 3295.3674 -3289.224 -3244.812 1649.3958 3299.8992 3297.0793 3282.074 3266.9678 3251.7607 3236.4531 3221.347 3206.1401 3190.7317 3175.2227 3159.915 3144.6074 3129.5012 3113.8916 3099.3896 3084.6863 3066.7603 2691.0186 1035.1776 73.11401 -999.9298 -1967.0288 -2765.2405 3123.8616 3101.303 3118.0205 3134.6375 3151.0527 3167.3674 3183.4807 3199.6948 3215.5059 3231.6191 3247.0276 3263.1409 3278.8513 3294.2595 -3290.1306 -3194.6594 1794.0125 3299.8992 3295.468 3280.1604 3265.0542 3249.948 3234.7412 3219.4336 3204.2266 3189.0198 3173.6113 3158.3037 3142.7947 3127.6885 3112.2803 3097.6775 3082.974 3065.3503 2750.3357 1002.2461 -33.032227 -1068.7134 -1983.1421 -2710.9587 3216.9158 3099.994 3116.6106 3133.1267 3149.6428 3165.9575 3182.0708 3198.184 3214.3982 3230.2092 3246.222 3261.8315 3277.3406 3292.9504 -3291.641 -3117.3157 2034.8053 3299.8992 3292.6482 3277.6428 3262.4358 3247.4304 3232.1228 3217.0166 3201.8096 3186.4014 3171.0938 3155.5847 3140.277 3125.171 3109.8633 3095.3613 3080.7585 3062.329 2566.1406 808.8867 -216.52222 -1122.8943 -2020.2026 -2776.6204 3138.162 3101.303 3117.819 3134.436 3150.9521 3167.0654 3183.2793 3199.292 3215.5059 3231.4177 3246.8262 3262.9395 3278.549 3294.058 -3290.332 -3002.5085 2303.3936 3299.8992 3292.4468 3277.4414 3262.3352 3247.1282 3232.022 3216.7144 3201.5076 3186.2 3170.691 3155.3833 3140.0757 3124.9695 3110.0647 3095.059 3080.2551 3062.329 2446.8018 654.2999 -306.65588 -1180.7007 -2136.2183 -2958.9019 3087.7075 3104.6265 3121.1426 3137.6587 3154.074 3170.4895 3186.6028 3202.6152 
3299.8992 3299.8992 3299.8992 3299.8992 3299.8992 3299.8992 3299.8992 2927.5818 768.4021 -749.7711 -1799.5514 -2868.6675 -3153.5706 -3138.565 -3123.8616 -3109.1582 -3094.757 -3080.3557 -3066.156 -3052.057 -3037.9578 -2895.053 -2425.3508 -2029.6692 -1678.8025 -1379.2969 -1031.25 -650.2716 -369.6991 -49.749756 66.06445 55.288696 125.98572 551.9806 1626.3336 2352.3376 3299.8992 3299.8992 3299.8992 3299.8992 3299.8992 3299.8992 3299.8992 3299.8992 3299.8992 3299.8992 3299.8992 2475.2014 392.05627 -1034.6741 -1931.5796 -3109.9639 -3154.1748 -3139.1692 -3124.3652 -3109.7625 -3095.3613 -3081.0608 -3066.7603 -3052.6611 -3038.562 -2969.6777 -2488.9983 -2221.82 -1978.3081 -1784.0424 -1419.1772 -1124.4049 -865.2832 -518.74695 -90.13367 69.08569 115.41138 496.08765 1542.8467 2342.6697 3299.8992 3299.8992 3299.8992 3299.8992 3299.8992 3299.8992 3299.8992 3299.8992 3299.8992 3299.8992 3299.8992 2781.7566 616.1316 -878.9795 -1898.9502 -3051.956 -3144.9097 -3130.1055 -3115.6035 -3100.9001 -3086.499 -3072.1985 -3057.898 -3043.7988 -3029.6997 -2702.4993 -2232.5957 -1942.6575 -1731.2714 -1652.3163 -1598.941 -1387.9578 -976.76697 -638.08594 -256.30188 -145.62378 -11.782837 521.36536 1660.1715 2477.417 3299.8992 3299.8992 3299.8992 3299.8992 3299.8992 3299.8992 3299.8992 3299.8992 3299.8992 3299.8992 3299.8992 2622.3357 548.95935 -875.5554 -1950.7141 -3038.3606 -3137.5579 -3122.754 -3108.0505 -3093.4478 -3079.1472 -3064.746 -3050.5461 -3036.3464 -3005.8318 -2555.1636 -2007.4127 -1599.2432 -1379.0955 -1192.8864 -943.0298 -650.3723 -455.2002 -229.61426 25.982666 113.39722 234.04541 710.6964 1769.7418 2411.554 3299.8992 3299.8992 3299.8992 3299.8992 3299.8992 3299.8992 3299.8992 3299.8992 3299.8992 3299.8992 3299.8992 2627.371 579.17175 -845.54443 -1928.659 -3054.6753 -3151.1536 -3136.2488 -3121.5454 -3106.9426 -3092.4407 -3078.1401 -3063.9404 -3049.8413 -3035.7422 -2773.8005 -2306.6162 -1946.0815 -1650.1007 -1413.9404 -1215.9485 -862.06055 -675.5493 -445.53223 -34.542847 86.00464 304.84314 862.3627 2000.6653 2891.4275 3299.8992 3299.8992 3299.8992 3299.8992 

15.911865 42.49878 70.79773 66.56799 66.76941 64.05029 39.47754 -10.272217 -51.159668 -78.75366 -40.686035 -19.839478 0.60424805 6.0424805 18.328857 16.818237 24.27063 17.321777 2.6184082 -0.60424805 14.804077 45.01648 50.857544 -3.9276123 -60.62622 -90.03296 -95.67261 -90.737915 -76.638794 -31.420898 33.233643 76.638794 110.77881 129.81262 125.68359 101.71509 92.65137 66.970825 68.17932 40.585327 -8.963013 -63.14392 -92.752075 -112.89368 -137.26501 -136.15723 -109.469604 -88.42163 -60.62622 -46.5271 -40.48462 -38.168335 -24.069214 -3.8269043 -2.8198242 -13.796997 -26.989746 -16.012573 20.947266 47.735596 48.03772 41.39099 39.175415 41.39099 46.92993 11.380005 -25.579834 -47.03064 -46.829224 -14.602661 -2.5177002 -1.7120361 -1.7120361 -3.1219482 -7.4523926 -22.25647 -4.7332764 -8.056641 4.2297363 28.601074 28.601074 28.601074 28.601074 28.601074 28.601074 28.601074 28.601074 28.601074 28.601074 28.601074 28.601074 28.601074 28.601074 28.601074 28.601074 28.601074 28.601074 28.601074 28.601074 28.601074 -17.72461 -15.609741 13.192749 28.601074 21.652222 0.20141602 -26.486206 0 5.0354004 22.860718 32.42798 34.240723 41.088867 52.972412 34.039307 25.27771 5.7403564 -2.9205322 -14.703369 -25.881958 -38.571167 -39.98108 -32.83081 -22.76001 -27.493286 -25.579834 -1.1077881 21.853638 25.177002 27.090454 21.551514 -16.71753 -40.98816 -46.627808 -36.95984 -16.314697 -1.0070801 8.761597 19.134521 42.196655 20.544434 -3.7261963 -11.178589 11.480713 5.6396484 34.542847 12.890625 -13.595581 -17.825317 -20.443726 5.8410645 26.889038 40.88745 44.110107 35.95276 22.76001 35.046387 34.643555 32.125854 21.853638 22.961426 16.21399 27.694702 32.83081 -2.4169922 -50.152588 -71.80481 -80.56641 -58.309937 -26.28479 13.192749 24.27063 50.756836 86.60889 88.32092 70.89844 66.26587 46.627808 14.703369 -22.961426 -64.956665 -70.79773 -56.19507 -37.96692 -27.896118 -18.429565 -6.2438965 33.33435 66.970825 81.97632 81.87561 82.37915 92.65137 117.92908 92.55066 25.982666 -35.549927 -65.05737 -14.602661 52.166748 
-1.8127441 -25.78125 -24.27063 35.44922 -50.55542 3.4240723 -32.125854 -34.140015 -50.253296 -78.25012 -89.730835 -92.95349 -94.766235 -98.39172 -82.37915 -67.77649 -18.630981 -13.293457 25.378418 20.040894 29.003906 32.730103 36.4563 56.497192 -12.185669 9.970093 39.88037 36.758423 6.6467285 40.786743 60.22339 63.949585 44.51294 52.871704 7.0495605 -22.25647 -43.304443 -84.89685 -46.627808 -60.324097 -42.90161 -96.276855 -46.92993 -39.779663 -116.41846 -62.438965 -147.73865 -84.79614 -45.721436 -9.265137 10.977173 35.751343 47.03064 37.46338 35.549927 44.815063 28.601074 51.763916 20.645142 12.991333 25.881958 22.155762 30.615234 67.77649 31.521606 48.339844 0.50354004 36.557007 21.75293 58.914185 55.792236 61.12976 53.475952 45.01648 37.564087 -98.794556 33.233643 29.80957 60.525513 80.86853 62.64038 23.464966 3.2226562 -33.33435 -104.937744 -60.827637 -65.56091 -61.6333 -34.94568 -16.616821 -9.667969 -15.911865 -35.34851 -49.246216 -47.93701 -58.20923 -25.177002 -9.063721 2.0141602 20.141602 26.184082 36.95984 61.331177 66.6687 25.881958 67.77649 38.168335 62.539673 70.999146 66.16516 19.839478 30.212402 60.424805 81.170654 86.00464 55.490112 93.35632 80.4657 95.5719 65.15808 68.38074 18.22815 -16.314697 28.29895 -119.74182 -24.27063 -91.8457 -37.161255 -22.76001 -24.069214 -34.44214 -59.71985 -66.56799 -50.253296 -16.918945 44.51294 62.338257 50.656128 67.77649 76.33667 27.694702 -8.056641 -5.8410645 -10.876465 -79.35791 -41.592407 -41.89453 -16.113281 -63.848877 -48.94409 -117.526245 -106.448364 -118.533325 -97.48535 -86.709595 -128.10059 -75.531006 -41.693115 -36.95984 -98.69385 -16.616821 -19.638062 -47.43347 -2.5177002 -4.3304443 -16.516113 -1.8127441 -4.1290283 12.588501 29.104614 38.671875 32.93152 24.472046 33.43506 49.850464 -10.372925 14.300537 12.689209 32.629395 25.076294 76.33667 123.97156 106.951904 92.14783 -4.0283203 30.715942 -32.528687 6.5460205 -9.869385 -11.178589 -27.79541 -33.032227 -33.9386 -24.472046 -31.32019 -54.0802 -64.55383 -92.44995 -12.487793 -0.9063721 
3299.8992 3299.8992 3299.8992 3299.8992 3299.8992 3299.8992 3299.8992 3294.3604 3296.6765 -3286.4043 -3269.6868 -3253.372 -3237.1582 -3221.1455 -3205.2336 -3189.7246 -3174.0142 -3158.606 -3143.2983 -3128.2927 -3113.2874 -3098.7854 -3083.7798 -3069.58 -3055.0781 -3040.6768 -3026.3762 -2835.9375 -525.29297 2229.776 3299.8992 3299.8992 3299.8992 3299.8992 3299.8992 3299.8992 3299.8992 3299.8992 3299.8992 3299.8992 3299.8992 3299.8992 3299.8992 3299.8992 3299.8992 3299.8992 3299.8992 3288.5193 3294.8638 -3288.217 -3271.6003 -3255.2856 -3238.971 -3222.9583 -3207.1472 -3191.4368 -3175.827 -3160.4187 -3145.2117 -3130.1055 -3115.1 -3100.5981 -3086.0962 -3070.99 -3056.5886 -3042.389 -3028.2898 -2898.578 -585.21423 2109.6313 3299.8992 3299.8992 3299.8992 3299.8992 3299.8992 3299.8992 3299.8992 3299.8992 3299.8992 3299.8992 3299.8992 3299.8992 3299.8992 3299.8992 3299.8992 3299.8992 3299.8992 3286.6057 3294.058 -3288.8213 -3272.3052 -3255.89 -3239.6758 -3223.6633 -3207.7515 -3192.041 -3176.4312 -3161.1235 -3145.816 -3130.7097 -3115.805 -3100.5981 -3085.794 -3071.5942 -3057.1929 -3042.691 -3028.2898 -2930.0994 -859.14 1760.8795 3299.8992 3299.8992 3299.8992 3299.8992 3299.8992 3299.8992 3299.8992 3299.8992 3299.8992 3299.8992 3299.8992 3299.8992 3299.8992 3299.8992 3299.8992 3299.8992 3299.8992 3235.8489 3298.892 -3283.9873 -3267.4712 -3251.1565 -3234.9426 -3218.93 -3203.119 -3187.509 -3171.7986 -3156.491 -3141.2842 -3126.178 -3111.2732 -3096.7712 -3081.665 -3067.465 -3053.1646 -3038.7634 -3024.362 -2784.9792 -440.39612 2230.3801 3299.8992 3299.8992 3299.8992 3299.8992 3299.8992 3299.8992 3299.8992 3299.8992 3299.8992 3299.8992 3299.8992 3299.8992 3299.8992 3299.8992 3299.8992 3299.8992 3299.8992 3166.2598 3298.892 -3284.1887 -3267.7734 -3251.358 -3235.2446 -3219.2322 -3203.3203 -3187.7104 -3172.1008 -3156.7932 -3141.5862 -3126.48 -3111.5752 -3096.469 -3082.1685 -3067.163 -3052.7617 -3038.6626 -3024.5635 -2833.621 -605.2551 2093.3167 3299.8992 3299.8992 3299.8992 3299.8992 3299.8992 3299.8992 3299.8992 3299.8992 3299.8992 3299.8992 
3299.8992 3299.8992 3299.8992 3299.8992 3299.8992 3297.7844 3281.7717 3255.9905 3269.284 3285.2966 3299.8992 -3283.6853 -3268.579 -3253.473 -3238.4673 -3223.6633 -3208.96 -3194.458 -3180.0566 -3165.756 -3151.657 -3137.7593 -3123.5596 -3109.7625 -3096.0662 -3082.2693 -3069.0764 -2356.4666 22.457886 2264.218 3299.8992 3299.8992 3299.8992 3299.8992 3299.8992 3299.8992 3299.8992 3299.8992 3299.8992 3299.8992 3299.8992 3299.8992 3299.8992 3299.8992 3299.8992 3297.3816 3281.369 3254.9834 3268.881 3284.8938 3299.8992 -3284.1887 -3268.881 -3253.6743 -3238.87 -3224.0662 -3209.4634 -3194.8608 -3180.359 -3166.0583 -3152.0598 -3138.162 -3123.9624 -3110.0647 -3096.469 -3083.1755 -3069.3787 -2366.6382 1.4099121 2215.8782 3299.8992 3299.8992 3299.8992 3299.8992 3299.8992 3299.8992 3299.8992 3299.8992 3299.8992 3299.8992 3299.8992 3299.8992 3299.8992 3299.8992 3299.8992 3297.0793 3281.4697 3153.9734 3270.4924 3286.4043 3299.8992 -3282.4768 -3267.2698 -3252.1636 -3237.2588 -3222.4548 -3207.852 -3193.35 -3178.949 -3164.6484 -3150.5493 -3136.148 -3122.4517 -3108.6548 -3094.9585 -3081.665 -3068.0693 -1999.054 235.55603 2286.0718 3299.8992 3299.8992 3299.8992 3299.8992 3299.8992 3299.8992 3299.8992 3299.8992 3299.8992 3299.8992 3299.8992 3299.8992 3299.8992 3299.8992 3299.8992 3295.5688 3280.0598 3013.7878 3270.4924 3286.4043 3299.8992 -3282.6782 -3267.4712 -3252.365 -3237.561 -3222.6562 -3207.953 -3193.5515 -3179.0496 -3164.749 -3150.65 -3136.2488 -3122.653 -3108.8562 -3095.059 -3081.7656 -3068.0693 -2284.1582 26.28479 2134.607 3299.8992 3299.8992 3299.8992 3299.8992 3299.8992 3299.8992 3299.8992 3299.8992 3299.8992 3299.8992 3299.8992 3299.8992 3299.8992 3299.8992 3299.8992 3298.0864 3282.6782 2897.0671 3273.9165 3289.7278 3299.8992 -3279.3547 -3264.047 -3249.0417 -3234.0361 -3219.3328 -3204.7302 -3190.2283 -3175.827 -3161.6272 -3147.4272 -3133.2275 -3119.4304 -3105.7341 -3092.1387 -3078.7444 -3065.149 -2217.1875 104.03137 2317.4927 3299.8992 3299.8992 3299.8992 3299.8992 3299.8992 3299.8992 3299.8992 3299.8992 3299.8992 3299.8992 
3264.5508 3279.4556 3294.461 -3290.7349 -3276.4343 -3261.9324 -3247.1282 -2984.4817 3299.8992 3299.8992 3299.8992 3299.8992 3299.8992 3290.5334 3275.7292 3260.9253 3246.3225 3231.5186 3216.7144 3202.011 3187.3076 3172.6042 3158.4045 3144.104 3129.5012 3115.2007 2990.2222 1391.684 -462.24976 -1886.261 -3196.9756 3126.178 3141.989 3157.5989 3173.108 3188.516 3203.8237 3219.0308 3234.137 3249.2432 3264.2485 3279.0527 3294.058 -3291.1377 -3276.535 -3261.8315 -3247.9338 -2820.1262 3299.8992 3299.8992 3299.8992 3299.8992 3299.8992 3289.0227 3274.2188 3259.5154 3244.7112 3230.0078 3215.2039 3200.601 3185.8977 3171.2952 3156.491 3142.2913 3127.7893 3113.388 2777.8289 1010.1013 -772.0276 -2122.6226 3173.007 3130.1055 3145.7153 3161.4258 3176.9348 3192.343 3207.55 3222.7568 3237.863 3252.8687 3267.874 3282.7788 3297.7844 -3287.5122 -3273.2117 -3258.7097 -3243.9055 -2654.5623 3299.8992 3299.8992 3299.8992 3299.8992 3299.8992 3290.9363 3276.233 3261.4287 3246.7253 3231.9214 3217.1172 3202.4138 3187.6099 3173.108 3158.606 3144.5068 3129.904 3115.6035 2793.4387 979.28467 -781.897 -2025.943 3299.8992 3131.5154 3147.3267 3162.9363 3178.4453 3193.753 3209.0605 3224.2676 3239.3738 3254.48 3269.3848 3284.3901 3299.1943 -3286.0015 -3271.8018 -3257.2998 -3242.395 -2508.435 3299.8992 3299.8992 3299.8992 3299.8992 3299.8992 3291.4397 3276.7363 3261.9324 3247.1282 3232.3242 3217.4194 3202.8167 3188.214 3173.5107 3159.2102 3144.9097 3130.7097 3116.3086 2926.5747 1107.0831 -609.48486 -1924.53 3274.0173 3130.2063 3145.9167 3161.5264 3177.0354 3192.4438 3207.7515 3222.9583 3238.1653 3253.1707 3268.0754 3282.9802 3297.4822 -3287.6128 -3273.3123 -3258.9111 -3244.0063 -2387.1826 3299.8992 3299.8992 3299.8992 3299.8992 3299.8992 3289.1235 3274.4202 3259.7168 3244.812 3230.1086 3215.3044 3200.5005 3185.9985 3171.2952 3156.8938 3142.7947 3128.0913 3113.8916 2728.482 910.5011 -779.9835 -2158.7769 3141.687 3131.2134 3147.0244 3162.7349 3178.1433 3193.451 3208.8591 3223.9653 3239.0715 3254.1777 
3299.8992 3299.8992 3299.8992 3299.8992 3299.8992 3299.8992 3299.8992 3299.8992 -673.8373 -3171.2952 -3155.6853 -3140.3777 -3125.2715 -3110.266 -3095.5627 -3080.7585 -3066.2566 -3051.7546 -3037.555 -3023.355 -3009.2559 -2995.459 -2981.3599 -2967.7642 -2954.2693 -2940.7744 -2927.2795 -2861.5173 -1623.4131 -173.41919 928.3264 2204.6997 3172.8057 3299.8992 3299.8992 3299.8992 3299.8992 3299.8992 3299.8992 3299.8992 3299.8992 3299.8992 3299.8992 3299.8992 3299.8992 3299.8992 3299.8992 3299.8992 -830.53894 -3167.7703 -3152.2612 -3136.9536 -3121.8474 -3106.7412 -3092.0378 -3077.3345 -3062.9333 -3048.532 -3034.2314 -3020.0317 -3005.9326 -2992.035 -2978.4392 -2964.5415 -2950.8452 -2937.3503 -2923.9563 -2483.0566 -1323.9075 8.258057 809.7931 1963.8062 3292.749 3299.8992 3299.8992 3299.8992 3299.8992 3299.8992 3299.8992 3299.8992 3299.8992 3299.8992 3299.8992 3299.8992 3299.8992 3299.8992 3299.8992 3299.8992 -944.8425 -3166.5618 -3150.8513 -3135.5437 -3120.5383 -3105.6335 -3090.7288 -3076.0254 -3061.624 -3047.223 -3032.9224 -3018.7224 -3004.724 -2990.8264 -2977.4321 -2963.4338 -2949.8381 -2936.3433 -2922.8484 -2767.1538 -1525.7263 -16.516113 1192.1814 2463.8213 3299.8992 3299.8992 3299.8992 3299.8992 3299.8992 3299.8992 3299.8992 3299.8992 3299.8992 3299.8992 3299.8992 3299.8992 3299.8992 3299.8992 3299.8992 3299.8992 -1301.8524 -3165.9575 -3150.348 -3135.1409 -3120.1355 -3105.13 -3090.225 -3075.6226 -3061.2212 -3046.7192 -3032.4187 -3018.3196 -3004.3213 -2990.5242 -2976.3245 -2962.8296 -2949.3347 -2935.8398 -2922.4456 -2879.0405 -1631.2683 74.42322 1239.4135 2475 3299.8992 3299.8992 3299.8992 3299.8992 3299.8992 3299.8992 3299.8992 3299.8992 3299.8992 3299.8992 3299.8992 3299.8992 3299.8992 3299.8992 3299.8992 3299.8992 -1627.7435 -3164.2456 -3148.5352 -3133.3281 -3118.222 -3103.3171 -3088.6138 -3074.0112 -3059.4084 -3045.108 -3030.8074 -3016.7083 -3002.71 -2988.8123 -2974.7131 -2961.1174 -2947.824 -2934.2285 -2920.8342 -2740.3655 -1620.5933 -96.780396 1124.9084 2385.7727 3299.8992 3299.8992 3299.8992 3299.8992 3299.8992 3299.8992 3299.8992 3299.8992 
3218.4265 3234.439 3250.653 3266.2627 3281.7717 3297.2808 -3287.3108 -2888.1042 2504.306 3299.8992 3294.461 3279.4556 3264.2485 3249.0417 3233.9355 3218.628 3203.5217 3188.0127 3172.6042 3157.2966 3142.0898 3126.8828 3111.978 3096.9727 3082.1685 3063.9404 2480.4382 679.77905 -348.2483 -1283.8257 -2259.384 -3046.5178 3091.2322 3108.1511 3124.6672 3141.2842 3157.5989 3173.8127 3190.0269 3206.1401 3221.9512 3237.863 3253.8757 3269.3848 3285.1958 3299.8992 -3283.9873 -2853.7627 2584.7717 3299.8992 3297.3816 3282.2754 3267.1692 3251.9622 3236.7554 3221.5483 3206.1401 3190.7317 3175.3235 3160.0159 3144.7083 3129.5012 3113.9922 3099.4902 3084.7869 3066.2566 2488.7969 724.89624 -256.30188 -1155.1208 -2099.2583 -2920.8342 3091.2322 3107.849 3124.4658 3141.1833 3157.5989 3173.7122 3189.8254 3206.1401 3222.1526 3237.9639 3253.775 3269.3848 3284.9944 3299.8992 -3284.0881 -2655.1665 2912.5762 3299.8992 3295.468 3280.4626 3265.2556 3250.1494 3234.9426 3219.7356 3204.5288 3189.1204 3173.6113 3158.2031 3142.8955 3127.6885 3112.2803 3097.879 3083.075 3064.4438 2456.4697 647.5525 -300.10986 -1233.4717 -2115.8752 -2835.736 3092.8435 3106.6406 3123.056 3139.572 3156.2896 3172.5037 3188.7175 3204.7302 3220.5413 3236.554 3252.063 3268.0754 3283.786 3299.295 -3285.3972 -2557.9834 2932.9192 3299.8992 3293.6553 3278.65 3263.5437 3248.236 3233.2305 3218.0237 3202.6152 3187.3076 3171.8994 3156.3904 3141.2842 3126.0771 3110.4675 3096.167 3081.2622 3061.7249 2302.6885 487.9303 -400.91858 -1258.548 -2190.4998 -2946.6155 3091.0308 3107.9497 3124.5667 3140.982 3157.3975 3173.6113 3189.926 3206.1401 3221.7498 3237.9639 3253.372 3269.3848 3285.0952 3299.8992 -3284.0881 -2447.6074 3239.7766 3299.8992 3293.8567 3278.952 3263.745 3248.4375 3233.3313 3218.0237 3202.8167 3187.4084 3172 3156.6924 3141.2842 3126.2786 3110.7695 3096.2676 3081.4636 3059.8113 2177.005 344.4214 -526.09863 -1469.7327 -2430.3862 -3165.454 3096.8718 3113.6902 3130.2063 3146.521 3163.037 3179.251 3195.3643 3211.5784 
3299.8992 3299.8992 3299.8992 3299.8992 3299.8992 3299.8992 3299.8992 2453.549 224.37744 -1250.0885 -2308.2275 -3166.4612 -3151.2542 -3136.4502 -3121.646 -3107.0435 -3092.642 -3078.3416 -3064.1418 -3050.0427 -3036.0442 -2872.0916 -2450.6287 -2138.4338 -1849.9054 -1542.2424 -1393.6981 -1189.4623 -684.5123 -399.9115 -141.79688 45.822144 185.70557 678.67126 1798.0408 2511.4563 3299.8992 3299.8992 3299.8992 3299.8992 3299.8992 3299.8992 3299.8992 3299.8992 3299.8992 3299.8992 3299.8992 2460.3972 343.91785 -1088.2507 -2157.4675 -3159.0088 -3144.0032 -3129.0984 -3114.395 -3099.893 -3085.492 -3071.1914 -3056.8909 -3042.8923 -3028.894 -2672.3877 -2272.6775 -2050.9185 -1853.6316 -1727.8473 -1409.1064 -1056.427 -716.13464 -426.90125 -30.212402 98.0896 303.0304 846.048 1924.9329 2651.4404 3299.8992 3299.8992 3299.8992 3299.8992 3299.8992 3299.8992 3299.8992 3299.8992 3299.8992 3299.8992 3299.8992 2404.1016 166.36963 -1332.7698 -2372.882 -3153.6711 -3138.6658 -3123.8616 -3109.1582 -3094.6562 -3080.1543 -3065.8538 -3051.7546 -3037.6555 -3023.6572 -2740.8691 -2281.4392 -1871.0541 -1587.8632 -1538.5162 -1368.4204 -1086.438 -795.0897 -414.41345 -14.501953 118.73474 334.95483 995.9015 2068.0388 2670.3735 3299.8992 3299.8992 3299.8992 3299.8992 3299.8992 3299.8992 3299.8992 3299.8992 3299.8992 3299.8992 3299.8992 2225.7476 235.95886 -1263.2812 -2259.7869 -3152.765 -3137.7593 -3122.9553 -3108.4534 -3093.9514 -3079.4495 -3065.3503 -3051.1504 -3037.0513 -3022.9521 -2921.338 -2480.9417 -2105.8044 -1731.6742 -1341.5314 -1041.0187 -732.9529 -434.0515 -267.07764 58.914185 123.2666 213.50098 863.7726 2037.7258 2632.0037 3299.8992 3299.8992 3299.8992 3299.8992 3299.8992 3299.8992 3299.8992 3299.8992 3299.8992 3299.8992 3299.8992 2172.171 178.25317 -1116.7511 -2094.3237 -3154.6782 -3139.572 -3124.8687 -3110.1653 -3095.5627 -3081.1614 -3066.9617 -3052.6611 -3038.562 -2923.755 -2434.616 -1941.7511 -1597.934 -1497.226 -1596.9269 -1231.4575 -788.14087 -537.57935 -265.06348 117.32483 199.50256 347.84546 873.7427 2006.0028 2676.0132 3299.8992 3299.8992 3299.8992 3299.8992 

78.552246 110.37598 149.55139 167.57812 121.9574 52.871704 -19.839478 -89.42871 -145.52307 -204.73938 -240.1886 -226.69373 -166.57104 -121.85669 -84.09119 -44.110107 4.3304443 19.940186 21.75293 -14.300537 -41.693115 -16.616821 16.012573 10.372925 2.6184082 -16.818237 -27.79541 -17.523193 28.198242 66.87012 10.876465 -73.61755 -90.03296 -64.05029 -30.212402 9.466553 29.406738 22.659302 -7.6538086 -22.457886 -19.638062 -18.832397 -32.93152 -39.779663 -15.106201 17.422485 24.975586 31.521606 31.521606 19.335938 -13.394165 -28.29895 -25.579834 -19.638062 -7.8552246 -15.307617 -60.62622 -77.84729 -48.339844 -7.1502686 -3.5247803 -16.012573 -6.6467285 47.03064 61.029053 47.53418 23.968506 28.198242 43.707275 29.003906 -7.6538086 -31.32019 -19.638062 -19.335938 -19.134521 -4.0283203 14.804077 9.970093 8.358765 7.3516846 7.3516846 7.3516846 7.3516846 7.3516846 7.3516846 7.3516846 7.3516846 7.3516846 7.3516846 7.3516846 7.3516846 7.3516846 7.3516846 7.3516846 7.3516846 7.3516846 7.3516846 7.3516846 7.3516846 7.3516846 250.46082 224.07532 177.64893 127.697754 67.77649 -37.060547 -127.89917 -146.63086 -92.04712 -34.84497 -6.9488525 -5.9417725 -16.918945 -42.196655 -74.523926 -100.40588 -120.44678 -137.0636 -140.38696 -97.88818 -35.44922 9.970093 61.834717 97.38464 92.752075 72.20764 54.68445 21.853638 -35.34851 -102.21863 -127.194214 -111.28235 -103.52783 -98.19031 -65.25879 -60.22339 -49.649048 -36.557007 -15.811157 -14.199829 -15.509033 -17.422485 -9.567261 -5.4382324 16.415405 26.083374 21.047974 18.933105 0.9063721 -3.2226562 -5.7403564 -0.60424805 6.2438965 45.52002 94.16199 87.41455 104.53491 142.40112 188.32397 168.78662 119.540405 61.431885 28.198242 15.206909 11.480713 -20.947266 -26.083374 -39.074707 -30.715942 -83.184814 -148.04077 -166.36963 -130.61829 -54.18091 9.970093 4.2297363 -41.189575 -27.896118 -0.10070801 -9.970093 -57.70569 -82.58057 -69.58923 -36.85913 -8.157349 32.629395 50.656128 42.297363 19.839478 18.026733 22.155762 22.155762 -2.6184082 -43.707275 -62.23755 -33.636475 -23.162842 -7.6538086 6.2438965 6.8481445 5.9417725 7.5531006 11.279297 20.645142 8.258057 -7.0495605 -21.75293 -19.638062 -29.205322 -43.707275 -38.168335 -22.76001 -13.897705 -7.7545166 3.4240723 12.689209 29.30603 41.99524 50.454712 61.834717 
46.829224 17.321777 65.15808 53.475952 109.67102 60.827637 57.70569 20.947266 -2.3162842 -34.44214 -64.65454 -76.538086 -72.81189 -81.27136 -71.90552 -61.431885 -52.06604 -65.05737 -36.95984 -23.364258 11.077881 36.95984 73.013306 84.39331 84.49402 81.27136 49.649048 76.538086 59.921265 70.79773 37.36267 25.881958 -26.184082 -50.857544 -69.79065 -166.87317 -94.96765 -53.979492 -46.224976 -84.99756 -29.80957 -54.68445 -17.926025 -4.1290283 -73.21472 -7.2509766 -60.22339 -40.182495 -15.609741 4.0283203 10.272217 6.7474365 11.883545 22.457886 56.09436 79.76074 139.48059 188.92822 230.31921 287.31995 265.16418 244.92188 222.06116 212.89673 179.05884 127.597046 61.6333 90.234375 31.018066 24.069214 -39.175415 -66.87012 -97.88818 -125.48218 -141.99829 -181.1737 -103.22571 -54.18091 -20.947266 -62.036133 2.2155762 -29.406738 -18.127441 3.7261963 19.73877 23.565674 -12.991333 -26.989746 -24.069214 -40.98816 -81.06995 -120.44678 -161.33423 -178.85742 -147.63794 -93.65845 -108.05969 -69.08569 -74.82605 -68.88428 -3.5247803 35.650635 27.090454 14.300537 -91.44287 -51.159668 -83.88977 -27.090454 -29.708862 -17.120361 -19.23523 -32.730103 -36.758423 -38.269043 -30.615234 -45.620728 -15.811157 -34.44214 -10.574341 12.286377 11.380005 -20.947266 -14.804077 -33.032227 -26.78833 -29.80957 -68.68286 -14.602661 30.413818 62.74109 84.191895 105.54199 108.76465 94.766235 87.01172 85.09827 82.78198 141.19263 87.213135 32.025146 -2.3162842 21.551514 28.29895 18.530273 22.961426 -18.832397 -19.537354 -9.466553 -57.60498 -43.50586 -42.599487 -15.509033 -0.30212402 24.472046 33.535767 20.846558 49.850464 36.154175 80.4657 49.749756 68.38074 19.335938 61.029053 49.749756 90.5365 89.42871 74.72534 35.95276 27.493286 20.343018 20.24231 30.212402 35.046387 13.192749 0.40283203 -39.276123 -51.159668 -79.660034 -40.686035 -37.36267 -31.018066 -77.24304 -93.65845 -125.48218 -124.67651 -123.77014 -201.91956 -102.01721 -76.034546 -36.254883 -19.134521 18.328857 34.34143 24.371338 12.991333 -30.111694 18.73169 -64.25171 27.392578 33.032227 59.014893 -8.963013 23.867798 18.630981 19.638062 -29.608154 -61.431885 -49.44763 -32.83081 -24.874878 -15.710449 -15.408325 -12.286377 -21.551514 -12.084961 -27.896118 -14.804077 -20.544434 -38.067627 -65.56091 
3299.8992 3299.8992 3299.8992 3299.8992 3299.8992 3299.8992 3299.8992 3037.857 3299.8992 -3281.2683 -3264.6514 -3248.4375 -3232.2234 -3216.3115 -3200.5005 -3184.79 -3169.281 -3153.8726 -3138.6658 -3123.6602 -3108.8562 -3094.3542 -3079.248 -3065.048 -3050.647 -3036.2456 -3022.046 -2754.9683 -253.38135 2483.8623 3299.8992 3299.8992 3299.8992 3299.8992 3299.8992 3299.8992 3299.8992 3299.8992 3299.8992 3299.8992 3299.8992 3299.8992 3299.8992 3299.8992 3299.8992 3299.8992 3299.8992 2744.0918 3299.8992 -3280.7646 -3264.3494 -3248.0347 -3231.72 -3215.808 -3199.9968 -3184.3872 -3168.8782 -3153.4697 -3138.3635 -3123.3582 -3108.3525 -3093.9514 -3079.3486 -3064.3433 -3049.942 -3035.9436 -3021.945 -2606.3232 -134.04236 2515.988 3299.8992 3299.8992 3299.8992 3299.8992 3299.8992 3299.8992 3299.8992 3299.8992 3299.8992 3299.8992 3299.8992 3299.8992 3299.8992 3299.8992 3299.8992 3299.8992 3299.8992 2539.2517 3299.8992 -3280.966 -3264.3494 -3248.0347 -3231.9214 -3215.9087 -3200.0977 -3184.3872 -3168.9788 -3153.5706 -3138.3635 -3123.4587 -3108.4534 -3093.3472 -3078.6438 -3064.4438 -3050.0427 -3035.7422 -3021.3408 -2536.734 32.025146 2764.4348 3299.8992 3299.8992 3299.8992 3299.8992 3299.8992 3299.8992 3299.8992 3299.8992 3299.8992 3299.8992 3299.8992 3299.8992 3299.8992 3299.8992 3299.8992 3299.8992 3299.8992 2340.3533 3299.8992 -3281.6711 -3265.155 -3248.7395 -3232.6262 -3216.6138 -3200.8025 -3185.092 -3169.583 -3154.2754 -3139.1692 -3123.9624 -3109.0576 -3094.6562 -3079.651 -3065.451 -3051.0498 -3036.6484 -3022.348 -2465.8354 149.24927 2729.7913 3299.8992 3299.8992 3299.8992 3299.8992 3299.8992 3299.8992 3299.8992 3299.8992 3299.8992 3299.8992 3299.8992 3299.8992 3299.8992 3299.8992 3299.8992 3299.8992 3299.8992 1967.5323 3299.8992 -3281.9731 -3265.457 -3249.1423 -3233.029 -3217.0166 -3201.2053 -3185.5957 -3170.0867 -3154.6782 -3139.572 -3124.3652 -3109.561 -3094.3542 -3080.1543 -3065.2495 -3050.8484 -3036.7493 -3022.7507 -2467.4468 -1.0070801 2736.0352 3299.8992 3299.8992 3299.8992 3299.8992 3299.8992 3299.8992 3299.8992 3299.8992 3299.8992 3299.8992 3299.8992 3299.8992 3299.8992 3299.8992 3299.8992 3299.8992 3299.8992 1737.1124 3299.8992 -3280.5632 -3264.047 -3247.7324 -3231.72 -3215.6067 -3199.7954 -3184.1858 -3168.6768 -3153.2683 -3138.263 -3123.1567 
3299.8992 3299.8992 3299.8992 3299.8992 3299.8992 3299.4963 3283.8867 2571.176 3277.1392 3292.9504 3299.8992 -3276.0315 -3260.8245 -3245.9197 -3231.015 -3216.11 -3201.6082 -3187.207 -3172.9065 -3158.606 -3144.406 -3130.1055 -3116.51 -3102.8137 -3089.1174 -3075.7231 -3062.2283 -1933.493 735.672 3074.3132 3299.8992 3299.8992 3299.8992 3299.8992 3299.8992 3299.8992 3299.8992 3299.8992 3299.8992 3299.8992 3299.8992 3299.8992 3299.8992 3299.8992 3299.8992 3296.0723 3280.0598 2327.362 3274.4202 3290.2312 3299.8992 -3278.7505 -3263.5437 -3248.538 -3233.6333 -3218.93 -3204.3274 -3189.7246 -3175.424 -3161.023 -3147.0244 -3133.3281 -3118.927 -3105.2307 -3091.635 -3077.8381 -3064.6453 -1720.0928 739.2975 2888.3057 3299.8992 3299.8992 3299.8992 3299.8992 3299.8992 3299.8992 3299.8992 3299.8992 3299.8992 3299.8992 3299.8992 3299.8992 3299.8992 3299.8992 3299.8992 3293.4539 3277.4414 2163.6108 3272.6074 3288.5193 3299.8992 -3280.5632 -3265.457 -3250.2502 -3235.446 -3220.642 -3206.0393 -3191.4368 -3177.1362 -3162.8357 -3148.6357 -3134.8389 -3120.7397 -3106.9426 -3093.3472 -3079.4495 -3066.3574 -1628.1464 790.86 2906.6345 3299.8992 3299.8992 3299.8992 3299.8992 3299.8992 3299.8992 3299.8992 3299.8992 3299.8992 3299.8992 3299.8992 3299.8992 3299.8992 3299.8992 3299.8992 3291.1377 3275.125 1789.5813 3271.701 3287.6128 3299.8992 -3281.4697 -3266.2627 -3251.1565 -3236.3525 -3221.5483 -3206.845 -3192.343 -3178.0425 -3163.742 -3149.5422 -3135.745 -3121.5454 -3107.849 -3094.1528 -3080.3557 -3067.163 -1902.9785 441.3025 2550.833 3299.8992 3299.8992 3299.8992 3299.8992 3299.8992 3299.8992 3299.8992 3299.8992 3299.8992 3299.8992 3299.8992 3299.8992 3299.8992 3299.8992 3299.8992 3294.2595 3278.247 1475.7751 3276.0315 3291.8425 3299.8992 -3277.24 -3262.1338 -3247.0276 -3232.1228 -3217.4194 -3202.8167 -3188.3147 -3173.9136 -3159.7136 -3145.6145 -3131.8176 -3117.6177 -3103.9214 -3090.225 -3076.5288 -3063.3362 -1593.2007 772.3297 2933.5234 3299.8992 3299.8992 3299.8992 3299.8992 3299.8992 3299.8992 3299.8992 3299.8992 3299.8992 3299.8992 3299.8992 3299.8992 3299.8992 3299.8992 3299.8992 3293.6553 3277.7434 1402.5604 3275.83 3291.5405 3299.8992 -3277.542 -3262.3352 -3247.3296 -3232.5256 -3217.7214 -3203.018 -3188.617 -3174.2156 -3160.0159 
3269.1833 3283.9873 3298.892 -3286.5051 -3271.6003 -3257.199 -3243.0999 -2137.326 3299.8992 3299.8992 3299.8992 3299.8992 3299.8992 3289.4255 3274.7222 3259.9182 3245.2148 3230.31 3215.5059 3200.8025 3186.3005 3171.5972 3156.8938 3142.3918 3128.4941 3113.7908 2627.472 872.7356 -860.95276 -2084.0515 3185.8977 3132.1196 3148.0315 3163.6414 3179.0496 3194.3572 3209.7656 3224.8718 3239.978 3255.0842 3269.989 3284.8938 3299.3958 -3285.6995 -3271.4995 -3256.9976 -3242.2942 -2003.6865 3299.8992 3299.8992 3299.8992 3299.8992 3299.8992 3288.922 3274.118 3259.314 3244.6106 3229.8064 3215.0024 3200.1982 3185.6963 3171.0938 3156.6924 3142.1904 3127.9907 3112.5823 2565.335 685.4187 -917.65137 -2177.3071 3179.251 3133.429 3149.1394 3164.6484 3180.1575 3195.5657 3210.8733 3225.9795 3241.1865 3256.192 3271.0967 3285.901 3299.8992 -3284.3901 -3269.7876 -3255.1848 -3241.1865 -1816.571 3299.8992 3299.8992 3299.8992 3299.8992 3299.8992 3289.5264 3274.9236 3260.0188 3245.2148 3230.612 3215.808 3201.1047 3186.6028 3171.8994 3157.196 3142.694 3128.6956 3114.2944 2693.335 853.29895 -749.5697 -2013.858 3299.8992 3131.1125 3146.9238 3162.5334 3177.942 3193.451 3208.7585 3223.8647 3239.1724 3254.1777 3269.0825 3283.8867 3298.4893 -3286.8071 -3272.406 -3258.0046 -3243.0999 -1525.6256 3299.8992 3299.8992 3299.8992 3299.8992 3299.8992 3285.8 3271.0967 3256.2927 3241.5894 3226.7852 3212.0818 3197.177 3182.675 3168.0725 3153.6711 3139.572 3124.8687 3109.7625 2497.9614 560.6415 -1159.2499 -2517.2974 3118.8262 3134.6375 3150.348 3165.9575 3181.4666 3196.6736 3212.0818 3227.0874 3242.395 3257.2998 3272.2046 3287.0085 3299.8992 -3283.383 -3268.7805 -3254.2786 -3240.1794 -1297.8241 3299.8992 3299.8992 3299.8992 3299.8992 3299.8992 3288.5193 3273.816 3259.0117 3244.2078 3229.4036 3214.7002 3199.9968 3185.2935 3170.691 3155.9875 3141.4856 3127.3865 3112.4817 2467.8496 593.17017 -1102.9541 -2405.2092 3120.4375 3136.4502 3152.1606 3167.4683 3182.9773 3198.3855 3213.693 3228.9001 3244.107 3259.1125 3274.0173 3288.8213 3299.8992 -3282.074 -3267.2698 -3252.6672 -3238.87 -1065.0879 3299.8992 3299.8992 3299.8992 3299.8992 3299.8992 3288.7207 3273.9165 3259.2131 3244.3083 3229.5044 3214.7002 3199.9968 
3299.8992 3299.8992 3299.8992 3299.8992 3299.8992 3299.8992 3299.8992 3299.8992 -1616.6656 -3161.4258 -3145.816 -3130.5083 -3115.402 -3100.6987 -3085.6934 -3071.1914 -3056.6895 -3042.389 -3028.0884 -3013.9893 -2999.9907 -2986.093 -2972.5981 -2958.7004 -2944.9036 -2931.5093 -2918.2158 -2551.0344 -1233.2703 112.994385 1107.8888 2271.0662 3299.8992 3299.8992 3299.8992 3299.8992 3299.8992 3299.8992 3299.8992 3299.8992 3299.8992 3299.8992 3299.8992 3299.8992 3299.8992 3299.8992 3299.8992 3299.8992 -1852.121 -3160.2173 -3144.7083 -3129.5012 -3114.395 -3099.4902 -3084.6863 -3070.285 -3055.6824 -3041.281 -3026.9805 -3012.9822 -2998.883 -2985.086 -2971.692 -2957.6934 -2944.098 -2930.7036 -2917.3096 -2572.284 -1288.2568 300.5127 1253.9154 2455.7646 3299.8992 3299.8992 3299.8992 3299.8992 3299.8992 3299.8992 3299.8992 3299.8992 3299.8992 3299.8992 3299.8992 3299.8992 3299.8992 3299.8992 3299.8992 3287.3108 -2152.533 -3159.7136 -3144.104 -3128.9978 -3113.7908 -3098.9868 -3084.1826 -3069.6807 -3055.2795 -3040.7776 -3026.6785 -3012.4785 -2998.4802 -2984.683 -2970.6848 -2957.089 -2943.695 -2930.0994 -2916.806 -2556.0698 -1282.3151 170.29724 1235.6873 2462.0085 3299.8992 3299.8992 3299.8992 3299.8992 3299.8992 3299.8992 3299.8992 3299.8992 3299.8992 3299.8992 3299.8992 3299.8992 3299.8992 3299.8992 3299.8992 3299.8992 -2133.0962 -3159.3108 -3143.9026 -3128.6956 -3113.4888 -3098.6846 -3083.8806 -3069.2778 -3054.8767 -3040.4753 -3026.2756 -3012.1765 -2998.178 -2984.2803 -2970.3826 -2956.787 -2943.3928 -2929.9988 -2916.6045 -2584.1675 -1262.677 280.87463 1475.8759 2721.1304 3299.8992 3299.8992 3299.8992 3299.8992 3299.8992 3299.8992 3299.8992 3299.8992 3299.8992 3299.8992 3299.8992 3299.8992 3299.8992 3299.8992 3299.8992 3133.5295 -2609.0422 -3159.613 -3144.2046 -3128.9978 -3113.8916 -3099.0874 -3084.1826 -3069.6807 -3055.1787 -3040.8782 -3026.6785 -3012.4785 -2998.4802 -2984.5825 -2971.289 -2957.3914 -2943.695 -2930.2002 -2916.9067 -2406.2163 -1076.5686 334.4513 1499.8444 2680.4443 3299.8992 3299.8992 3299.8992 3299.8992 3299.8992 3299.8992 3299.8992 3299.8992 3299.8992 3299.8992 3299.8992 3299.8992 3299.8992 3299.8992 3299.8992 2978.842 -2918.2158 -3159.915 -3144.5068 -3129.2998 -3114.2944 -3099.3896 -3084.5854 -3069.983 -3055.5815 -3041.281 -3027.0813 -3012.8813 
3227.2888 3243.2007 3259.2131 3274.7222 3290.332 3299.8992 -3278.7505 -2196.4417 3299.8992 3299.8992 3297.3816 3282.2754 3267.0684 3251.8616 3236.6545 3221.347 3206.0393 3190.5303 3175.122 3159.8145 3144.5068 3129.2998 3114.395 3099.3896 3084.4849 3066.0552 2339.5476 520.8618 -424.28284 -1375.7721 -2315.982 -2992.7397 3095.6633 3112.4817 3129.0984 3145.514 3161.9292 3178.244 3194.3572 3210.4705 3226.2817 3242.1936 3258.307 3273.816 3289.224 3299.8992 -3279.7576 -2158.2732 3299.8992 3299.8992 3296.576 3281.369 3266.2627 3251.056 3235.8489 3220.5413 3205.2336 3189.8254 3174.417 3158.908 3143.7012 3128.4941 3113.6902 3098.584 3083.7798 3065.451 2404.1016 693.0725 -273.62366 -1259.0515 -2177.8105 -2935.9404 3091.7358 3108.554 3125.171 3141.687 3158.0017 3174.417 3190.5303 3206.543 3222.4548 3238.3667 3254.3792 3270.0896 3285.5986 3299.8992 -3283.484 -1968.338 3299.8992 3299.8992 3291.339 3276.3335 3261.1267 3246.0205 3230.8135 3215.6067 3200.1982 3184.79 3169.281 3154.074 3138.8672 3123.6602 3108.3525 3093.75 3079.0466 3057.495 2166.7327 395.88318 -497.09473 -1393.5974 -2302.6885 -3009.4573 3092.34 3109.259 3125.9766 3142.4927 3158.8074 3175.122 3191.336 3207.1472 3223.1597 3239.0715 3254.48 3270.5933 3286.1023 3299.8992 -3282.7788 -1798.9471 3299.8992 3299.8992 3291.2383 3276.132 3260.9253 3245.819 3230.612 3215.4053 3199.9968 3184.6892 3169.3816 3153.9734 3138.6658 3123.5596 3108.1511 3093.6492 3078.9458 3057.797 2195.4346 412.70142 -519.6533 -1425.119 -2302.2856 -3023.4558 3092.642 3109.4604 3125.8757 3142.4927 3158.8074 3175.122 3191.1345 3207.4492 3223.2605 3239.1724 3254.5806 3270.4924 3286.4043 3299.8992 -3282.8796 -1457.3456 3299.8992 3299.8992 3289.224 3274.118 3259.0117 3243.704 3228.6987 3213.4917 3198.0835 3182.675 3167.2668 3151.9592 3136.6516 3121.5454 3106.2378 3091.635 3076.5288 2994.2505 2019.1956 237.97302 -567.3889 -1451.6052 -2331.9946 -3117.517 3093.5486 3110.266 3126.8828 3143.399 3159.613 3175.9277 3192.041 3208.255 3224.1667 3240.0786 3255.3862 3271.4995 3287.1094 3299.8992 -3281.9731 -1376.7792 3299.8992 3299.8992 3289.5264 3274.4202 3259.2131 3244.107 3229.1016 3213.794 3198.4863 3183.078 3167.6697 3152.2612 
3299.8992 3299.8992 3299.8992 3299.8992 3299.8992 3299.8992 3299.8992 1720.2942 -363.4552 -1678.3997 -2707.6355 -3152.2612 -3137.2559 -3122.351 -3107.7483 -3093.3472 -3078.8452 -3064.6453 -3050.4456 -3036.447 -3022.5493 -2816.803 -2387.384 -2112.854 -1826.3397 -1464.3951 -1143.6401 -726.6083 -565.07263 -433.04443 -67.07153 72.81189 248.84949 895.7977 2010.9375 2715.39 3299.8992 3299.8992 3299.8992 3299.8992 3299.8992 3299.8992 3299.8992 3299.8992 3299.8992 3299.8992 3299.8992 2098.5535 61.029053 -1274.4598 -2390.2039 -3149.3408 -3134.3352 -3119.5312 -3104.9285 -3090.326 -3076.0254 -3061.7249 -3047.6257 -3033.6272 -3019.629 -2712.8723 -2358.3801 -2073.9807 -1808.7158 -1535.2936 -1163.8824 -826.91345 -588.13477 -303.33252 106.54907 160.72998 305.5481 1021.98486 2125.0396 2843.9941 3299.8992 3299.8992 3299.8992 3299.8992 3299.8992 3299.8992 3299.8992 3299.8992 3299.8992 3299.8992 3299.8992 1970.3522 -28.80249 -1346.2646 -2301.2786 -3148.938 -3133.9324 -3119.0276 -3104.425 -3089.923 -3075.5217 -3061.322 -3047.223 -3033.1238 -2868.2646 -2413.971 -1909.726 -1520.993 -1302.9602 -1293.8965 -1146.6614 -852.8961 -539.6942 -245.62683 171.70715 296.7865 399.20654 1049.3774 2019.7998 2707.434 3299.8992 3299.8992 3299.8992 3299.8992 3299.8992 3299.8992 3299.8992 3299.8992 3299.8992 3299.8992 3299.8992 2134.506 97.98889 -1342.4377 -2401.886 -3159.0088 -3144.0032 -3129.0984 -3114.4958 -3099.893 -3085.5925 -3071.1914 -3056.9915 -3042.8923 -3024.765 -2610.3516 -2158.9783 -1887.5702 -1595.4163 -1403.2654 -1093.2861 -794.18335 -531.839 -289.53552 -11.782837 21.853638 279.56543 1023.999 2171.3652 2948.7305 3299.8992 3299.8992 3299.8992 3299.8992 3299.8992 3299.8992 3299.8992 3299.8992 3299.8992 3299.8992 3299.8992 1649.4965 -497.39685 -1750.003 -2663.324 -3154.074 -3138.9678 -3124.2644 -3109.561 -3095.059 -3080.7585 -3066.5588 -3052.359 -3038.2598 -3024.2615 -2754.5654 -2250.7231 -1906.604 -1601.0559 -1364.5935 -1039.2059 -684.3109 -402.02637 -119.540405 272.41516 334.85413 542.9169 1248.4772 2236.7249 2969.8792 3299.8992 3299.8992 3299.8992 3299.8992 3299.8992 3299.8992 3299.8992 3299.8992 3299.8992 3299.8992 3299.8992 1602.768 -262.14294 -1407.4951 -2265.326 -3160.2173 -3145.2117 -3130.307 -3115.7043 -3101.303 -3086.801 -3072.6013 -3058.4014 -3044.2017 

52.368164 28.601074 9.768677 4.3304443 13.494873 20.24231 20.74585 1.9134521 -1.4099121 8.660889 29.608154 34.039307 28.903198 58.813477 85.90393 114.70642 95.5719 55.288696 8.963013 -54.58374 -118.83545 -168.38379 -150.05493 -104.73633 -66.6687 -51.864624 -8.660889 28.701782 51.864624 57.907104 68.88428 76.135254 58.511353 40.48462 50.857544 22.357178 -49.0448 -73.61755 -110.17456 -79.055786 -41.290283 -17.321777 -2.5177002 11.581421 -9.466553 -3.3233643 19.436646 29.80957 17.825317 5.7403564 -20.141602 -24.371338 -14.300537 23.867798 47.03064 83.08411 114.20288 152.06909 152.47192 163.5498 170.59937 81.37207 -21.954346 -74.82605 -84.191895 -101.412964 -127.194214 -121.85669 -99.801636 -103.326416 -90.83862 -65.66162 -56.900024 -48.44055 -21.148682 4.3304443 12.890625 17.926025 26.889038 44.91577 49.246216 54.18091 67.977905 81.57349 46.224976 19.638062 19.839478 25.378418 41.89453 24.169922 -9.667969 -21.853638 -22.76001 -9.768677 -17.019653 -24.874878 -9.869385 -7.7545166 -5.3375244 26.385498 37.161255 46.42639 15.408325 -40.686035 -111.78589 -153.17688 -130.31616 -63.64746 2.4169922 40.182495 57.70569 68.481445 62.338257 62.64038 68.481445 30.917358 -73.81897 -112.994385 -90.83862 -66.6687 -66.6687 -66.6687 -66.6687 -66.6687 -66.6687 -66.6687 -66.6687 -66.6687 -66.6687 -66.6687 -66.6687 -66.6687 -66.6687 -66.6687 -66.6687 -66.6687 -66.6687 -66.6687 -66.6687 -66.6687 93.65845 85.80322 61.331177 40.48462 3.6254883 -6.9488525 0.9063721 -30.010986 -49.44763 -59.1156 -54.785156 -41.793823 -38.571167 -20.040894 -1.0070801 -7.3516846 -2.9205322 23.26355 24.169922 8.963013 16.616821 25.78125 21.853638 12.890625 7.3516846 6.7474365 -21.148682 -66.26587 -101.61438 -91.241455 -79.76074 -76.23596 -62.338257 -60.021973 -49.54834 -14.401245 14.501953 27.694702 33.83789 44.815063 50.857544 59.1156 58.007812 44.311523 22.76001 16.012573 11.782837 11.279297 30.212402 49.54834 63.043213 75.73242 73.61755 64.956665 76.538086 60.72693 11.279297 -40.182495 -31.924438 7.0495605 
-45.822144 -59.1156 -39.47754 -62.74109 -38.168335 -41.693115 -39.074707 16.113281 44.714355 45.822144 42.800903 66.6687 83.48694 100.6073 98.19031 83.88977 137.36572 125.98572 172.81494 162.03918 185.60486 146.42944 159.6222 98.0896 73.81897 48.843384 26.889038 -2.3162842 -37.161255 -82.07703 -133.03528 -182.3822 -211.99036 -228.70789 -198.7976 -149.34998 -123.16589 -107.55615 -88.11951 -43.304443 -33.83789 -34.744263 -27.090454 -20.74585 4.4311523 -9.365845 -49.54834 22.558594 -22.76001 10.473633 -12.588501 -7.0495605 -4.7332764 -2.7191162 7.0495605 18.73169 28.500366 45.822144 48.742676 -43.103027 6.3446045 -80.4657 -20.343018 -14.099121 -19.537354 -24.673462 -17.926025 -25.479126 -26.687622 -24.472046 -16.21399 8.459473 9.063721 -0.80566406 12.789917 16.818237 33.636475 1.7120361 36.35559 34.240723 57.302856 48.138428 59.61914 68.88428 80.86853 47.53418 110.6781 183.48999 214.00452 256.90613 255.19409 267.17834 249.75586 212.79602 155.39246 197.89124 175.63477 113.1958 152.47192 87.01172 33.636475 -49.346924 -98.0896 -179.66309 -223.06824 -253.38135 -276.6449 -305.95093 -301.62048 -264.76135 -243.9148 -205.84717 -158.71582 -117.022705 -84.49402 -56.69861 -38.067627 -14.602661 -21.652222 -9.567261 -7.3516846 -5.5389404 -5.0354004 -29.507446 -17.019653 -55.288696 -45.318604 -19.940186 -47.03064 -12.185669 -4.6325684 13.796997 23.364258 31.521606 -35.147095 0.10070801 -32.32727 -44.0094 5.1361084 -81.7749 -24.673462 -40.283203 -21.148682 -53.67737 -22.25647 -45.318604 -23.364258 5.9417725 12.890625 19.436646 16.113281 22.357178 17.120361 19.033813 20.443726 38.87329 49.145508 60.021973 41.592407 36.35559 70.59631 107.455444 152.06909 187.61902 237.7716 272.11304 247.23816 265.86914 250.3601 255.09338 220.44983 170.80078 119.036865 84.79614 7.8552246 -3.8269043 -65.76233 -206.65283 -259.72595 -489.2395 -358.4198 -321.8628 -250.2594 -214.81018 -164.55688 -140.48767 -128.90625 -119.84253 -79.660034 -33.535767 4.4311523 36.154175 59.61914 69.38782 72.30835 95.269775 159.01794 234.24683 301.62048 298.1964 
-3108.252 -3093.045 -3078.3416 -3064.2424 -3049.8413 -3035.44 -3021.2402 -2294.229 370.40405 3018.219 3299.8992 3299.8992 3299.8992 3299.8992 3299.8992 3299.8992 3299.8992 3299.8992 3299.8992 3299.8992 3299.8992 3299.8992 3299.8992 3299.8992 3299.8992 3299.8992 3299.8992 1290.6738 3299.8992 -3280.7646 -3264.2485 -3247.9338 -3231.9214 -3215.9087 -3200.0977 -3184.3872 -3168.8782 -3153.5706 -3138.3635 -3123.3582 -3108.4534 -3093.9514 -3079.4495 -3064.4438 -3050.0427 -3035.9436 -3021.945 -2382.1472 235.55603 2918.82 3299.8992 3299.8992 3299.8992 3299.8992 3299.8992 3299.8992 3299.8992 3299.8992 3299.8992 3299.8992 3299.8992 3299.8992 3299.8992 3299.8992 3299.8992 3299.8992 3299.8992 894.68994 3299.8992 -3279.3547 -3262.738 -3246.3225 -3230.31 -3214.2974 -3198.587 -3182.9773 -3167.3674 -3152.1606 -3136.853 -3121.8474 -3106.9426 -3091.8364 -3077.133 -3063.1348 -3048.7334 -3034.2314 -3020.1323 -2349.3164 267.7826 2944.4 3299.8992 3299.8992 3299.8992 3299.8992 3299.8992 3299.8992 3299.8992 3299.8992 3299.8992 3299.8992 3299.8992 3299.8992 3299.8992 3299.8992 3299.8992 3299.8992 3299.8992 504.245 -3293.3533 -3276.535 -3260.1196 -3243.805 -3227.5908 -3211.679 -3195.9685 -3180.258 -3164.749 -3149.5422 -3134.3352 -3119.3298 -3104.425 -3090.0237 -3075.0183 -3060.9192 -3046.5178 -3032.1167 -3018.1182 -2065.6218 494.87915 3068.875 3299.8992 3299.8992 3299.8992 3299.8992 3299.8992 3299.8992 3299.8992 3299.8992 3299.8992 3299.8992 3299.8992 3299.8992 3299.8992 3299.8992 3299.8992 3299.8992 3299.8992 158.81653 -3293.1519 -3276.4343 -3260.0188 -3243.805 -3227.6917 -3211.5784 -3195.868 -3180.258 -3164.749 -3149.4414 -3134.3352 -3119.3298 -3104.425 -3089.4194 -3075.2197 -3060.315 -3046.0144 -3031.9153 -3017.9167 -1977.8046 626.4038 3299.8992 3299.8992 3299.8992 3299.8992 3299.8992 3299.8992 3299.8992 3299.8992 3299.8992 3299.8992 3299.8992 3299.8992 3299.8992 3299.8992 3299.8992 3299.8992 3299.8992 3299.8992 -416.52832 -3293.051 -3276.3335 -3259.9182 -3243.704 -3227.3894 -3211.5784 -3195.767 -3180.258 -3164.749 -3149.4414 -3134.2346 -3119.3298 
-3145.816 -3132.019 -3117.92 -3104.1228 -3090.5273 -3076.831 -3063.5376 -1503.067 771.62476 2894.4487 3299.8992 3299.8992 3299.8992 3299.8992 3299.8992 3299.8992 3299.8992 3299.8992 3299.8992 3299.8992 3299.8992 3299.8992 3299.8992 3299.8992 3299.8992 3293.1519 3277.1392 1024.5026 3276.4343 3292.4468 3299.8992 -3276.7363 -3261.6301 -3246.6248 -3231.72 -3216.9158 -3202.4138 -3187.9119 -3173.6113 -3159.2102 -3145.111 -3131.4148 -3117.3157 -3103.5186 -3089.8223 -3076.6296 -3062.9333 -1365.1978 1004.4617 3139.4714 3299.8992 3299.8992 3299.8992 3299.8992 3299.8992 3299.8992 3299.8992 3299.8992 3299.8992 3299.8992 3299.8992 3299.8992 3299.8992 3299.8992 3299.8992 3290.9363 3275.2258 644.2291 3275.9307 3291.742 3299.8992 -3277.3406 -3262.1338 -3247.1282 -3232.3242 -3217.4194 -3202.9175 -3188.4155 -3174.0142 -3159.8145 -3145.7153 -3131.4148 -3117.819 -3104.0222 -3090.4265 -3077.234 -3060.1135 -918.55774 1572.4548 3299.8992 3299.8992 3299.8992 3299.8992 3299.8992 3299.8992 3299.8992 3299.8992 3299.8992 3299.8992 3299.8992 3299.8992 3299.8992 3299.8992 3299.8992 3299.7986 3284.9944 3268.982 687.23145 3270.0896 3285.498 3299.8992 -3283.2825 -3268.2769 -3252.9692 -3238.0645 -3223.5625 -3208.96 -3194.1558 -3179.956 -3165.5547 -3151.355 -3137.5579 -3123.761 -3109.561 -3095.8647 -2950.241 -2698.7732 -1005.1666 1253.6133 3299.8992 3299.8992 3299.8992 3299.8992 3299.8992 3299.8992 3299.8992 3299.8992 3299.8992 3299.8992 3299.8992 3299.8992 3299.8992 3299.8992 3299.8992 3296.0723 3281.2683 3265.155 -723.4863 3270.5933 3286.203 3299.8992 -3282.7788 -3267.874 -3252.4658 -3237.7625 -3223.059 -3208.1543 -3193.753 -3179.5532 -3165.0513 -3150.8513 -3137.155 -3122.9553 -3109.1582 -3095.462 -3082.1685 -3068.4722 -1445.5627 883.2092 3058.5022 3299.8992 3299.8992 3299.8992 3299.8992 3299.8992 3299.8992 3299.8992 3299.8992 3299.8992 3299.8992 3299.8992 3299.8992 3299.8992 3299.8992 3299.8992 3286.8071 3270.996 -313.0005 3274.7222 3290.4326 3299.8992 -3278.65 -3263.5437 -3248.538 -3233.6333 -3218.8293 -3204.2266 -3189.7246 -3175.424 -3161.2244 
3185.3943 3170.8923 3155.9875 3141.8884 3127.3865 3112.4817 2430.5876 437.17346 -1308.197 -2546.0999 3122.8545 3138.6658 3154.3762 3169.9858 3185.4949 3200.702 3216.0095 3231.2163 3246.222 3261.3281 3276.132 3291.0369 3299.8992 -3279.4556 -3264.9536 -3250.653 -3235.9497 -695.0867 3299.8992 3299.8992 3299.8992 3299.8992 3299.8992 3289.224 3274.5208 3259.8174 3244.9126 3230.0078 3215.2039 3200.5005 3185.8977 3171.2952 3156.8938 3142.5933 3128.3936 3112.8845 2443.0754 504.04358 -1149.4812 -2407.8276 3122.2502 3138.0615 3153.772 3169.3816 3184.8906 3200.0977 3215.3044 3230.5115 3245.5168 3260.623 3275.6287 3290.4326 3299.8992 -3280.664 -3265.6584 -3251.2573 -3237.1582 -635.76965 3299.8992 3299.8992 3299.8992 3299.8992 3299.8992 3288.4185 3273.715 3258.9111 3244.107 3229.303 3214.4988 3199.7954 3185.1929 3170.59 3155.7861 3141.5862 3127.0842 3110.568 2234.5093 249.35303 -1415.5518 -2637.7441 3125.171 3141.0828 3156.7932 3172.3022 3187.7104 3203.119 3218.3257 3233.432 3248.639 3263.5437 3278.549 3293.2524 -3291.742 -3277.0386 -3262.738 -3248.4375 -3233.7341 -165.06042 3299.8992 3299.8992 3299.8992 3299.8992 3299.8992 3289.325 3274.5208 3259.7168 3245.0134 3230.1086 3215.3044 3200.601 3185.8977 3171.2952 3156.8938 3142.3918 3128.595 3111.676 2365.8325 510.5896 -1105.8746 -2270.3613 3139.0686 3137.155 3152.8655 3168.4753 3183.8835 3199.292 3214.5996 3229.7058 3244.812 3259.8174 3274.7222 3289.7278 3299.8992 -3281.369 -3266.464 -3251.9622 -3238.0645 -101.01013 3299.8992 3299.8992 3299.8992 3299.8992 3299.8992 3285.5986 3270.8953 3256.0913 3241.287 3226.4832 3211.7798 3196.9756 3182.373 3167.7703 3152.9663 3138.8672 3124.2644 3106.9426 2191.6077 154.98962 -1443.8507 -2617.4011 3123.3582 3139.1692 3154.8796 3170.4895 3185.8977 3201.2053 3216.513 3231.72 3246.6248 3261.731 3276.6357 3291.4397 3299.8992 -3279.0527 -3264.6514 -3250.2502 -3235.446 430.2246 3299.8992 3299.8992 3299.8992 3299.8992 3299.8992 3285.2966 3270.4924 3255.5876 3240.8843 3226.0803 3211.2761 3196.6736 
-2998.9836 -2984.9854 -2971.1882 -2957.5928 -2944.098 -2930.7036 -2917.4102 -2080.9294 -927.52075 347.0398 1333.4747 2475.302 3299.8992 3299.8992 3299.8992 3299.8992 3299.8992 3299.8992 3299.8992 3299.8992 3299.8992 3299.8992 3299.8992 3299.8992 3299.8992 3299.8992 3299.8992 2846.3103 -3037.2527 -3160.0159 -3144.6074 -3129.2998 -3114.2944 -3099.3896 -3084.5854 -3070.0835 -3055.5815 -3041.281 -3027.0813 -3012.8813 -2998.883 -2984.9854 -2971.0876 -2957.5928 -2944.098 -2930.7036 -2917.3096 -2341.7632 -1009.09424 347.54333 1425.3204 2602.295 3299.8992 3299.8992 3299.8992 3299.8992 3299.8992 3299.8992 3299.8992 3299.8992 3299.8992 3299.8992 3299.8992 3299.8992 3299.8992 3299.8992 3299.8992 2657.1807 -3174.115 -3158.3037 -3142.8955 -3127.89 -3112.7837 -3097.879 -3083.1755 -3068.573 -3054.071 -3039.7705 -3025.5706 -3011.4714 -2997.3723 -2983.5754 -2969.9797 -2956.1829 -2942.5872 -2929.0923 -2915.8997 -2008.3191 -588.739 917.9535 1966.7267 3026.2756 3299.8992 3299.8992 3299.8992 3299.8992 3299.8992 3299.8992 3299.8992 3299.8992 3299.8992 3299.8992 3299.8992 3299.8992 3299.8992 3299.8992 3299.8992 2479.2297 -3181.2651 -3165.5547 -3150.0457 -3134.8389 -3119.8333 -3104.9285 -3090.1245 -3075.5217 -3061.0198 -3046.6187 -3032.4187 -3018.3196 -3004.2205 -2990.3228 -2976.9287 -2963.031 -2949.3347 -2935.739 -2922.4456 -2402.0874 -1118.0603 332.0343 1404.3732 2489.1997 3299.8992 3299.8992 3299.8992 3299.8992 3299.8992 3299.8992 3299.8992 3299.8992 3299.8992 3299.8992 3299.8992 3299.8992 3299.8992 3299.8992 3299.8992 2547.2075 -3176.4312 -3160.5193 -3145.111 -3129.904 -3114.7979 -3099.994 -3085.1897 -3070.6877 -3056.1858 -3041.8853 -3027.5847 -3013.4856 -2999.4873 -2985.6902 -2971.7925 -2958.2976 -2944.7021 -2931.4087 -2918.0144 -2318.6003 -988.2477 623.08044 1636.203 2756.3782 3299.8992 3299.8992 3299.8992 3299.8992 3299.8992 3299.8992 3299.8992 3299.8992 3299.8992 3299.8992 3299.8992 3299.8992 3299.8992 3299.8992 3299.8992 2318.9026 -3175.9277 -3160.1165 -3144.7083 -3129.5012 -3114.395 -3099.4902 -3084.7869 -3070.0835 -3055.783 -3041.3818 -3027.2827 -3013.0828 
3136.9536 3121.9482 3107.0435 3092.1387 3077.234 3052.7617 2083.9507 130.92041 -739.801 -1637.1094 -2504.4067 -3154.8796 3096.6704 3113.388 3130.1055 3146.4202 3162.8357 3179.1504 3195.1628 3211.1755 3227.188 3242.8984 3258.9111 3274.6216 3290.1306 3299.8992 -3279.1533 -1288.559 3299.8992 3299.8992 3291.9434 3276.9377 3261.731 3246.524 3231.3171 3216.0095 3200.702 3185.3943 3169.8853 3154.3762 3139.27 3124.063 3109.259 3094.2534 3079.3486 3052.7617 2083.5479 264.45923 -495.88623 -1357.544 -2277.411 -2952.4565 3093.6492 3110.3667 3126.9836 3143.4998 3159.8145 3176.0283 3192.2424 3208.3557 3224.2676 3240.0786 3256.192 3271.8018 3287.21 3299.8992 -3281.7717 -1114.3341 3299.8992 3299.8992 3288.3179 3273.3123 3258.1055 3242.8984 3227.6917 3212.4846 3197.177 3181.7688 3166.3604 3150.9521 3135.846 3120.639 3105.9355 3090.9302 3076.0254 3023.1536 1988.4796 103.326416 -788.6444 -1722.5098 -2644.7937 -3259.4146 3097.9797 3114.7979 3131.314 3147.83 3164.2456 3180.4595 3196.3713 3212.4846 3228.3965 3244.3083 3260.4216 3275.83 3291.339 3299.8992 -3277.8442 -830.43823 3299.8992 3299.8992 3290.7349 3275.6287 3260.4216 3245.3154 3230.1086 3214.9016 3199.4934 3184.085 3168.6768 3153.1677 3138.0615 3122.8545 3107.6477 3093.045 3078.3416 2983.5754 1842.7551 38.067627 -745.6421 -1683.6365 -2565.7378 -3193.9543 3100.296 3117.1143 3133.5295 3149.945 3166.2598 3182.373 3198.6877 3214.5996 3230.5115 3246.4233 3261.731 3277.8442 3293.5547 -3291.0369 -3275.6287 -661.04736 3299.8992 3299.8992 3292.044 3276.9377 3261.731 3246.524 3231.1157 3215.9087 3200.601 3185.1929 3169.6838 3154.2754 3139.27 3124.1638 3108.554 3094.1528 3079.3486 3010.3638 1839.2303 119.94324 -622.5769 -1477.5879 -2441.162 -3220.5413 3098.886 3115.805 3132.321 3148.6357 3164.9504 3181.1646 3197.4792 3213.4917 3229.303 3245.3154 3260.5225 3276.7363 3292.3462 3299.8992 -3276.7363 -262.7472 3299.8992 3299.8992 3288.6199 3273.6145 3258.4075 3243.2007 3227.9937 3212.686 3197.3784 3182.0708 3166.4612 3151.0527 
