wall_time,elapsed_s,F1_N,F2_N
2026-07-23T16:01:04.727,125.7042,-1.3086,-0.7033
2026-07-23T16:01:04.727,125.7042,-1.4456,-0.7425
2026-07-23T16:01:04.741,125.7042,-1.2303,-0.7425
2026-07-23T16:01:04.750,125.7356,-1.5436,-0.7425
2026-07-23T16:01:04.755,125.7356,-1.4065,-0.7033
2026-07-23T16:01:04.771,125.7635,-1.5044,-0.8404
2026-07-23T16:01:04.786,125.7655,-1.3869,-0.7229
2026-07-23T16:01:04.786,125.7675,-1.4261,-0.7621
2026-07-23T16:01:04.803,125.7909,-1.3869,-0.7033
2026-07-23T16:01:04.812,125.7909,-1.4456,-0.7033
2026-07-23T16:01:04.820,125.8145,-1.4065,-0.7229
2026-07-23T16:01:04.820,125.8192,-1.4456,-0.7425
2026-07-23T16:01:04.842,125.8192,-1.3673,-0.7033
2026-07-23T16:01:04.852,125.8477,-1.4456,-0.7621
2026-07-23T16:01:04.865,125.8477,-1.3869,-0.7033
2026-07-23T16:01:04.870,125.8477,-1.3869,-0.6642
2026-07-23T16:01:04.883,125.8754,-1.4456,-0.7425
2026-07-23T16:01:04.897,125.8772,-1.4848,-0.625
2026-07-23T16:01:04.898,125.8772,-1.4261,-0.7229
2026-07-23T16:01:04.912,125.8986,-1.4261,-0.7033
2026-07-23T16:01:04.916,125.8986,-1.3673,-0.7033
2026-07-23T16:01:04.928,125.9087,-1.5044,-0.7229
2026-07-23T16:01:04.949,125.9321,-1.3477,-0.7229
2026-07-23T16:01:04.949,125.9321,-1.4848,-0.6838
2026-07-23T16:01:04.959,125.9384,-1.3086,-0.7033
2026-07-23T16:01:04.959,125.9585,-1.5044,-0.7033
2026-07-23T16:01:04.983,125.9585,-1.3282,-0.7229
2026-07-23T16:01:04.989,125.968,-1.4848,-0.7033
2026-07-23T16:01:05.009,125.9919,-1.289,-0.7033
2026-07-23T16:01:05.009,125.9919,-1.5827,-0.7229
2026-07-23T16:01:05.019,126.0209,-1.3477,-0.625
2026-07-23T16:01:05.023,126.0209,-1.524,-0.7033
2026-07-23T16:01:05.043,126.0209,-1.3477,-0.6838
2026-07-23T16:01:05.056,126.0517,-1.5436,-0.7621
2026-07-23T16:01:05.070,126.0517,-1.3869,-0.6838
2026-07-23T16:01:05.072,126.0517,-1.4652,-0.7425
2026-07-23T16:01:05.081,126.0585,-1.3282,-0.7425
2026-07-23T16:01:05.089,126.081,-1.4848,-0.7621
2026-07-23T16:01:05.101,126.081,-1.4456,-0.6838
2026-07-23T16:01:05.109,126.0986,-1.4652,-0.6642
2026-07-23T16:01:05.118,126.0986,-1.4065,-0.7425
2026-07-23T16:01:05.118,126.1132,-1.4456,-0.7621
2026-07-23T16:01:05.132,126.1158,-1.3673,-0.6838
2026-07-23T16:01:05.149,126.1351,-1.4456,-0.6642
2026-07-23T16:01:05.149,126.1351,-1.4456,-0.7033
2026-07-23T16:01:05.167,126.1653,-1.4456,-0.7033
2026-07-23T16:01:05.186,126.1653,-1.3086,-0.6446
2026-07-23T16:01:05.186,126.1653,-1.4652,-0.7033
2026-07-23T16:01:05.196,126.1767,-1.3869,-0.8012
2026-07-23T16:01:05.211,126.1923,-1.4848,-0.7033
2026-07-23T16:01:05.216,126.1923,-1.289,-0.7817
2026-07-23T16:01:05.227,126.2182,-1.4848,-0.6838
2026-07-23T16:01:05.227,126.2182,-1.3673,-0.7229
2026-07-23T16:01:05.250,126.2394,-1.5631,-0.6838
2026-07-23T16:01:05.259,126.2394,-1.289,-0.6838
2026-07-23T16:01:05.269,126.2394,-1.524,-0.7033
2026-07-23T16:01:05.283,126.2742,-1.3282,-0.7229
2026-07-23T16:01:05.290,126.2742,-1.4652,-0.6446
2026-07-23T16:01:05.290,126.2742,-1.3477,-0.7621
2026-07-23T16:01:05.322,126.3028,-1.5631,-0.7229
2026-07-23T16:01:05.322,126.3028,-1.3086,-0.6642
2026-07-23T16:01:05.325,126.3028,-1.5436,-0.7033
2026-07-23T16:01:05.338,126.3188,-1.3477,-0.625
2026-07-23T16:01:05.338,126.3188,-1.524,-0.7229
2026-07-23T16:01:05.365,126.3512,-1.3673,-0.7033
2026-07-23T16:01:05.370,126.3512,-1.5436,-0.7621
2026-07-23T16:01:05.382,126.3512,-1.4652,-0.6642
2026-07-23T16:01:05.394,126.3662,-1.5044,-0.7817
2026-07-23T16:01:05.394,126.3662,-1.3869,-0.7033
2026-07-23T16:01:05.416,126.3988,-1.5436,-0.7229
2026-07-23T16:01:05.417,126.3988,-1.4456,-0.7033
2026-07-23T16:01:05.417,126.3988,-1.4848,-0.7033
2026-07-23T16:01:05.436,126.4289,-1.4848,-0.6838
2026-07-23T16:01:05.450,126.432,-1.4652,-0.7229
2026-07-23T16:01:05.450,126.432,-1.5044,-0.5663
2026-07-23T16:01:05.478,126.445,-1.524,-0.7229
2026-07-23T16:01:05.483,126.4591,-1.4652,-0.7817
2026-07-23T16:01:05.496,126.478,-1.4848,-0.7621
2026-07-23T16:01:05.496,126.478,-1.4848,-0.7817
2026-07-23T16:01:05.510,126.478,-1.5044,-0.7621
2026-07-23T16:01:05.529,126.5102,-1.524,-0.7425
2026-07-23T16:01:05.529,126.5102,-1.524,-0.7229
2026-07-23T16:01:05.543,126.5326,-1.5044,-0.7817
2026-07-23T16:01:05.549,126.5326,-1.6219,-0.7229
2026-07-23T16:01:05.561,126.5389,-1.4456,-0.7621
2026-07-23T16:01:05.572,126.5673,-1.661,-0.7425
2026-07-23T16:01:05.575,126.5693,-1.3869,-0.8012
2026-07-23T16:01:05.591,126.5724,-1.6219,-0.8012
2026-07-23T16:01:05.603,126.5938,-1.5044,-0.8208
2026-07-23T16:01:05.616,126.5938,-1.661,-0.7621
2026-07-23T16:01:05.620,126.5987,-1.4848,-0.8012
2026-07-23T16:01:05.632,126.6233,-1.6415,-0.7817
2026-07-23T16:01:05.639,126.6253,-1.5631,-0.8208
2026-07-23T16:01:05.649,126.6274,-1.6806,-0.8012
2026-07-23T16:01:05.656,126.6355,-1.4456,-0.7425
2026-07-23T16:01:05.670,126.6355,-1.7002,-0.7621
2026-07-23T16:01:05.686,126.6672,-1.5631,-0.7425
2026-07-23T16:01:05.686,126.6772,-1.7785,-0.8404
2026-07-23T16:01:05.702,126.6772,-1.5044,-0.7621
2026-07-23T16:01:05.712,126.7003,-1.7589,-0.8208
2026-07-23T16:01:05.718,126.7003,-1.5631,-0.7817
2026-07-23T16:01:05.728,126.7003,-1.7002,-0.8208
2026-07-23T16:01:05.749,126.7211,-1.6023,-0.7425
2026-07-23T16:01:05.751,126.7211,-1.6806,-0.8796
2026-07-23T16:01:05.765,126.7515,-1.661,-0.86
2026-07-23T16:01:05.772,126.7515,-1.6806,-0.8208
2026-07-23T16:01:05.772,126.7515,-1.6806,-0.8012
2026-07-23T16:01:05.797,126.7791,-1.7198,-0.8991
2026-07-23T16:01:05.802,126.7791,-1.661,-0.8404
2026-07-23T16:01:05.813,126.8023,-1.6806,-0.8208
2026-07-23T16:01:05.816,126.8023,-1.661,-0.86
2026-07-23T16:01:05.830,126.8023,-1.6219,-0.8012
2026-07-23T16:01:05.841,126.8321,-1.7002,-0.8012
2026-07-23T16:01:05.845,126.8336,-1.6806,-0.8404
2026-07-23T16:01:05.861,126.8573,-1.6806,-0.8012
2026-07-23T16:01:05.861,126.8593,-1.7002,-0.7621
2026-07-23T16:01:05.877,126.8632,-1.6023,-0.86
2026-07-23T16:01:05.884,126.8859,-1.7394,-0.8404
2026-07-23T16:01:05.908,126.889,-1.6023,-0.8796
2026-07-23T16:01:05.910,126.892,-1.7589,-0.8208
2026-07-23T16:01:05.924,126.905,-1.5827,-0.86
2026-07-23T16:01:05.924,126.9186,-1.7589,-0.7425
2026-07-23T16:01:05.943,126.9207,-1.5631,-0.9383
2026-07-23T16:01:05.950,126.9363,-1.7589,-0.8208
2026-07-23T16:01:05.956,126.9363,-1.4652,-0.86
2026-07-23T16:01:05.971,126.9363,-1.7589,-0.8208
2026-07-23T16:01:05.983,126.9691,-1.6023,-0.7621
2026-07-23T16:01:05.987,126.9736,-1.7002,-0.8404
2026-07-23T16:01:05.987,126.977,-1.5631,-0.7621
2026-07-23T16:01:06.010,127.0008,-1.7785,-0.8404
2026-07-23T16:01:06.020,127.0008,-1.6023,-1.0558
2026-07-23T16:01:06.030,127.0008,-1.7981,-0.7817
2026-07-23T16:01:06.035,127.0304,-1.5044,-0.7817
2026-07-23T16:01:06.052,127.0319,-1.7981,-0.8208
2026-07-23T16:01:06.066,127.0526,-1.6219,-0.7229
2026-07-23T16:01:06.071,127.0526,-1.7198,-0.7425
2026-07-23T16:01:06.083,127.0594,-1.6415,-0.8012
2026-07-23T16:01:06.085,127.0796,-1.6806,-0.7229
2026-07-23T16:01:06.103,127.0796,-1.661,-0.7817
2026-07-23T16:01:06.113,127.0796,-1.7002,-0.7621
2026-07-23T16:01:06.130,127.1099,-1.661,-0.7229
2026-07-23T16:01:06.130,127.1099,-1.7394,-0.7425
2026-07-23T16:01:06.130,127.1099,-1.7002,-0.7229
2026-07-23T16:01:06.149,127.1439,-1.6806,-0.6446
2026-07-23T16:01:06.161,127.1439,-1.661,-0.7621
2026-07-23T16:01:06.161,127.1699,-1.7002,-0.6838
2026-07-23T16:01:06.181,127.1733,-1.661,-0.7033
2026-07-23T16:01:06.192,127.1733,-1.6806,-0.6446
2026-07-23T16:01:06.195,127.1988,-1.6806,-0.625
2026-07-23T16:01:06.208,127.1988,-1.6219,-0.6446
2026-07-23T16:01:06.224,127.2048,-1.6023,-0.6446
2026-07-23T16:01:06.229,127.2048,-1.6023,-0.5467
2026-07-23T16:01:06.240,127.232,-1.3673,-0.5663
2026-07-23T16:01:06.250,127.2352,-1.4065,-0.5075
2026-07-23T16:01:06.269,127.2603,-1.2498,-0.5271
2026-07-23T16:01:06.276,127.2635,-1.4261,-0.4684
2026-07-23T16:01:06.283,127.2635,-1.1715,-0.488
2026-07-23T16:01:06.287,127.2838,-1.4065,-0.4684
2026-07-23T16:01:06.303,127.2838,-1.1911,-0.5075
2026-07-23T16:01:06.314,127.2838,-1.3477,-0.488
2026-07-23T16:01:06.321,127.3194,-1.2303,-0.5467
2026-07-23T16:01:06.335,127.3194,-1.3869,-0.5859
2026-07-23T16:01:06.335,127.3194,-1.2303,-0.4684
2026-07-23T16:01:06.354,127.3487,-1.4848,-0.5271
2026-07-23T16:01:06.366,127.3487,-1.2694,-0.6446
2026-07-23T16:01:06.370,127.3487,-1.4848,-0.5271
2026-07-23T16:01:06.386,127.3791,-1.3086,-0.625
2026-07-23T16:01:06.397,127.3791,-1.524,-0.6838
2026-07-23T16:01:06.400,127.3791,-1.3869,-0.5663
2026-07-23T16:01:06.416,127.3989,-1.4848,-0.6642
2026-07-23T16:01:06.416,127.4099,-1.4848,-0.6838
2026-07-23T16:01:06.437,127.4099,-1.4261,-0.7033
2026-07-23T16:01:06.445,127.436,-1.5044,-0.6642
2026-07-23T16:01:06.450,127.436,-1.4065,-0.6642
2026-07-23T16:01:06.461,127.4415,-1.4456,-0.5859
2026-07-23T16:01:06.461,127.4695,-1.4456,-0.625
2026-07-23T16:01:06.483,127.4733,-1.4456,-0.625
2026-07-23T16:01:06.492,127.4733,-1.4065,-0.6054
2026-07-23T16:01:06.492,127.4988,-1.3673,-0.6054
2026-07-23T16:01:06.510,127.5051,-1.3869,-0.6446
2026-07-23T16:01:06.524,127.5051,-1.3869,-0.7033
2026-07-23T16:01:06.524,127.5321,-1.3477,-0.6838
2026-07-23T16:01:06.541,127.5361,-1.4261,-0.7033
2026-07-23T16:01:06.550,127.5361,-1.4065,-0.5859
2026-07-23T16:01:06.562,127.5388,-1.3673,-0.7425
2026-07-23T16:01:06.562,127.5676,-1.4456,-0.7229
2026-07-23T16:01:06.585,127.5676,-1.289,-0.7621
2026-07-23T16:01:06.590,127.5676,-1.4456,-0.7033
2026-07-23T16:01:06.611,127.5987,-1.3086,-0.7621
2026-07-23T16:01:06.611,127.5987,-1.5044,-0.6446
2026-07-23T16:01:06.618,127.5997,-1.3477,-0.7033
2026-07-23T16:01:06.635,127.6154,-1.4848,-0.6054
2026-07-23T16:01:06.635,127.6292,-1.289,-0.7817
2026-07-23T16:01:06.651,127.6322,-1.3869,-0.7229
2026-07-23T16:01:06.662,127.6473,-1.4065,-0.7425
2026-07-23T16:01:06.666,127.6473,-1.5044,-0.8012
2026-07-23T16:01:06.683,127.662,-1.4261,-0.7229
2026-07-23T16:01:06.692,127.6782,-1.524,-0.7425
2026-07-23T16:01:06.698,127.6782,-1.4065,-0.7229
2026-07-23T16:01:06.714,127.6942,-1.5436,-0.7621
2026-07-23T16:01:06.716,127.7099,-1.3477,-0.7621
2026-07-23T16:01:06.729,127.7099,-1.4848,-0.8012
2026-07-23T16:01:06.745,127.7224,-1.3869,-0.7425
2026-07-23T16:01:06.749,127.7416,-1.4261,-0.7033
2026-07-23T16:01:06.761,127.7498,-1.3673,-0.7033
2026-07-23T16:01:06.771,127.7529,-1.3673,-0.7817
2026-07-23T16:01:06.783,127.7731,-1.4065,-0.7621
2026-07-23T16:01:06.792,127.7731,-1.3477,-0.8012
2026-07-23T16:01:06.801,127.7731,-1.3673,-0.7229
2026-07-23T16:01:06.824,127.81,-1.3282,-0.7425
2026-07-23T16:01:06.824,127.81,-1.3477,-0.7425
2026-07-23T16:01:06.824,127.81,-1.3673,-0.6642
2026-07-23T16:01:06.840,127.8375,-1.3477,-0.7817
2026-07-23T16:01:06.856,127.8375,-1.4652,-0.7229
2026-07-23T16:01:06.861,127.8452,-1.3477,-0.7621
2026-07-23T16:01:06.872,127.8678,-1.3673,-0.7817
2026-07-23T16:01:06.887,127.8678,-1.3477,-0.7817
2026-07-23T16:01:06.888,127.8678,-1.3282,-0.7229
2026-07-23T16:01:06.906,127.9003,-1.3673,-0.7621
2026-07-23T16:01:06.916,127.9003,-1.289,-0.7621
2026-07-23T16:01:06.919,127.907,-1.3086,-0.7817
2026-07-23T16:01:06.931,127.9113,-1.3282,-0.7033
2026-07-23T16:01:06.950,127.9319,-1.2303,-0.7621
2026-07-23T16:01:06.951,127.9378,-1.3282,-0.7425
2026-07-23T16:01:06.962,127.9378,-1.2107,-0.8208
2026-07-23T16:01:06.966,127.9618,-1.289,-0.6838
2026-07-23T16:01:06.981,127.9618,-1.1715,-0.7817
2026-07-23T16:01:06.989,127.9737,-1.289,-0.7425
2026-07-23T16:01:06.997,127.995,-1.1715,-0.7621
2026-07-23T16:01:07.013,127.9987,-1.2498,-0.7229
2026-07-23T16:01:07.024,127.9987,-1.1519,-0.7621
2026-07-23T16:01:07.028,128.012,-1.2107,-0.7033
2026-07-23T16:01:07.028,128.0276,-1.1128,-0.6838
2026-07-23T16:01:07.049,128.0322,-1.0736,-0.6446
2026-07-23T16:01:07.063,128.0536,-1.0149,-0.6838
2026-07-23T16:01:07.063,128.0566,-1.1324,-0.6838
2026-07-23T16:01:07.083,128.0599,-0.9953,-0.7229
2026-07-23T16:01:07.092,128.0726,-1.1519,-0.7621
2026-07-23T16:01:07.111,128.0923,-0.9561,-0.7033
2026-07-23T16:01:07.111,128.0923,-1.054,-0.8404
2026-07-23T16:01:07.123,128.1048,-0.9953,-0.7817
2026-07-23T16:01:07.143,128.1223,-0.9757,-0.8012
2026-07-23T16:01:07.143,128.1223,-0.917,-0.7621
2026-07-23T16:01:07.150,128.1384,-0.9561,-0.8208
2026-07-23T16:01:07.156,128.1533,-1.0345,-0.7425
2026-07-23T16:01:07.173,128.1572,-0.9561,-0.7817
2026-07-23T16:01:07.173,128.1821,-1.0736,-0.8208
2026-07-23T16:01:07.189,128.1863,-0.917,-0.8012
2026-07-23T16:01:07.189,128.1884,-0.9757,-0.8012
2026-07-23T16:01:07.211,128.1988,-0.8386,-0.8208
2026-07-23T16:01:07.218,128.2168,-0.9953,-0.8404
2026-07-23T16:01:07.237,128.2211,-0.917,-0.8208
2026-07-23T16:01:07.245,128.2238,-0.9757,-0.8208
2026-07-23T16:01:07.250,128.2417,-0.9365,-0.7621
2026-07-23T16:01:07.268,128.2522,-0.917,-0.8012
2026-07-23T16:01:07.275,128.2522,-0.8778,-0.8208
2026-07-23T16:01:07.290,128.2782,-0.8582,-0.86
2026-07-23T16:01:07.293,128.2782,-0.8386,-0.8208
2026-07-23T16:01:07.303,128.2782,-0.8974,-0.7817
2026-07-23T16:01:07.313,128.3041,-0.9561,-0.8012
2026-07-23T16:01:07.316,128.3098,-0.8191,-0.86
2026-07-23T16:01:07.329,128.3129,-0.9365,-0.8404
2026-07-23T16:01:07.345,128.3412,-0.8386,-0.8796
2026-07-23T16:01:07.355,128.3457,-0.917,-0.8012
2026-07-23T16:01:07.361,128.3486,-0.8386,-0.8796
2026-07-23T16:01:07.376,128.382,-0.9365,-0.8208
2026-07-23T16:01:07.383,128.3843,-0.8386,-0.8208
2026-07-23T16:01:07.396,128.3884,-0.8778,-0.8404
2026-07-23T16:01:07.399,128.3884,-0.7603,-0.8208
2026-07-23T16:01:07.423,128.4201,-0.7603,-0.8012
2026-07-23T16:01:07.423,128.4201,-0.682,-0.7817
2026-07-23T16:01:07.435,128.4265,-0.7407,-0.7817
2026-07-23T16:01:07.439,128.4289,-0.6428,-0.6642
2026-07-23T16:01:07.456,128.4514,-0.7212,-0.7621
2026-07-23T16:01:07.456,128.4638,-0.6233,-0.7621
2026-07-23T16:01:07.471,128.4675,-0.6233,-0.7621
2026-07-23T16:01:07.486,128.4739,-0.5254,-0.7817
2026-07-23T16:01:07.502,128.4994,-0.5058,-0.7229
2026-07-23T16:01:07.502,128.4994,-0.4274,-0.625
2026-07-23T16:01:07.518,128.5004,-0.3295,-0.7033
2026-07-23T16:01:07.525,128.5082,-0.447,-0.5663
2026-07-23T16:01:07.525,128.5323,-0.3687,-0.7033
2026-07-23T16:01:07.534,128.5365,-0.4666,-0.6446
2026-07-23T16:01:07.551,128.54,-0.4079,-0.5663
2026-07-23T16:01:07.559,128.546,-0.5449,-0.5859
2026-07-23T16:01:07.566,128.572,-0.3687,-0.5859
2026-07-23T16:01:07.583,128.5777,-0.5254,-0.5859
2026-07-23T16:01:07.597,128.5839,-0.3883,-0.6446
2026-07-23T16:01:07.605,128.6106,-0.4666,-0.7033
2026-07-23T16:01:07.621,128.6147,-0.3295,-0.6446
2026-07-23T16:01:07.629,128.6147,-0.447,-0.5859
2026-07-23T16:01:07.635,128.6147,-0.3491,-0.6054
2026-07-23T16:01:07.644,128.6466,-0.447,-0.7033
2026-07-23T16:01:07.649,128.6513,-0.3883,-0.6446
2026-07-23T16:01:07.665,128.6584,-0.4862,-0.7229
2026-07-23T16:01:07.673,128.6656,-0.3883,-0.6838
2026-07-23T16:01:07.678,128.6917,-0.447,-0.7425
2026-07-23T16:01:07.692,128.6989,-0.4079,-0.7033
2026-07-23T16:01:07.702,128.6989,-0.4862,-0.7621
2026-07-23T16:01:07.715,128.7084,-0.447,-0.6642
2026-07-23T16:01:07.732,128.7443,-0.447,-0.6446
2026-07-23T16:01:07.742,128.7443,-0.447,-0.625
2026-07-23T16:01:07.750,128.7518,-0.2904,-0.7621
2026-07-23T16:01:07.764,128.7555,-0.3883,-0.6838
2026-07-23T16:01:07.764,128.7555,-0.3295,-0.7229
2026-07-23T16:01:07.772,128.7941,-0.4079,-0.6642
2026-07-23T16:01:07.791,128.7941,-0.3295,-0.6446
2026-07-23T16:01:07.791,128.7941,-0.3491,-0.7033
2026-07-23T16:01:07.806,128.807,-0.2904,-0.6642
2026-07-23T16:01:07.811,128.8511,-0.2904,-0.6642
2026-07-23T16:01:07.825,128.8584,-0.1533,-0.6054
2026-07-23T16:01:07.841,128.862,-0.1925,-0.6054
2026-07-23T16:01:07.845,128.8653,-0.1729,-0.5663
2026-07-23T16:01:07.856,128.8744,-0.1533,-0.5467
2026-07-23T16:01:07.865,128.8848,-0.2121,-0.5859
2026-07-23T16:01:07.879,128.9096,-0.1729,-0.5859
2026-07-23T16:01:07.892,128.9276,-0.1729,-0.6446
2026-07-23T16:01:07.892,128.9296,-0.1142,-0.6054
2026-07-23T16:01:07.909,128.9322,-0.2512,-0.6054
2026-07-23T16:01:07.916,128.9322,-0.075,-0.7229
2026-07-23T16:01:07.925,128.9433,-0.2316,-0.5663
2026-07-23T16:01:07.936,128.9433,-0.075,-0.7229
2026-07-23T16:01:07.945,128.9851,-0.1925,-0.5859
2026-07-23T16:01:07.960,128.9888,-0.1142,-0.6642
2026-07-23T16:01:07.960,128.9919,-0.0554,-0.6054
2026-07-23T16:01:07.978,128.9989,0.0033,-0.6054
2026-07-23T16:01:07.983,128.9989,-0.075,-0.6054
2026-07-23T16:01:07.994,128.9989,0.1012,-0.5663
2026-07-23T16:01:08.008,129.0387,-0.075,-0.6446
2026-07-23T16:01:08.011,129.0455,0.0621,-0.6054
2026-07-23T16:01:08.024,129.0473,0.0033,-0.5663
2026-07-23T16:01:08.040,129.0521,0.16,-0.5663
2026-07-23T16:01:08.043,129.0549,0.1208,-0.5859
2026-07-23T16:01:08.050,129.0606,0.1796,-0.5271
2026-07-23T16:01:08.059,129.0937,0.1991,-0.488
2026-07-23T16:01:08.087,129.1022,0.2775,-0.4684
2026-07-23T16:01:08.090,129.1022,0.2187,-0.5075
2026-07-23T16:01:08.096,129.1022,0.297,-0.5075
2026-07-23T16:01:08.103,129.1156,0.3558,-0.5075
2026-07-23T16:01:08.116,129.1156,0.3166,-0.4684
2026-07-23T16:01:08.135,129.1473,0.3166,-0.488
2026-07-23T16:01:08.135,129.1599,0.3754,-0.4684
2026-07-23T16:01:08.151,129.1633,0.3754,-0.488
2026-07-23T16:01:08.153,129.1653,0.3754,-0.4292
2026-07-23T16:01:08.166,129.1769,0.5124,-0.4292
2026-07-23T16:01:08.166,129.1818,0.6103,-0.4292
2026-07-23T16:01:08.189,129.2216,0.767,-0.4488
2026-07-23T16:01:08.198,129.2216,0.8845,-0.3705
2026-07-23T16:01:08.198,129.2264,1.0411,-0.39
2026-07-23T16:01:08.216,129.2323,1.139,-0.4292
2026-07-23T16:01:08.228,129.2384,1.2173,-0.3705
2026-07-23T16:01:08.233,129.2426,1.4131,-0.4684
2026-07-23T16:01:08.233,129.2729,1.2957,-0.4096
2026-07-23T16:01:08.262,129.282,1.4523,-0.4292
2026-07-23T16:01:08.262,129.282,1.2957,-0.4292
2026-07-23T16:01:08.277,129.2904,1.4915,-0.4684
2026-07-23T16:01:08.283,129.2944,1.3152,-0.3705
2026-07-23T16:01:08.293,129.3011,1.4131,-0.5271
2026-07-23T16:01:08.311,129.3396,1.3152,-0.4488
2026-07-23T16:01:08.324,129.3431,1.3936,-0.488
2026-07-23T16:01:08.333,129.3467,1.2369,-0.4488
2026-07-23T16:01:08.333,129.3467,1.4719,-0.5075
2026-07-23T16:01:08.352,129.3534,1.3152,-0.4292
2026-07-23T16:01:08.352,129.3534,1.4523,-0.488
2026-07-23T16:01:08.375,129.3936,1.2761,-0.488
2026-07-23T16:01:08.375,129.3959,1.4719,-0.4292
2026-07-23T16:01:08.390,129.4008,1.2957,-0.5075
2026-07-23T16:01:08.390,129.4008,1.3936,-0.5075
2026-07-23T16:01:08.404,129.4055,1.1782,-0.5271
2026-07-23T16:01:08.413,129.438,1.3348,-0.4488
2026-07-23T16:01:08.422,129.4434,1.1586,-0.4684
2026-07-23T16:01:08.435,129.4481,1.2565,-0.4096
2026-07-23T16:01:08.447,129.453,1.1586,-0.5271
2026-07-23T16:01:08.456,129.4582,1.2173,-0.4684
2026-07-23T16:01:08.464,129.4602,1.139,-0.5075
2026-07-23T16:01:08.478,129.4953,1.1586,-0.4488
2026-07-23T16:01:08.489,129.4989,1.1782,-0.4488
2026-07-23T16:01:08.494,129.503,1.0999,-0.5663
2026-07-23T16:01:08.504,129.5122,1.0803,-0.488
2026-07-23T16:01:08.511,129.5137,1.1194,-0.488
2026-07-23T16:01:08.528,129.5439,1.0411,-0.5075
2026-07-23T16:01:08.530,129.5554,0.9824,-0.488
2026-07-23T16:01:08.550,129.5625,0.9628,-0.4096
2026-07-23T16:01:08.554,129.5625,0.9824,-0.4096
2026-07-23T16:01:08.563,129.5655,0.9824,-0.3705
2026-07-23T16:01:08.567,129.599,0.904,-0.39
2026-07-23T16:01:08.595,129.6068,0.9236,-0.4096
2026-07-23T16:01:08.595,129.6068,0.8453,-0.2921
2026-07-23T16:01:08.595,129.6068,0.7474,-0.3117
2026-07-23T16:01:08.616,129.6227,0.7866,-0.3705
2026-07-23T16:01:08.625,129.6227,0.6887,-0.2334
2026-07-23T16:01:08.650,129.6607,0.767,-0.3313
2026-07-23T16:01:08.650,129.6607,0.6887,-0.2726
2026-07-23T16:01:08.650,129.6607,0.8257,-0.2726
2026-07-23T16:01:08.658,129.6717,0.6691,-0.2726
2026-07-23T16:01:08.673,129.6783,0.904,-0.2726
2026-07-23T16:01:08.683,129.726,0.6495,-0.2726
2026-07-23T16:01:08.700,129.7321,0.8649,-0.3117
2026-07-23T16:01:08.711,129.7392,0.6691,-0.2726
2026-07-23T16:01:08.711,129.7392,0.8845,-0.3117
2026-07-23T16:01:08.727,129.7513,0.767,-0.3117
2026-07-23T16:01:08.734,129.7588,0.904,-0.253
2026-07-23T16:01:08.746,129.7952,0.767,-0.2334
2026-07-23T16:01:08.764,129.7972,1.0019,-0.1942
2026-07-23T16:01:08.764,129.7987,0.8061,-0.253
2026-07-23T16:01:08.783,129.8035,0.9628,-0.253
2026-07-23T16:01:08.790,129.8075,0.8257,-0.3509
2026-07-23T16:01:08.797,129.8148,1.0215,-0.2138
2026-07-23T16:01:08.810,129.8173,0.7866,-0.253
2026-07-23T16:01:08.824,129.8587,0.8257,-0.2334
2026-07-23T16:01:08.831,129.8658,0.7082,-0.253
2026-07-23T16:01:08.831,129.8678,0.7866,-0.1355
2026-07-23T16:01:08.846,129.8745,0.6103,-0.1551
2026-07-23T16:01:08.854,129.8817,0.7278,-0.1551
2026-07-23T16:01:08.873,129.8889,0.7278,-0.1747
2026-07-23T16:01:08.873,129.8889,0.6887,-0.0963
2026-07-23T16:01:08.886,129.9256,0.7082,-0.1159
2026-07-23T16:01:08.898,129.9277,0.7474,-0.1942
2026-07-23T16:01:08.907,129.9323,0.6887,-0.0963
2026-07-23T16:01:08.923,129.9363,0.7474,-0.0963
2026-07-23T16:01:08.925,129.9394,0.767,-0.1355
2026-07-23T16:01:08.944,129.9506,0.7866,-0.1355
2026-07-23T16:01:08.944,129.9552,0.6887,-0.0963
2026-07-23T16:01:08.971,129.9968,0.8061,-0.1747
2026-07-23T16:01:08.971,129.9968,0.7278,-0.1159
2026-07-23T16:01:08.978,129.9988,0.8453,-0.2138
2026-07-23T16:01:08.983,130.0069,0.7866,-0.1551
2026-07-23T16:01:09.001,130.0169,0.8649,-0.2334
2026-07-23T16:01:09.004,130.0189,0.767,-0.1551
2026-07-23T16:01:09.036,130.061,0.9824,-0.1747
2026-07-23T16:01:09.038,130.0646,0.767,-0.1747
2026-07-23T16:01:09.038,130.0656,0.9628,-0.0572
2026-07-23T16:01:09.046,130.0716,0.8061,-0.0572
2026-07-23T16:01:09.060,130.0813,0.9824,-0.1159
2026-07-23T16:01:09.076,130.0813,0.7866,-0.1551
2026-07-23T16:01:09.076,130.088,0.9628,-0.1355
2026-07-23T16:01:09.100,130.1236,0.8257,-0.1159
2026-07-23T16:01:09.100,130.1273,1.0215,0.0016
2026-07-23T16:01:09.100,130.1273,0.8453,-0.1747
2026-07-23T16:01:09.112,130.1321,1.0215,-0.1747
2026-07-23T16:01:09.127,130.1321,0.8453,-0.1355
2026-07-23T16:01:09.139,130.1459,1.0411,-0.1551
2026-07-23T16:01:09.139,130.1479,0.9432,-0.2138
2026-07-23T16:01:09.155,130.181,1.0215,-0.1159
2026-07-23T16:01:09.162,130.181,1.0215,-0.1747
2026-07-23T16:01:09.178,130.1905,1.0803,-0.1159
2026-07-23T16:01:09.183,130.1915,1.0215,-0.1551
2026-07-23T16:01:09.194,130.1991,1.0803,-0.1159
2026-07-23T16:01:09.202,130.2372,1.0607,-0.1942
2026-07-23T16:01:09.226,130.2372,1.1586,-0.1159
2026-07-23T16:01:09.226,130.2461,1.0607,-0.0768
2026-07-23T16:01:09.232,130.2485,1.139,-0.0376
2026-07-23T16:01:09.242,130.2547,1.0999,-0.1159
2026-07-23T16:01:09.250,130.2611,1.1782,-0.0768
2026-07-23T16:01:09.269,130.2912,1.2369,-0.018
2026-07-23T16:01:09.283,130.296,1.2565,0.0799
2026-07-23T16:01:09.283,130.2987,1.2565,0.1386
2026-07-23T16:01:09.297,130.3062,1.3152,0.217
2026-07-23T16:01:09.310,130.3142,1.2957,0.2561
2026-07-23T16:01:09.315,130.32,1.3936,0.1582
2026-07-23T16:01:09.335,130.3516,1.2369,0.2561
2026-07-23T16:01:09.335,130.3516,1.4523,0.1582
2026-07-23T16:01:09.349,130.3611,1.3348,0.2365
2026-07-23T16:01:09.365,130.3673,1.609,0.1974
2026-07-23T16:01:09.371,130.3712,1.4719,0.1974
2026-07-23T16:01:09.373,130.4052,1.7656,0.217
2026-07-23T16:01:09.397,130.4087,1.609,0.1778
2026-07-23T16:01:09.397,130.4107,1.8243,0.1974
2026-07-23T16:01:09.409,130.4173,1.7069,0.217
2026-07-23T16:01:09.418,130.4173,1.8048,0.2757
2026-07-23T16:01:09.422,130.4264,1.6481,0.2561
2026-07-23T16:01:09.437,130.4588,1.8243,0.2561
2026-07-23T16:01:09.450,130.4613,1.5306,0.2561
2026-07-23T16:01:09.456,130.4653,1.8243,0.3149
2026-07-23T16:01:09.468,130.4653,1.5502,0.2757
2026-07-23T16:01:09.468,130.4743,1.746,0.2561
2026-07-23T16:01:09.483,130.5083,1.609,0.1974
2026-07-23T16:01:09.498,130.5083,1.7069,0.1974
2026-07-23T16:01:09.498,130.5146,1.609,0.2561
2026-07-23T16:01:09.516,130.5146,1.6285,0.217
2026-07-23T16:01:09.525,130.5292,1.5698,0.1778
2026-07-23T16:01:09.525,130.5292,1.609,0.2365
2026-07-23T16:01:09.550,130.5613,1.6481,0.2365
2026-07-23T16:01:09.550,130.5613,1.5698,0.2365
2026-07-23T16:01:09.565,130.5685,1.5306,0.1778
2026-07-23T16:01:09.578,130.569,1.5698,0.2561
2026-07-23T16:01:09.588,130.6002,1.5306,0.217
2026-07-23T16:01:09.598,130.6002,1.5698,0.2757
2026-07-23T16:01:09.607,130.6002,1.609,0.2953
2026-07-23T16:01:09.616,130.6191,1.609,0.217
2026-07-23T16:01:09.628,130.6235,1.6481,0.2953
2026-07-23T16:01:09.640,130.6476,1.6873,0.2757
2026-07-23T16:01:09.642,130.6528,1.5502,0.3736
2026-07-23T16:01:09.667,130.6612,1.7069,0.2757
2026-07-23T16:01:09.670,130.6643,1.5698,0.3932
2026-07-23T16:01:09.677,130.6659,1.7069,0.2953
2026-07-23T16:01:09.684,130.6816,1.5698,0.354
2026-07-23T16:01:09.691,130.6952,1.746,0.2757
2026-07-23T16:01:09.704,130.6988,1.5502,0.3344
2026-07-23T16:01:09.715,130.7071,1.7264,0.3344
2026-07-23T16:01:09.730,130.7406,1.5306,0.3149
2026-07-23T16:01:09.732,130.7446,1.7069,0.2365
2026-07-23T16:01:09.746,130.747,1.4523,0.3736
2026-07-23T16:01:09.758,130.75,1.7069,0.2757
2026-07-23T16:01:09.764,130.7762,1.4523,0.2561
2026-07-23T16:01:09.783,130.7816,1.6285,0.2561
2026-07-23T16:01:09.789,130.7816,1.4523,0.2365
2026-07-23T16:01:09.798,130.7903,1.6285,0.2757
2026-07-23T16:01:09.801,130.7903,1.3936,0.0211
2026-07-23T16:01:09.817,130.8228,1.6481,0.2365
2026-07-23T16:01:09.817,130.8228,1.4523,0.1974
2026-07-23T16:01:09.832,130.8323,1.609,0.2953
2026-07-23T16:01:09.841,130.8385,1.4131,0.2561
2026-07-23T16:01:09.857,130.8615,1.5502,0.2757
2026-07-23T16:01:09.857,130.8615,1.4915,0.1974
2026-07-23T16:01:09.874,130.8656,1.609,0.354
2026-07-23T16:01:09.889,130.8699,1.6285,0.2953
2026-07-23T16:01:09.899,130.8989,1.5698,0.2953
2026-07-23T16:01:09.905,130.9015,1.5306,0.2365
2026-07-23T16:01:09.912,130.9015,1.5306,0.354
2026-07-23T16:01:09.921,130.9015,1.5306,0.2757
2026-07-23T16:01:09.921,130.9334,1.609,0.3736
2026-07-23T16:01:09.941,130.9388,1.5306,0.354
2026-07-23T16:01:09.952,130.9494,1.5894,0.3149
2026-07-23T16:01:09.966,130.9494,1.609,0.4128
2026-07-23T16:01:09.968,130.9733,1.5698,0.3149
2026-07-23T16:01:09.982,130.9733,1.6481,0.3736
2026-07-23T16:01:09.999,130.9815,1.5698,0.3932
2026-07-23T16:01:10.000,130.9815,1.6285,0.4128
2026-07-23T16:01:10.020,131.015,1.6481,0.3344
2026-07-23T16:01:10.024,131.0173,1.5894,0.4323
2026-07-23T16:01:10.032,131.0173,1.6873,0.354
2026-07-23T16:01:10.032,131.0486,1.5894,0.4323
2026-07-23T16:01:10.050,131.0527,1.6873,0.3736
2026-07-23T16:01:10.068,131.0567,1.5502,0.4911
2026-07-23T16:01:10.068,131.0586,1.7069,0.3149
2026-07-23T16:01:10.083,131.076,1.5698,0.4128
2026-07-23T16:01:10.083,131.076,1.6677,0.3736
2026-07-23T16:01:10.103,131.0917,1.5306,0.3932
2026-07-23T16:01:10.113,131.1197,1.7264,0.3932
2026-07-23T16:01:10.127,131.1254,1.511,0.354
2026-07-23T16:01:10.127,131.1254,1.6677,0.5694
2026-07-23T16:01:10.143,131.1254,1.511,0.3736
2026-07-23T16:01:10.159,131.1567,1.7264,0.3932
2026-07-23T16:01:10.159,131.1619,1.5306,0.4323
2026-07-23T16:01:10.176,131.1675,1.7656,0.4715
2026-07-23T16:01:10.183,131.1675,1.6285,0.4323
2026-07-23T16:01:10.200,131.1952,1.8243,0.4519
2026-07-23T16:01:10.200,131.1952,1.6285,0.3344
2026-07-23T16:01:10.218,131.2018,1.7656,0.4323
2026-07-23T16:01:10.221,131.2323,1.7656,0.4128
2026-07-23T16:01:10.237,131.2333,1.7656,0.5107
2026-07-23T16:01:10.246,131.2333,1.8243,0.354
2026-07-23T16:01:10.256,131.2333,1.7656,0.4519
2026-07-23T16:01:10.270,131.2721,1.7656,0.4128
2026-07-23T16:01:10.280,131.2721,1.8048,0.4911
2026-07-23T16:01:10.284,131.2794,1.7852,0.4715
2026-07-23T16:01:10.284,131.2812,1.8243,0.4715
2026-07-23T16:01:10.300,131.313,1.8635,0.589
2026-07-23T16:01:10.316,131.313,1.9027,0.5107
2026-07-23T16:01:10.323,131.313,1.8635,0.5107
2026-07-23T16:01:10.337,131.313,1.8635,0.5302
2026-07-23T16:01:10.337,131.3496,1.9027,0.5498
2026-07-23T16:01:10.358,131.3602,2.0006,0.5107
2026-07-23T16:01:10.364,131.3658,1.9614,0.5302
2026-07-23T16:01:10.364,131.3699,1.981,0.5107
2026-07-23T16:01:10.383,131.3987,1.9614,0.5302
2026-07-23T16:01:10.398,131.4058,2.0201,0.6477
2026-07-23T16:01:10.400,131.4058,1.9222,0.589
2026-07-23T16:01:10.417,131.4058,2.0397,0.6086
2026-07-23T16:01:10.428,131.45,1.9614,0.6477
2026-07-23T16:01:10.441,131.4533,2.0397,0.589
2026-07-23T16:01:10.450,131.4583,1.9614,0.6282
2026-07-23T16:01:10.457,131.4624,2.0985,0.6086
2026-07-23T16:01:10.457,131.4654,1.9027,0.6086
2026-07-23T16:01:10.488,131.5008,2.0985,0.6282
2026-07-23T16:01:10.488,131.5055,1.9027,0.6086
2026-07-23T16:01:10.496,131.5096,2.0201,0.6282
2026-07-23T16:01:10.509,131.5166,1.9418,0.5302
2026-07-23T16:01:10.519,131.5225,2.0397,0.6869
2026-07-23T16:01:10.536,131.5599,1.8635,0.5694
2026-07-23T16:01:10.536,131.5624,2.0201,0.589
2026-07-23T16:01:10.536,131.5638,1.8831,0.5302
2026-07-23T16:01:10.562,131.5743,1.981,0.5498
2026-07-23T16:01:10.573,131.5822,1.9027,0.5107
2026-07-23T16:01:10.578,131.5822,1.9027,0.5107
2026-07-23T16:01:10.590,131.6263,1.9027,0.4519
2026-07-23T16:01:10.601,131.6326,1.9614,0.5302
2026-07-23T16:01:10.601,131.6354,1.9222,0.4128
2026-07-23T16:01:10.630,131.6461,1.8831,0.5498
2026-07-23T16:01:10.633,131.6461,1.9027,0.4519
2026-07-23T16:01:10.633,131.6544,1.9027,0.4715
2026-07-23T16:01:10.656,131.6923,1.9418,0.4911
2026-07-23T16:01:10.671,131.6923,1.7852,0.4128
2026-07-23T16:01:10.671,131.6923,1.8635,0.4911
2026-07-23T16:01:10.671,131.6923,1.7852,0.4128
2026-07-23T16:01:10.686,131.7053,1.9418,0.4519
2026-07-23T16:01:10.697,131.7101,1.8243,0.4128
2026-07-23T16:01:10.705,131.7101,1.9614,0.5107
2026-07-23T16:01:10.716,131.7524,1.9614,0.4715
2026-07-23T16:01:10.733,131.7626,1.981,0.5694
2026-07-23T16:01:10.733,131.7626,1.9614,0.5107
2026-07-23T16:01:10.743,131.7681,1.9418,0.5694
2026-07-23T16:01:10.761,131.7681,2.0593,0.4519
2026-07-23T16:01:10.772,131.7815,1.981,0.5302
2026-07-23T16:01:10.772,131.81,2.0789,0.5107
2026-07-23T16:01:10.791,131.8187,1.9614,0.5694
2026-07-23T16:01:10.791,131.8187,2.216,0.5302
2026-07-23T16:01:10.803,131.8187,2.1181,0.5694
2026-07-23T16:01:10.813,131.8267,2.216,0.6282
2026-07-23T16:01:10.819,131.8313,2.1964,0.589
2026-07-23T16:01:10.835,131.8627,2.2747,0.6673
2026-07-23T16:01:10.851,131.8685,2.2747,0.6282
2026-07-23T16:01:10.858,131.8685,2.353,0.6869
2026-07-23T16:01:10.870,131.8814,2.2355,0.6673
2026-07-23T16:01:10.878,131.8814,2.353,0.7261
2026-07-23T16:01:10.887,131.8945,2.2551,0.7065
2026-07-23T16:01:10.913,131.9265,2.4901,0.7652
2026-07-23T16:01:10.913,131.9265,2.3922,0.7065
2026-07-23T16:01:10.919,131.933,2.5097,0.7848
2026-07-23T16:01:10.932,131.933,2.5292,0.7652
2026-07-23T16:01:10.932,131.9395,2.5097,0.8435
2026-07-23T16:01:10.950,131.9446,2.5097,0.824
2026-07-23T16:01:10.963,131.9745,2.3922,0.8631
2026-07-23T16:01:10.963,131.9745,2.5292,0.8044
2026-07-23T16:01:10.977,131.9924,2.5488,0.7848
2026-07-23T16:01:10.984,131.9956,2.6272,0.8631
2026-07-23T16:01:10.995,132.0012,2.6076,0.8827
2026-07-23T16:01:11.009,132.0218,2.7251,0.8827
2026-07-23T16:01:11.016,132.0375,2.7446,0.961
2026-07-23T16:01:11.025,132.0409,2.7838,1.0393
2026-07-23T16:01:11.043,132.0409,2.7446,0.9806
2026-07-23T16:01:11.043,132.0409,2.823,1.0002
2026-07-23T16:01:11.052,132.0577,2.7838,1.0198
2026-07-23T16:01:11.057,132.0853,2.9013,1.0198
2026-07-23T16:01:11.073,132.0853,2.8425,0.961
2026-07-23T16:01:11.088,132.0853,2.9209,1.0785
2026-07-23T16:01:11.092,132.1013,2.8621,0.961
2026-07-23T16:01:11.108,132.1108,2.9209,1.0393
2026-07-23T16:01:11.116,132.1439,2.9209,1.0981
2026-07-23T16:01:11.120,132.1482,2.9209,1.0393
2026-07-23T16:01:11.136,132.1521,2.96,1.0393
2026-07-23T16:01:11.152,132.1555,2.9992,1.0393
2026-07-23T16:01:11.165,132.1555,3.0383,1.0393
2026-07-23T16:01:11.165,132.1629,2.9209,1.0981
2026-07-23T16:01:11.183,132.2009,2.9992,1.0002
2026-07-23T16:01:11.183,132.2009,3.0188,1.0589
2026-07-23T16:01:11.199,132.2009,3.0579,1.0589
2026-07-23T16:01:11.206,132.2067,2.9404,1.0589
2026-07-23T16:01:11.215,132.2387,2.9992,1.0198
2026-07-23T16:01:11.216,132.2425,2.9209,1.0393
2026-07-23T16:01:11.234,132.2468,3.0188,1.0393
2026-07-23T16:01:11.246,132.2501,2.9796,0.9806
2026-07-23T16:01:11.258,132.2526,3.0971,1.0198
2026-07-23T16:01:11.262,132.2582,3.0775,1.0002
2026-07-23T16:01:11.283,132.2903,3.0971,1.0589
2026-07-23T16:01:11.283,132.2903,3.0579,1.0785
2026-07-23T16:01:11.293,132.2992,3.0971,1.1177
2026-07-23T16:01:11.309,132.3081,3.0971,1.0981
2026-07-23T16:01:11.314,132.3344,3.0579,1.0589
2026-07-23T16:01:11.325,132.3408,3.1754,1.0198
2026-07-23T16:01:11.325,132.345,3.1363,1.0393
2026-07-23T16:01:11.341,132.345,3.195,1.0589
2026-07-23T16:01:11.359,132.3539,3.0775,1.0785
2026-07-23T16:01:11.373,132.3699,3.2733,1.0785
2026-07-23T16:01:11.373,132.3857,3.1363,1.1568
2026-07-23T16:01:11.383,132.3891,3.2929,1.0981
2026-07-23T16:01:11.396,132.3916,3.2146,1.1373
2026-07-23T16:01:11.405,132.3976,3.3516,1.0981
2026-07-23T16:01:11.417,132.426,3.1363,1.0785
2026-07-23T16:01:11.421,132.4286,3.2146,1.1568
2026-07-23T16:01:11.436,132.4286,3.1754,1.0589
2026-07-23T16:01:11.453,132.4371,3.2342,1.1373
2026-07-23T16:01:11.453,132.4534,3.0971,1.0198
2026-07-23T16:01:11.470,132.4655,3.2342,1.0785
2026-07-23T16:01:11.477,132.4685,3.1363,1.0002
2026-07-23T16:01:11.488,132.4748,3.195,1.0393
2026-07-23T16:01:11.488,132.5018,3.0971,1.0198
2026-07-23T16:01:11.504,132.5018,3.0775,1.0393
2026-07-23T16:01:11.516,132.5131,3.1167,1.0785
2026-07-23T16:01:11.526,132.5166,3.0775,1.0198
2026-07-23T16:01:11.548,132.5458,3.1363,0.961
2026-07-23T16:01:11.550,132.5497,3.0188,1.0002
2026-07-23T16:01:11.564,132.5538,3.0775,0.9806
2026-07-23T16:01:11.564,132.5538,3.0383,1.0198
2026-07-23T16:01:11.580,132.5774,3.0188,1.0002
2026-07-23T16:01:11.583,132.5774,2.9992,0.9219
2026-07-23T16:01:11.601,132.5962,3.0188,0.9414
2026-07-23T16:01:11.605,132.6001,2.96,0.8827
2026-07-23T16:01:11.617,132.6325,3.0775,0.9023
2026-07-23T16:01:11.628,132.6397,2.9992,0.9023
2026-07-23T16:01:11.628,132.6417,3.0383,0.9414
2026-07-23T16:01:11.647,132.6437,2.9209,0.9414
2026-07-23T16:01:11.651,132.6437,3.0188,0.9806
2026-07-23T16:01:11.667,132.6724,2.96,0.9219
2026-07-23T16:01:11.676,132.6835,2.96,0.9806
2026-07-23T16:01:11.690,132.6874,3.0775,0.9414
2026-07-23T16:01:11.694,132.6874,2.96,0.9806
2026-07-23T16:01:11.707,132.7198,3.0579,0.961
2026-07-23T16:01:11.723,132.7251,2.9209,1.0198
2026-07-23T16:01:11.723,132.7251,3.0188,0.9414
2026-07-23T16:01:11.738,132.7348,2.8817,0.9219
2026-07-23T16:01:11.745,132.7397,2.9404,0.8631
2026-07-23T16:01:11.754,132.7673,2.8621,0.8827
2026-07-23T16:01:11.754,132.7673,3.0383,0.8827
2026-07-23T16:01:11.776,132.7814,2.8817,0.9414
2026-07-23T16:01:11.786,132.7876,3.0579,0.9414
2026-07-23T16:01:11.801,132.8171,2.96,0.961
2026-07-23T16:01:11.811,132.8211,3.1558,1.0002
2026-07-23T16:01:11.818,132.8258,3.0579,1.0002
2026-07-23T16:01:11.818,132.8284,3.3321,1.0589
2026-07-23T16:01:11.838,132.8324,3.0579,1.0002
2026-07-23T16:01:11.850,132.8639,3.2537,1.0981
2026-07-23T16:01:11.864,132.8679,3.195,1.0981
2026-07-23T16:01:11.868,132.8679,3.2929,1.196
2026-07-23T16:01:11.877,132.8802,3.2342,1.1764
2026-07-23T16:01:11.883,132.8802,3.3321,1.2156
2026-07-23T16:01:11.906,132.9336,3.3908,1.1568
2026-07-23T16:01:11.912,132.9336,3.3516,1.2547
2026-07-23T16:01:11.919,132.9367,3.3712,1.1764
2026-07-23T16:01:11.927,132.9408,3.4691,1.1764
2026-07-23T16:01:11.943,132.9408,3.4691,1.2939
2026-07-23T16:01:11.943,132.9408,3.4495,1.2352
2026-07-23T16:01:11.960,132.9753,3.4495,1.3135
2026-07-23T16:01:11.960,132.9834,3.5083,1.2939
2026-07-23T16:01:11.974,132.9834,3.5083,1.3722
2026-07-23T16:01:11.984,132.9913,3.5083,1.2939
2026-07-23T16:01:11.992,132.9991,3.6062,1.3918
2026-07-23T16:01:11.992,133.0078,3.5474,1.4114
2026-07-23T16:01:12.016,133.0348,3.5866,1.3722
2026-07-23T16:01:12.026,133.0348,3.4887,1.3526
2026-07-23T16:01:12.034,133.0348,3.4495,1.3526
2026-07-23T16:01:12.059,133.0508,3.4887,1.3135
2026-07-23T16:01:12.059,133.0508,3.4691,1.3526
2026-07-23T16:01:12.070,133.0798,3.5474,1.2743
2026-07-23T16:01:12.083,133.0828,3.4104,1.3722
2026-07-23T16:01:12.086,133.0828,3.6062,1.3135
2026-07-23T16:01:12.102,133.0828,3.4887,1.3135
2026-07-23T16:01:12.102,133.0828,3.6062,1.2939
2026-07-23T16:01:12.118,133.1145,3.4691,1.3722
2026-07-23T16:01:12.118,133.1145,3.6062,1.3331
2026-07-23T16:01:12.134,133.1295,3.4887,1.3331
2026-07-23T16:01:12.149,133.1369,3.6845,1.3331
2026-07-23T16:01:12.165,133.1657,3.6454,1.3135
2026-07-23T16:01:12.165,133.1657,3.5866,1.3526
2026-07-23T16:01:12.165,133.1694,3.4495,1.3135
2026-07-23T16:01:12.188,133.1783,3.6258,1.3135
2026-07-23T16:01:12.197,133.2067,3.4691,1.3722
2026-07-23T16:01:12.207,133.2099,3.5866,1.3135
2026-07-23T16:01:12.216,133.2185,3.4691,1.2352
2026-07-23T16:01:12.229,133.2225,3.6062,1.3722
2026-07-23T16:01:12.235,133.2414,3.6649,1.2939
2026-07-23T16:01:12.250,133.2522,3.6258,1.2743
2026-07-23T16:01:12.261,133.2569,3.5279,1.3135
2026-07-23T16:01:12.268,133.2569,3.5474,1.2743
2026-07-23T16:01:12.275,133.2628,3.4495,1.1764
2026-07-23T16:01:12.292,133.2727,3.5279,1.2352
2026-07-23T16:01:12.292,133.2883,3.4104,1.1764
2026-07-23T16:01:12.308,133.2883,3.4495,1.2939
2026-07-23T16:01:12.320,133.32,3.4495,1.3135
2026-07-23T16:01:12.323,133.3222,3.5083,1.196
2026-07-23T16:01:12.339,133.3222,3.5083,1.2547
2026-07-23T16:01:12.348,133.3343,3.5474,1.2352
2026-07-23T16:01:12.355,133.3574,3.5474,1.3135
2026-07-23T16:01:12.360,133.3601,3.5083,1.1373
2026-07-23T16:01:12.373,133.3676,3.6258,1.2547
2026-07-23T16:01:12.387,133.3709,3.5083,1.2352
2026-07-23T16:01:12.395,133.3928,3.567,1.2743
2026-07-23T16:01:12.408,133.4023,3.6062,1.196
2026-07-23T16:01:12.418,133.405,3.5083,1.2156
2026-07-23T16:01:12.429,133.4343,3.6258,1.1764
2026-07-23T16:01:12.442,133.4343,3.4691,1.2939
2026-07-23T16:01:12.451,133.4343,3.7041,1.1764
2026-07-23T16:01:12.461,133.4491,3.4887,1.2156
2026-07-23T16:01:12.463,133.478,3.6258,1.3135
2026-07-23T16:01:12.481,133.4885,3.4691,1.2547
2026-07-23T16:01:12.485,133.4937,3.7433,1.2352
2026-07-23T16:01:12.497,133.4937,3.5083,1.2939
2026-07-23T16:01:12.527,133.5291,3.7433,1.196
2026-07-23T16:01:12.529,133.5315,3.5083,1.2547
2026-07-23T16:01:12.529,133.5325,3.6845,1.2939
2026-07-23T16:01:12.539,133.5346,3.4691,1.3135
2026-07-23T16:01:12.544,133.5409,3.7237,1.3135
2026-07-23T16:01:12.550,133.566,3.5474,1.2939
2026-07-23T16:01:12.560,133.566,3.7628,1.3331
2026-07-23T16:01:12.577,133.5758,3.567,1.3526
2026-07-23T16:01:12.585,133.5803,3.7237,1.3526
2026-07-23T16:01:12.595,133.6038,3.6258,1.2939
2026-07-23T16:01:12.610,133.6038,3.7237,1.4897
2026-07-23T16:01:12.617,133.6038,3.6845,1.2743
2026-07-23T16:01:12.631,133.627,3.6454,1.4114
2026-07-23T16:01:12.635,133.627,3.6258,1.2939
2026-07-23T16:01:12.643,133.6549,3.7041,1.3526
2026-07-23T16:01:12.655,133.6606,3.6258,1.3135
2026-07-23T16:01:12.678,133.6656,3.6649,1.3722
2026-07-23T16:01:12.678,133.6666,3.6258,1.4505
2026-07-23T16:01:12.683,133.6916,3.6649,1.3918
2026-07-23T16:01:12.702,133.6949,3.6258,1.3135
2026-07-23T16:01:12.711,133.699,3.7433,1.2156
2026-07-23T16:01:12.717,133.699,3.7433,1.3331
2026-07-23T16:01:12.735,133.7265,3.6845,1.2939
2026-07-23T16:01:12.735,133.7265,3.7041,1.3135
2026-07-23T16:01:12.750,133.7323,3.6845,1.2743
2026-07-23T16:01:12.750,133.7323,3.6845,1.3135
2026-07-23T16:01:12.765,133.7616,3.7237,1.2939
2026-07-23T16:01:12.777,133.7682,3.6062,1.3331
2026-07-23T16:01:12.783,133.7722,3.7433,1.2743
2026-07-23T16:01:12.797,133.7992,3.5866,1.2939
2026-07-23T16:01:12.798,133.7992,3.7433,1.3135
2026-07-23T16:01:12.823,133.8096,3.567,1.2939
2026-07-23T16:01:12.823,133.8121,3.802,1.2743
2026-07-23T16:01:12.844,133.8409,3.6258,1.2939
2026-07-23T16:01:12.850,133.8438,3.8999,1.2743
2026-07-23T16:01:12.860,133.8438,3.567,1.3722
2026-07-23T16:01:12.863,133.8438,3.802,1.3722
2026-07-23T16:01:12.883,133.8773,3.567,1.2939
2026-07-23T16:01:12.892,133.8773,3.7041,1.2547
2026-07-23T16:01:12.895,133.8773,3.5866,1.2547
2026-07-23T16:01:12.908,133.9044,3.7628,1.2939
2026-07-23T16:01:12.916,133.9227,3.6454,1.1764
2026-07-23T16:01:12.928,133.9227,3.7628,1.196
2026-07-23T16:01:12.940,133.932,3.4887,1.1764
2026-07-23T16:01:12.950,133.9574,3.7628,1.2352
2026-07-23T16:01:12.955,133.9599,3.4495,1.2547
2026-07-23T16:01:12.955,133.9657,3.7041,1.2743
2026-07-23T16:01:12.983,133.9705,3.5474,1.2156
2026-07-23T16:01:12.983,133.9832,3.7628,1.3135
2026-07-23T16:01:13.002,133.9991,3.5866,1.2156
2026-07-23T16:01:13.008,134.0044,3.6649,1.2547
2026-07-23T16:01:13.018,134.0044,3.6258,1.2156
2026-07-23T16:01:13.034,134.0427,3.6649,1.2547
2026-07-23T16:01:13.034,134.0427,3.6454,1.1568
2026-07-23T16:01:13.055,134.0506,3.6845,1.3135
2026-07-23T16:01:13.055,134.0506,3.6845,1.2156
2026-07-23T16:01:13.073,134.0825,3.6845,1.2547
2026-07-23T16:01:13.073,134.0836,3.6258,1.2352
2026-07-23T16:01:13.087,134.0897,3.6845,1.2743
2026-07-23T16:01:13.099,134.0897,3.6454,1.2547
2026-07-23T16:01:13.107,134.0934,3.6454,1.2352
2026-07-23T16:01:13.117,134.1248,3.6845,1.3135
2026-07-23T16:01:13.129,134.1288,3.7237,1.2939
2026-07-23T16:01:13.140,134.1323,3.6454,1.3722
2026-07-23T16:01:13.144,134.1348,3.7237,1.2939
2026-07-23T16:01:13.156,134.166,3.6454,1.4114
2026-07-23T16:01:13.160,134.1703,3.7237,1.3526
2026-07-23T16:01:13.186,134.1723,3.7041,1.3722
2026-07-23T16:01:13.186,134.1794,3.7433,1.3135
2026-07-23T16:01:13.198,134.2041,3.6845,1.3918
2026-07-23T16:01:13.211,134.21,3.8412,1.3135
2026-07-23T16:01:13.221,134.2145,3.6258,1.3526
2026-07-23T16:01:13.223,134.2165,3.8412,1.3331
2026-07-23T16:01:13.233,134.2352,3.567,1.3331
2026-07-23T16:01:13.250,134.2496,3.8216,1.3135
2026-07-23T16:01:13.255,134.2511,3.6454,1.3722
2026-07-23T16:01:13.267,134.2511,3.7628,1.2939
2026-07-23T16:01:13.281,134.2831,3.6258,1.3331
2026-07-23T16:01:13.286,134.2888,3.8412,1.3526
2026-07-23T16:01:13.294,134.2888,3.7041,1.3526
2026-07-23T16:01:13.315,134.2996,3.8999,1.3526
2026-07-23T16:01:13.316,134.3148,3.6454,1.3331
2026-07-23T16:01:13.319,134.3307,3.8803,1.3722
2026-07-23T16:01:13.340,134.3323,3.6649,1.2743
2026-07-23T16:01:13.350,134.3323,3.8412,1.3722
2026-07-23T16:01:13.366,134.3628,3.6649,1.3722
2026-07-23T16:01:13.366,134.3628,3.8216,1.4114
2026-07-23T16:01:13.380,134.3659,3.7041,1.3135
2026-07-23T16:01:13.383,134.3695,3.8216,1.4114
2026-07-23T16:01:13.403,134.3959,3.7824,1.3526
2026-07-23T16:01:13.403,134.3992,3.7041,1.4505
2026-07-23T16:01:13.417,134.3992,3.802,1.3722
2026-07-23T16:01:13.429,134.4279,3.8803,1.431
2026-07-23T16:01:13.429,134.4306,3.8607,1.431
2026-07-23T16:01:13.450,134.4354,3.8803,1.4701
2026-07-23T16:01:13.450,134.4411,3.8607,1.3918
2026-07-23T16:01:13.467,134.4659,3.8803,1.431
2026-07-23T16:01:13.479,134.4659,3.9195,1.4897
2026-07-23T16:01:13.492,134.4725,3.9195,1.3722
2026-07-23T16:01:13.492,134.4994,3.9195,1.4114
2026-07-23T16:01:13.508,134.4994,3.8803,1.431
2026-07-23T16:01:13.517,134.5038,3.9195,1.4505
2026-07-23T16:01:13.524,134.5038,4.0174,1.431
2026-07-23T16:01:13.539,134.5327,3.9586,1.4505
2026-07-23T16:01:13.550,134.5359,4.0174,1.4897
2026-07-23T16:01:13.555,134.5359,3.9195,1.5093
2026-07-23T16:01:13.571,134.5656,4.0565,1.4505
2026-07-23T16:01:13.571,134.5693,3.9978,1.568
2026-07-23T16:01:13.587,134.5743,4.0761,1.5484
2026-07-23T16:01:13.595,134.5793,3.9195,1.6268
2026-07-23T16:01:13.611,134.6023,4.1153,1.431
2026-07-23T16:01:13.619,134.6023,3.9195,1.5289
2026-07-23T16:01:13.630,134.615,4.0761,1.4505
2026-07-23T16:01:13.634,134.6441,3.8412,1.5484
2026-07-23T16:01:13.650,134.6465,4.0174,1.431
2026-07-23T16:01:13.666,134.652,3.8216,1.5484
2026-07-23T16:01:13.666,134.652,3.9978,1.431
2026-07-23T16:01:13.666,134.6858,3.9195,1.4701
2026-07-23T16:01:13.689,134.6905,4.0565,1.4701
2026-07-23T16:01:13.697,134.6942,3.8999,1.4701
2026-07-23T16:01:13.703,134.699,4.0761,1.5093
2026-07-23T16:01:13.716,134.7315,3.8999,1.4897
2026-07-23T16:01:13.716,134.7325,4.0761,1.568
2026-07-23T16:01:13.741,134.7325,3.9195,1.5289
2026-07-23T16:01:13.750,134.739,4.1349,1.5289
2026-07-23T16:01:13.750,134.7417,4.0174,1.5093
2026-07-23T16:01:13.762,134.7693,4.1153,1.568
2026-07-23T16:01:13.777,134.7742,4.0174,1.4897
2026-07-23T16:01:13.793,134.7794,4.1349,1.5876
2026-07-23T16:01:13.793,134.808,4.0957,1.568
2026-07-23T16:01:13.808,134.811,4.174,1.6464
2026-07-23T16:01:13.820,134.8169,4.0957,1.5484
2026-07-23T16:01:13.830,134.8169,4.1349,1.6072
2026-07-23T16:01:13.840,134.836,4.0565,1.5876
2026-07-23T16:01:13.850,134.836,4.037,1.6072
2026-07-23T16:01:13.859,134.8523,4.0174,1.568
2026-07-23T16:01:13.868,134.8564,4.0957,1.5093
2026-07-23T16:01:13.872,134.8854,4.0761,1.6072
2026-07-23T16:01:13.887,134.8854,4.0761,1.5876
2026-07-23T16:01:13.887,134.8854,4.0565,1.6268
2026-07-23T16:01:13.907,134.8943,4.0174,1.5484
2026-07-23T16:01:13.920,134.9172,4.0174,1.568
2026-07-23T16:01:13.920,134.925,4.0761,1.5289
2026-07-23T16:01:13.936,134.925,4.0174,1.5093
2026-07-23T16:01:13.948,134.9337,4.0957,1.5484
2026-07-23T16:01:13.950,134.9465,4.1153,1.5876
2026-07-23T16:01:13.976,134.9659,4.1544,1.568
2026-07-23T16:01:13.976,134.9686,4.0761,1.7051
2026-07-23T16:01:13.987,134.9964,4.2328,1.5876
2026-07-23T16:01:13.997,134.9984,4.0565,1.6268
2026-07-23T16:01:13.997,135.0025,4.3894,1.6072
2026-07-23T16:01:14.017,135.0083,4.174,1.6855
2026-07-23T16:01:14.024,135.0094,4.3698,1.6659
2026-07-23T16:01:14.032,135.0407,4.2719,1.7247
2026-07-23T16:01:14.050,135.0457,4.409,1.7247
2026-07-23T16:01:14.060,135.0457,4.2719,1.6855
2026-07-23T16:01:14.066,135.0542,4.4482,1.7834
2026-07-23T16:01:14.076,135.0775,4.4286,1.7443
2026-07-23T16:01:14.083,135.0785,4.4873,1.7443
2026-07-23T16:01:14.097,135.0824,4.3111,1.7638
2026-07-23T16:01:14.105,135.108,4.5852,1.7834
2026-07-23T16:01:14.123,135.108,4.3698,1.7443
2026-07-23T16:01:14.129,135.108,4.5069,1.7443
2026-07-23T16:01:14.137,135.1203,4.3503,1.7638
2026-07-23T16:01:14.139,135.1442,4.4482,1.803
2026-07-23T16:01:14.155,135.1442,4.4286,1.7443
2026-07-23T16:01:14.159,135.1518,4.4286,1.7051
2026-07-23T16:01:14.171,135.1678,4.4286,1.7051
2026-07-23T16:01:14.191,135.1837,4.4677,1.8813
2026-07-23T16:01:14.195,135.1862,4.4482,1.7051
2026-07-23T16:01:14.203,135.1936,4.4482,1.7051
2026-07-23T16:01:14.219,135.2174,4.4286,1.7051
2026-07-23T16:01:14.219,135.2174,4.3698,1.7638
2026-07-23T16:01:14.244,135.2279,4.3894,1.6268
2026-07-23T16:01:14.244,135.2324,4.3894,1.7051
2026-07-23T16:01:14.253,135.2471,4.3503,1.7051
2026-07-23T16:01:14.268,135.2647,4.3698,1.6855
2026-07-23T16:01:14.283,135.2697,4.3503,1.6464
2026-07-23T16:01:14.283,135.2919,4.2915,1.6464
2026-07-23T16:01:14.298,135.2948,4.3111,1.7247
2026-07-23T16:01:14.298,135.2991,4.3307,1.6855
2026-07-23T16:01:14.321,135.3037,4.3307,1.7443
2026-07-23T16:01:14.329,135.3255,4.2915,1.6855
2026-07-23T16:01:14.329,135.3325,4.3698,1.6659
2026-07-23T16:01:14.350,135.3325,4.3503,1.6268
2026-07-23T16:01:14.355,135.3425,4.2719,1.6268
2026-07-23T16:01:14.362,135.3662,4.3894,1.6268
2026-07-23T16:01:14.376,135.3753,4.2915,1.6659
2026-07-23T16:01:14.383,135.3753,4.3894,1.6659
2026-07-23T16:01:14.393,135.3753,4.2524,1.6268
2026-07-23T16:01:14.404,135.4066,4.3698,1.5876
2026-07-23T16:01:14.417,135.4114,4.2719,1.7051
2026-07-23T16:01:14.426,135.4176,4.3894,1.6072
2026-07-23T16:01:14.441,135.4375,4.2328,1.6072
2026-07-23T16:01:14.445,135.4375,4.3503,1.6072
2026-07-23T16:01:14.462,135.4523,4.2132,1.6268
2026-07-23T16:01:14.468,135.4564,4.3307,1.6855
2026-07-23T16:01:14.472,135.4825,4.2524,1.5876
2026-07-23T16:01:14.488,135.4842,4.3307,1.6268
2026-07-23T16:01:14.503,135.4842,4.2328,1.6072
2026-07-23T16:01:14.507,135.4955,4.3111,1.568
2026-07-23T16:01:14.517,135.5201,4.1936,1.6072
2026-07-23T16:01:14.529,135.5201,4.2719,1.6464
2026-07-23T16:01:14.535,135.5201,4.2524,1.5876
2026-07-23T16:01:14.546,135.5326,4.3503,1.6464
2026-07-23T16:01:14.551,135.5477,4.2719,1.6464
2026-07-23T16:01:14.568,135.5477,4.2915,1.6659
2026-07-23T16:01:14.585,135.5664,4.3307,1.6268
2026-07-23T16:01:14.585,135.5664,4.3698,1.6659
2026-07-23T16:01:14.598,135.5801,4.3698,1.6072
2026-07-23T16:01:14.598,135.5958,4.3698,1.7247
2026-07-23T16:01:14.617,135.6106,4.4286,1.6268
2026-07-23T16:01:14.631,135.6282,4.3503,1.6072
2026-07-23T16:01:14.631,135.6325,4.4286,1.6072
2026-07-23T16:01:14.647,135.6346,4.3503,1.6268
2026-07-23T16:01:14.654,135.658,4.4482,1.6855
2026-07-23T16:01:14.661,135.6664,4.409,1.6659
2026-07-23T16:01:14.679,135.6704,4.4873,1.7638
2026-07-23T16:01:14.685,135.674,4.4482,1.6659
2026-07-23T16:01:14.696,135.699,4.5265,1.6464
2026-07-23T16:01:14.709,135.7026,4.4677,1.6855
2026-07-23T16:01:14.725,135.707,4.5265,1.7051
2026-07-23T16:01:14.725,135.707,4.5069,1.6659
2026-07-23T16:01:14.742,135.7323,4.5265,1.7051
2026-07-23T16:01:14.742,135.7323,4.4482,1.7638
2026-07-23T16:01:14.758,135.7372,4.5461,1.7443
2026-07-23T16:01:14.769,135.7702,4.5656,1.7638
2026-07-23T16:01:14.780,135.774,4.6048,1.8813
2026-07-23T16:01:14.788,135.7791,4.7027,1.8617
2026-07-23T16:01:14.788,135.806,4.644,1.9009
2026-07-23T16:01:14.805,135.812,4.7615,1.8617
2026-07-23T16:01:14.805,135.815,4.7615,1.9205
2026-07-23T16:01:14.830,135.82,4.8202,1.9401
2026-07-23T16:01:14.835,135.8487,4.7419,1.9596
2026-07-23T16:01:14.852,135.8557,4.8985,1.9205
2026-07-23T16:01:14.857,135.8592,4.8202,1.9401
2026-07-23T16:01:14.874,135.8635,4.8985,1.9988
2026-07-23T16:01:14.874,135.8792,4.8006,2.0184
2026-07-23T16:01:14.883,135.8792,4.9377,1.9988
2026-07-23T16:01:14.899,135.8792,4.8985,1.9792
2026-07-23T16:01:14.906,135.8955,4.9964,1.9792
2026-07-23T16:01:14.918,135.9108,4.9181,1.9988
2026-07-23T16:01:14.918,135.9267,5.0356,1.9792
2026-07-23T16:01:14.930,135.9368,4.8985,1.9596
2026-07-23T16:01:14.950,135.9387,5.1335,2.0967
2026-07-23T16:01:14.962,135.97,5.0356,2.038
2026-07-23T16:01:14.962,135.9741,5.1139,2.038
2026-07-23T16:01:14.978,135.9787,5.0943,2.038
2026-07-23T16:01:14.995,135.9857,5.1335,2.0575
2026-07-23T16:01:14.995,135.9857,5.0747,2.038
2026-07-23T16:01:15.009,136.011,5.016,2.038
2026-07-23T16:01:15.009,136.0144,5.1139,2.0184
2026-07-23T16:01:15.029,136.0213,4.9768,1.9596
2026-07-23T16:01:15.037,136.0223,5.1335,1.9009
2026-07-23T16:01:15.041,136.0502,4.9768,1.9792
2026-07-23T16:01:15.056,136.053,5.1139,1.9596
2026-07-23T16:01:15.072,136.053,4.9768,1.9792
2026-07-23T16:01:15.077,136.0619,5.0356,1.9401
2026-07-23T16:01:15.088,136.0838,4.9768,1.9792
2026-07-23T16:01:15.088,136.0838,5.0747,1.9988
2026-07-23T16:01:15.104,136.0838,4.9573,1.9205
2026-07-23T16:01:15.119,136.1197,5.0552,1.9401
2026-07-23T16:01:15.119,136.1244,4.9377,1.9596
2026-07-23T16:01:15.135,136.1273,5.016,1.9401
2026-07-23T16:01:15.135,136.1314,4.9377,1.8422
2026-07-23T16:01:15.166,136.1471,4.9768,1.9792
2026-07-23T16:01:15.166,136.163,4.9181,1.9401
2026-07-23T16:01:15.178,136.1666,4.9964,1.9401
2026-07-23T16:01:15.183,136.1946,4.9377,1.8813
2026-07-23T16:01:15.198,136.1993,4.9964,1.8813
2026-07-23T16:01:15.214,136.2034,5.016,1.8617
2026-07-23T16:01:15.217,136.2034,4.9573,1.9205
2026-07-23T16:01:15.230,136.2326,4.9573,1.8422
2026-07-23T16:01:15.238,136.2408,4.8985,1.9205
2026-07-23T16:01:15.250,136.2466,4.9377,1.8617
2026-07-23T16:01:15.254,136.2503,4.9964,1.8813
2026-07-23T16:01:15.272,136.2789,4.9377,1.8422
2026-07-23T16:01:15.283,136.282,4.8789,1.8422
2026-07-23T16:01:15.292,136.282,4.9181,1.8226
2026-07-23T16:01:15.301,136.2899,4.8985,1.8617
2026-07-23T16:01:15.309,136.3125,4.8594,1.8813
2026-07-23T16:01:15.325,136.3232,4.8789,1.8226
2026-07-23T16:01:15.330,136.3257,4.8985,1.9596
2026-07-23T16:01:15.341,136.3324,4.8985,1.8226
2026-07-23T16:01:15.350,136.3541,4.9181,1.9401
2026-07-23T16:01:15.363,136.3541,4.8789,1.8813
2026-07-23T16:01:15.363,136.3671,4.8594,1.9792
2026-07-23T16:01:15.385,136.3726,4.9768,1.8617
2026-07-23T16:01:15.391,136.3982,4.9181,1.9205
2026-07-23T16:01:15.403,136.3992,4.9964,1.8617
2026-07-23T16:01:15.405,136.3992,4.9181,1.9401
2026-07-23T16:01:15.418,136.4072,4.9964,1.8813
2026-07-23T16:01:15.423,136.4072,4.8789,1.9401
2026-07-23T16:01:15.435,136.4375,5.016,1.9009
2026-07-23T16:01:15.450,136.4375,4.8789,1.9401
2026-07-23T16:01:15.458,136.4484,5.1335,1.8813
2026-07-23T16:01:15.466,136.4695,4.9377,1.9205
2026-07-23T16:01:15.482,136.4795,5.0747,1.9988
2026-07-23T16:01:15.488,136.4795,4.9573,1.9205
2026-07-23T16:01:15.501,136.4795,5.1335,1.9988
2026-07-23T16:01:15.501,136.5094,4.9377,1.9792
2026-07-23T16:01:15.520,136.5094,5.0943,1.9988
2026-07-23T16:01:15.530,136.5247,4.9377,1.9596
2026-07-23T16:01:15.530,136.5262,5.1922,1.9792
2026-07-23T16:01:15.550,136.5561,4.9964,1.9596
2026-07-23T16:01:15.560,136.5561,5.0747,2.0771
2026-07-23T16:01:15.575,136.5657,4.9964,1.9792
2026-07-23T16:01:15.577,136.5717,5.1139,1.9988
2026-07-23T16:01:15.591,136.5876,4.9768,1.9792
2026-07-23T16:01:15.592,136.5876,5.0356,1.9792
2026-07-23T16:01:15.607,136.603,5.016,1.9792
2026-07-23T16:01:15.623,136.6046,5.0552,1.9792
2026-07-23T16:01:15.623,136.6204,5.0356,1.9009
2026-07-23T16:01:15.638,136.6364,4.9964,2.038
2026-07-23T16:01:15.638,136.6389,5.0552,1.9596
2026-07-23T16:01:15.660,136.6462,5.1531,1.9988
2026-07-23T16:01:15.671,136.672,5.1139,1.9792
2026-07-23T16:01:15.671,136.677,5.1139,1.9792
2026-07-23T16:01:15.690,136.6849,5.1335,1.9792
2026-07-23T16:01:15.697,136.6883,5.1335,2.0184
2026-07-23T16:01:15.710,136.7147,5.0356,1.9401
2026-07-23T16:01:15.723,136.7206,5.0943,1.9596
2026-07-23T16:01:15.736,136.7206,5.1139,1.9596
2026-07-23T16:01:15.739,136.7297,5.1139,1.9596
2026-07-23T16:01:15.750,136.7523,5.0552,2.0184
2026-07-23T16:01:15.750,136.7615,5.0552,1.9009
2026-07-23T16:01:15.771,136.7658,5.016,1.9401
2026-07-23T16:01:15.781,136.7678,5.0356,1.8813
2026-07-23T16:01:15.784,136.7935,5.016,1.9596
2026-07-23T16:01:15.797,136.7995,5.0552,1.9205
2026-07-23T16:01:15.812,136.7995,5.0747,1.9596
2026-07-23T16:01:15.819,136.8129,5.0747,1.9009
2026-07-23T16:01:15.829,136.8414,4.9768,1.9596
2026-07-23T16:01:15.829,136.8414,5.0943,1.9596
2026-07-23T16:01:15.848,136.8492,4.9573,2.0184
2026-07-23T16:01:15.864,136.8546,5.0943,1.8813
2026-07-23T16:01:15.864,136.8778,4.9573,1.9596
2026-07-23T16:01:15.883,136.8828,5.1922,1.9401
2026-07-23T16:01:15.892,136.8874,4.9768,1.9792
2026-07-23T16:01:15.900,136.8932,5.1335,1.8813
2026-07-23T16:01:15.913,136.9046,4.9377,1.9596
2026-07-23T16:01:15.924,136.9206,5.1335,1.9401
2026-07-23T16:01:15.929,136.9206,5.016,1.9401
2026-07-23T16:01:15.944,136.9324,5.251,2.0184
2026-07-23T16:01:15.950,136.9522,5.1139,1.9988
2026-07-23T16:01:15.955,136.9662,5.1335,2.0967
2026-07-23T16:01:15.955,136.9692,5.1139,1.9988
2026-07-23T16:01:15.980,136.9741,5.2901,2.1359
2026-07-23T16:01:15.986,136.9741,5.0747,2.0575
2026-07-23T16:01:16.003,137.0043,5.3293,2.1163
2026-07-23T16:01:16.003,137.0043,5.1922,2.0967
2026-07-23T16:01:16.020,137.0098,5.4664,2.1946
2026-07-23T16:01:16.025,137.0162,5.3293,2.2142
2026-07-23T16:01:16.037,137.0324,5.4859,2.2534
2026-07-23T16:01:16.037,137.0324,5.388,2.2729
2026-07-23T16:01:16.055,137.0475,5.4468,2.2338
2026-07-23T16:01:16.067,137.0716,5.4468,2.2534
2026-07-23T16:01:16.083,137.079,5.5251,2.2925
2026-07-23T16:01:16.083,137.0833,5.5447,2.2338
2026-07-23T16:01:16.100,137.0872,5.5838,2.3904
2026-07-23T16:01:16.100,137.1199,5.5447,2.3513
2026-07-23T16:01:16.122,137.121,5.5838,2.3904
2026-07-23T16:01:16.130,137.1269,5.5838,2.4296
2026-07-23T16:01:16.138,137.1325,5.6622,2.3513
2026-07-23T16:01:16.162,137.1583,5.6034,2.4883
2026-07-23T16:01:16.162,137.1583,5.7209,2.4883
2026-07-23T16:01:16.172,137.166,5.7601,2.5275
2026-07-23T16:01:16.183,137.1686,5.8188,2.4883
2026-07-23T16:01:16.187,137.1965,5.7013,2.5471
2026-07-23T16:01:16.197,137.1995,5.7013,2.5666
2026-07-23T16:01:16.209,137.1995,5.6817,2.5275
2026-07-23T16:01:16.219,137.2057,5.7797,2.4883
2026-07-23T16:01:16.241,137.2344,5.7013,2.4492
2026-07-23T16:01:16.241,137.2351,5.7601,2.5471
2026-07-23T16:01:16.250,137.2373,5.6426,2.5079
2026-07-23T16:01:16.259,137.2415,5.8384,2.5275
2026-07-23T16:01:16.279,137.2723,5.6426,2.5275
2026-07-23T16:01:16.279,137.2723,5.7601,2.4687
2026-07-23T16:01:16.292,137.2723,5.5838,2.4883
2026-07-23T16:01:16.292,137.2847,5.7992,2.4492
2026-07-23T16:01:16.317,137.3006,5.5447,2.4687
2026-07-23T16:01:16.323,137.3152,5.9167,2.3904
2026-07-23T16:01:16.323,137.3162,5.5838,2.4296
2026-07-23T16:01:16.335,137.3466,5.6817,2.4296
2026-07-23T16:01:16.351,137.3486,5.5251,2.3317
2026-07-23T16:01:16.351,137.3555,5.7405,2.3708
2026-07-23T16:01:16.367,137.3555,5.6034,2.3904
2026-07-23T16:01:16.382,137.378,5.7013,2.3904
2026-07-23T16:01:16.383,137.378,5.5447,2.3513
2026-07-23T16:01:16.397,137.3869,5.7209,2.4492
2026-07-23T16:01:16.406,137.394,5.5643,2.3513
2026-07-23T16:01:16.420,137.4096,5.7209,2.4296
2026-07-23T16:01:16.429,137.4096,5.5838,2.3904
2026-07-23T16:01:16.438,137.4257,5.7405,2.3904
2026-07-23T16:01:16.450,137.4507,5.5447,2.4296
2026-07-23T16:01:16.460,137.4587,5.623,2.3904
2026-07-23T16:01:16.476,137.4587,5.623,2.41
2026-07-23T16:01:16.476,137.4587,5.6426,2.4492
2026-07-23T16:01:16.492,137.4896,5.623,2.3513
2026-07-23T16:01:16.492,137.4896,5.5838,2.4883
2026-07-23T16:01:16.509,137.4991,5.5251,2.3904
2026-07-23T16:01:16.520,137.522,5.5055,2.41
2026-07-23T16:01:16.531,137.522,5.3685,2.3904
2026-07-23T16:01:16.540,137.5349,5.3097,2.3904
2026-07-23T16:01:16.550,137.5359,5.2901,2.41
2026-07-23T16:01:16.555,137.5675,5.2706,2.3904
2026-07-23T16:01:16.573,137.5733,5.2314,2.0575
2026-07-23T16:01:16.573,137.5761,5.251,2.3708
2026-07-23T16:01:16.587,137.5811,5.2314,2.4492
2026-07-23T16:01:16.587,137.6078,5.2706,2.3708
2026-07-23T16:01:16.603,137.6123,5.2706,2.3904
2026-07-23T16:01:16.620,137.6145,5.3293,2.3513
2026-07-23T16:01:16.632,137.6145,5.2706,2.3904
2026-07-23T16:01:16.634,137.6466,5.4468,2.41
2026-07-23T16:01:16.652,137.6481,5.3293,2.3513
2026-07-23T16:01:16.663,137.6538,5.5251,2.3121
2026-07-23T16:01:16.673,137.6599,5.3489,2.4492
2026-07-23T16:01:16.681,137.6869,5.5055,2.3121
2026-07-23T16:01:16.683,137.6889,5.3685,2.3121
2026-07-23T16:01:16.699,137.6939,5.5447,2.2729
2026-07-23T16:01:16.711,137.6991,5.3293,2.2925
2026-07-23T16:01:16.720,137.7278,5.4664,2.2729
2026-07-23T16:01:16.729,137.7288,5.3097,2.3121
2026-07-23T16:01:16.745,137.733,5.4859,2.2729
2026-07-23T16:01:16.750,137.733,5.2901,2.2925
2026-07-23T16:01:16.761,137.7588,5.5251,2.2925
2026-07-23T16:01:16.761,137.766,5.3489,2.2729
2026-07-23T16:01:16.778,137.7694,5.5251,2.2534
2026-07-23T16:01:16.795,137.7993,5.4468,2.3121
2026-07-23T16:01:16.808,137.805,5.4859,2.2925
2026-07-23T16:01:16.810,137.8104,5.3293,2.2338
2026-07-23T16:01:16.820,137.814,5.5251,2.2925
2026-07-23T16:01:16.827,137.8359,5.3489,2.175
2026-07-23T16:01:16.840,137.8359,5.5447,2.2729
2026-07-23T16:01:16.850,137.8359,5.4272,2.2338
2026-07-23T16:01:16.865,137.851,5.5838,2.3317
2026-07-23T16:01:16.865,137.8535,5.3685,2.1946
2026-07-23T16:01:16.887,137.8828,5.4468,2.2729
2026-07-23T16:01:16.887,137.8828,5.3685,2.2142
2026-07-23T16:01:16.902,137.8896,5.4468,2.2729
2026-07-23T16:01:16.906,137.9154,5.4076,2.2142
2026-07-23T16:01:16.925,137.9154,5.4664,2.2338
2026-07-23T16:01:16.925,137.9154,5.4468,2.2142
2026-07-23T16:01:16.938,137.9304,5.4664,2.2142
2026-07-23T16:01:16.965,137.9619,5.5447,2.2534
2026-07-23T16:01:16.965,137.966,5.5447,2.2338
2026-07-23T16:01:16.966,137.9697,5.5251,2.2534
2026-07-23T16:01:16.983,137.9743,5.5447,2.1946
2026-07-23T16:01:16.990,137.9994,5.5251,2.2534
2026-07-23T16:01:16.997,137.9994,5.5251,2.2338
2026-07-23T16:01:17.013,138.0091,5.4664,2.2534
2026-07-23T16:01:17.020,138.0182,5.5251,2.1555
2026-07-23T16:01:17.029,138.0202,5.4664,2.2534
2026-07-23T16:01:17.032,138.0404,5.6034,2.1163
2026-07-23T16:01:17.050,138.0404,5.6034,2.1946
2026-07-23T16:01:17.060,138.0561,5.623,2.175
2026-07-23T16:01:17.069,138.0642,5.4664,2.1946
2026-07-23T16:01:17.076,138.0875,5.6817,2.175
2026-07-23T16:01:17.091,138.0996,5.4664,2.0967
2026-07-23T16:01:17.091,138.1032,5.6034,2.0967
2026-07-23T16:01:17.107,138.1032,5.4076,2.1555
2026-07-23T16:01:17.117,138.1059,5.6034,2.0967
2026-07-23T16:01:17.138,138.1394,5.4468,2.175
2026-07-23T16:01:17.138,138.1394,5.5643,2.0967
2026-07-23T16:01:17.150,138.1394,5.4076,2.0771
2026-07-23T16:01:17.157,138.1508,5.5643,2.0771
2026-07-23T16:01:17.170,138.1754,5.388,2.0184
2026-07-23T16:01:17.184,138.1754,5.5838,2.0967
2026-07-23T16:01:17.190,138.182,5.388,2.0575
2026-07-23T16:01:17.202,138.1845,5.5643,2.2142
2026-07-23T16:01:17.205,138.216,5.4664,2.0575
2026-07-23T16:01:17.221,138.216,5.5838,2.1555
2026-07-23T16:01:17.233,138.216,5.5447,2.0967
2026-07-23T16:01:17.240,138.2329,5.623,2.0967
2026-07-23T16:01:17.250,138.2614,5.5251,2.0967
2026-07-23T16:01:17.250,138.2624,5.6034,2.1163
2026-07-23T16:01:17.267,138.2681,5.4859,2.1163
2026-07-23T16:01:17.282,138.2726,5.5055,2.1555
2026-07-23T16:01:17.296,138.3056,5.5055,2.1359
2026-07-23T16:01:17.296,138.3087,5.5838,2.2338
2026-07-23T16:01:17.313,138.311,5.5838,2.1555
2026-07-23T16:01:17.321,138.3147,5.6622,2.2338
2026-07-23T16:01:17.329,138.3208,5.6034,2.175
2026-07-23T16:01:17.350,138.3401,5.623,2.2534
2026-07-23T16:01:17.356,138.3401,5.623,2.2729
2026-07-23T16:01:17.362,138.3562,5.6622,2.2142
2026-07-23T16:01:17.365,138.3588,5.6622,2.2534
2026-07-23T16:01:17.391,138.3763,5.7209,2.2338
2026-07-23T16:01:17.391,138.3879,5.7601,2.2925
2026-07-23T16:01:17.391,138.3879,5.7209,2.2925
2026-07-23T16:01:17.410,138.3879,5.8384,2.3317
2026-07-23T16:01:17.424,138.4244,5.8188,2.3513
2026-07-23T16:01:17.427,138.4268,5.6622,2.3317
2026-07-23T16:01:17.439,138.4327,5.6817,2.2925
2026-07-23T16:01:17.450,138.4349,5.6622,2.3904
2026-07-23T16:01:17.458,138.4507,5.8188,2.3708
2026-07-23T16:01:17.472,138.4507,5.6622,2.4296
2026-07-23T16:01:17.478,138.4678,5.858,2.4492
2026-07-23T16:01:17.490,138.4704,5.7013,2.5275
2026-07-23T16:01:17.502,138.4982,5.9559,2.5275
2026-07-23T16:01:17.502,138.4992,5.7992,2.5079
2026-07-23T16:01:17.519,138.4992,5.9559,2.4492
2026-07-23T16:01:17.532,138.5329,5.9559,2.4883
2026-07-23T16:01:17.532,138.5405,6.0929,2.4883
2026-07-23T16:01:17.549,138.5442,5.995,2.5471
2026-07-23T16:01:17.564,138.5442,6.2496,2.5471
2026-07-23T16:01:17.565,138.5758,6.1125,2.5862
2026-07-23T16:01:17.579,138.5773,6.2888,2.645
2026-07-23T16:01:17.591,138.5773,6.2496,2.6841
2026-07-23T16:01:17.595,138.5862,6.5041,2.7429
2026-07-23T16:01:17.595,138.613,6.3867,2.7625
2026-07-23T16:01:17.621,138.6154,6.602,2.8212
2026-07-23T16:01:17.628,138.6154,6.5433,2.8604
2026-07-23T16:01:17.637,138.6246,6.7979,2.8995
2026-07-23T16:01:17.658,138.6482,6.6804,2.8408
2026-07-23T16:01:17.658,138.6482,6.8762,2.8799
2026-07-23T16:01:17.675,138.6612,6.7587,2.782
2026-07-23T16:01:17.675,138.6775,6.8566,2.8408
2026-07-23T16:01:17.690,138.6898,6.8174,2.8799
2026-07-23T16:01:17.699,138.6898,6.7979,2.7625
2026-07-23T16:01:17.712,138.6947,6.7391,2.7429
2026-07-23T16:01:17.721,138.7181,6.7195,2.8212
2026-07-23T16:01:17.728,138.7227,6.7587,2.7233
2026-07-23T16:01:17.741,138.7267,6.7195,2.7429
2026-07-23T16:01:17.745,138.7327,6.6804,2.7233
2026-07-23T16:01:17.753,138.7498,6.6804,2.6645
2026-07-23T16:01:17.769,138.7498,6.602,2.6645
2026-07-23T16:01:17.783,138.7666,6.6804,2.7037
2026-07-23T16:01:17.791,138.7831,6.6804,2.6058
2026-07-23T16:01:17.801,138.7831,6.7391,2.7037
2026-07-23T16:01:17.801,138.7975,6.7587,2.6841
2026-07-23T16:01:17.817,138.7995,6.7979,2.645
2026-07-23T16:01:17.834,138.8258,6.7587,2.7625
2026-07-23T16:01:17.834,138.8295,6.7391,2.6841
2026-07-23T16:01:17.850,138.8355,6.7783,2.6841
2026-07-23T16:01:17.850,138.8567,6.7783,2.7037
2026-07-23T16:01:17.866,138.8612,6.8566,2.6841
2026-07-23T16:01:17.886,138.8652,6.8762,2.645
2026-07-23T16:01:17.890,138.8825,6.7587,2.6254
2026-07-23T16:01:17.896,138.8825,6.837,2.645
2026-07-23T16:01:17.912,138.895,6.6999,2.6645
2026-07-23T16:01:17.928,138.9088,6.8174,2.6058
2026-07-23T16:01:17.933,138.9088,6.6608,2.645
2026-07-23T16:01:17.933,138.9244,6.7979,2.5862
2026-07-23T16:01:17.950,138.9292,6.6999,2.6058
2026-07-23T16:01:17.960,138.9561,6.7783,2.5471
2026-07-23T16:01:17.960,138.9561,6.6999,2.6058
2026-07-23T16:01:17.980,138.9561,6.8174,2.645
2026-07-23T16:01:17.993,138.9883,6.6999,2.5471
2026-07-23T16:01:17.993,138.9883,6.8566,2.5666
2026-07-23T16:01:18.007,138.997,6.7195,2.6058
2026-07-23T16:01:18.017,139.0255,6.8958,2.5666
2026-07-23T16:01:18.033,139.0327,6.7391,2.5079
2026-07-23T16:01:18.039,139.0356,6.8762,2.645
2026-07-23T16:01:18.050,139.0356,6.7195,2.6058
2026-07-23T16:01:18.074,139.0788,6.8958,2.6254
2026-07-23T16:01:18.074,139.0841,6.7783,2.6058
2026-07-23T16:01:18.084,139.0881,6.9153,2.645
2026-07-23T16:01:18.086,139.0922,6.837,2.6058
2026-07-23T16:01:18.102,139.1274,6.8566,2.6254
2026-07-23T16:01:18.102,139.1308,6.8174,2.6058
2026-07-23T16:01:18.122,139.1349,6.7587,2.5862
2026-07-23T16:01:18.130,139.1381,6.7587,2.5471
2026-07-23T16:01:18.143,139.1467,6.7979,2.5471
2026-07-23T16:01:18.154,139.1487,6.8174,2.5666
2026-07-23T16:01:18.158,139.171,6.7979,2.5471
2026-07-23T16:01:18.168,139.171,6.7783,2.5471
2026-07-23T16:01:18.178,139.1783,6.7391,2.5666
2026-07-23T16:01:18.197,139.1793,6.7587,2.5471
2026-07-23T16:01:18.199,139.1793,6.6804,2.4296
2026-07-23T16:01:18.213,139.2077,6.6804,2.5275
2026-07-23T16:01:18.217,139.2099,6.6804,2.4492
2026-07-23T16:01:18.230,139.2099,6.7391,2.4492
2026-07-23T16:01:18.238,139.2392,6.7195,2.4687
2026-07-23T16:01:18.250,139.2436,6.7391,2.5471
2026-07-23T16:01:18.261,139.2487,6.6999,2.4296
2026-07-23T16:01:18.261,139.2487,6.7587,2.4492
2026-07-23T16:01:18.285,139.276,6.6999,2.4492
2026-07-23T16:01:18.294,139.2798,6.7979,2.4883
2026-07-23T16:01:18.299,139.2828,6.6804,2.41
2026-07-23T16:01:18.310,139.3063,6.6999,2.41
2026-07-23T16:01:18.322,139.3063,6.6804,2.4296
2026-07-23T16:01:18.334,139.3063,6.6608,2.5079
2026-07-23T16:01:18.337,139.3413,6.7587,2.4687
2026-07-23T16:01:18.350,139.3413,6.6412,2.4492
2026-07-23T16:01:18.357,139.3413,6.8958,2.5275
2026-07-23T16:01:18.366,139.3753,6.7391,2.5471
2026-07-23T16:01:18.372,139.3801,6.9349,2.4883
2026-07-23T16:01:18.387,139.3846,6.8566,2.6058
2026-07-23T16:01:18.392,139.3907,6.9937,2.5666
2026-07-23T16:01:18.408,139.4228,6.9349,2.6058
2026-07-23T16:01:18.422,139.4228,7.0328,2.6058
2026-07-23T16:01:18.442,139.4329,6.9937,2.6058
2026-07-23T16:01:18.442,139.4329,7.0524,2.5862
2026-07-23T16:01:18.452,139.4625,7.0328,2.6254
2026-07-23T16:01:18.466,139.4661,7.1307,2.6645
2026-07-23T16:01:18.474,139.4661,7.0132,2.5862
2026-07-23T16:01:18.484,139.4713,7.1895,2.6645
2026-07-23T16:01:18.484,139.4783,7.1111,2.6254
2026-07-23T16:01:18.498,139.5098,7.2286,2.6841
2026-07-23T16:01:18.498,139.5098,7.209,2.6645
2026-07-23T16:01:18.517,139.5141,7.2874,2.645
2026-07-23T16:01:18.531,139.5196,7.1895,2.6254
2026-07-23T16:01:18.533,139.5466,7.1503,2.6841
2026-07-23T16:01:18.550,139.5494,7.209,2.6254
2026-07-23T16:01:18.561,139.5494,7.1503,2.6645
2026-07-23T16:01:18.570,139.5494,7.2678,2.6058
2026-07-23T16:01:18.593,139.5846,7.2286,2.6645
2026-07-23T16:01:18.593,139.5846,7.2874,2.6254
2026-07-23T16:01:18.600,139.589,7.2678,2.7625
2026-07-23T16:01:18.608,139.5994,7.3461,2.6254
2026-07-23T16:01:18.624,139.6213,7.2874,2.6645
2026-07-23T16:01:18.624,139.6213,7.3657,2.6841
2026-07-23T16:01:18.646,139.6362,7.3657,2.6645
2026-07-23T16:01:18.650,139.6362,7.4832,2.7037
2026-07-23T16:01:18.672,139.6662,7.3853,2.6841
2026-07-23T16:01:18.672,139.6662,7.4636,2.6841
2026-07-23T16:01:18.684,139.6734,7.3461,2.6841
2026-07-23T16:01:18.687,139.6734,7.5028,2.7625
2026-07-23T16:01:18.703,139.6995,7.4244,2.7037
2026-07-23T16:01:18.703,139.7095,7.5223,2.8016
2026-07-23T16:01:18.724,139.7161,7.5028,2.782
2026-07-23T16:01:18.732,139.7161,7.6007,2.8016
2026-07-23T16:01:18.742,139.7407,7.5811,2.8408
2026-07-23T16:01:18.750,139.7467,7.6594,2.8212
2026-07-23T16:01:18.760,139.7574,7.7377,2.8408
2026-07-23T16:01:18.767,139.7866,7.6202,2.9583
2026-07-23T16:01:18.791,139.7896,7.679,2.8604
2026-07-23T16:01:18.791,139.7896,7.6202,2.9583
2026-07-23T16:01:18.797,139.7951,7.6594,2.8995
2026-07-23T16:01:18.808,139.7992,7.6202,2.8799
2026-07-23T16:01:18.832,139.8329,7.6594,2.8408
2026-07-23T16:01:18.832,139.8329,7.6007,2.8408
2026-07-23T16:01:18.840,139.8329,7.7181,2.8212
2026-07-23T16:01:18.855,139.8416,7.5419,2.8212
2026-07-23T16:01:18.861,139.8683,7.6202,2.8408
2026-07-23T16:01:18.877,139.8769,7.5223,2.782
2026-07-23T16:01:18.877,139.8791,7.5615,2.8212
2026-07-23T16:01:18.892,139.8814,7.4636,2.7625
2026-07-23T16:01:18.892,139.9087,7.5811,2.782
2026-07-23T16:01:18.917,139.9143,7.6007,2.7233
2026-07-23T16:01:18.924,139.9166,7.679,2.8212
2026-07-23T16:01:18.932,139.9219,7.5615,2.9191
2026-07-23T16:01:18.940,139.9219,7.5615,2.8212
2026-07-23T16:01:18.955,139.9412,7.6202,2.7233
2026-07-23T16:01:18.959,139.9523,7.5028,2.782
2026-07-23T16:01:18.973,139.9523,7.6202,2.7037
2026-07-23T16:01:18.992,139.9829,7.4832,2.8016
2026-07-23T16:01:18.992,139.9829,7.5811,2.7625
2026-07-23T16:01:19.003,139.9829,7.5028,2.8212
2026-07-23T16:01:19.003,139.9829,7.6202,2.7037
2026-07-23T16:01:19.023,140.0197,7.5223,2.782
2026-07-23T16:01:19.023,140.0247,7.6202,2.8408
2026-07-23T16:01:19.034,140.0296,7.6594,2.782
2026-07-23T16:01:19.050,140.0463,7.679,2.8212
2026-07-23T16:01:19.065,140.061,7.5223,2.8408
2026-07-23T16:01:19.071,140.061,7.7181,2.9583
2026-07-23T16:01:19.080,140.0685,7.6202,2.8604
2026-07-23T16:01:19.084,140.0929,7.7573,2.8408
2026-07-23T16:01:19.097,140.0929,7.6202,2.8799
2026-07-23T16:01:19.112,140.0986,7.8161,2.8799
2026-07-23T16:01:19.122,140.1036,7.5615,2.8408
2026-07-23T16:01:19.133,140.1347,7.6594,2.8799
2026-07-23T16:01:19.144,140.1415,7.6007,2.8995
2026-07-23T16:01:19.149,140.1445,7.6594,2.8408
2026-07-23T16:01:19.159,140.1744,7.679,2.8995
2026-07-23T16:01:19.176,140.1827,7.679,2.8995
2026-07-23T16:01:19.186,140.1827,7.7573,2.8408
2026-07-23T16:01:19.195,140.1871,7.679,2.8995
2026-07-23T16:01:19.200,140.1915,7.7377,2.8799
2026-07-23T16:01:19.223,140.2239,7.7377,2.9387
2026-07-23T16:01:19.223,140.225,7.7377,2.9191
2026-07-23T16:01:19.233,140.2324,7.7573,2.8408
2026-07-23T16:01:19.242,140.237,7.7965,2.8799
2026-07-23T16:01:19.253,140.2663,7.7965,2.8995
2026-07-23T16:01:19.253,140.2767,7.679,2.8604
2026-07-23T16:01:19.281,140.2805,7.7769,2.8799
2026-07-23T16:01:19.283,140.283,7.7573,2.8995
2026-07-23T16:01:19.288,140.2864,7.7965,2.8995
2026-07-23T16:01:19.300,140.3137,7.8748,2.8995
2026-07-23T16:01:19.300,140.3137,7.8748,2.9191
2026-07-23T16:01:19.327,140.3208,7.8161,2.9191
2026-07-23T16:01:19.334,140.3208,7.8552,2.8799
2026-07-23T16:01:19.350,140.3435,7.8552,2.9387
2026-07-23T16:01:19.350,140.3435,7.914,2.9387
2026-07-23T16:01:19.363,140.3595,7.8748,3.017
2026-07-23T16:01:19.372,140.3595,8.051,2.9778
2026-07-23T16:01:19.388,140.3908,8.0119,3.017
2026-07-23T16:01:19.388,140.3968,8.1293,2.9387
2026-07-23T16:01:19.394,140.399,7.9531,3.017
2026-07-23T16:01:19.410,140.4053,8.0706,2.9778
2026-07-23T16:01:19.421,140.4068,7.9531,3.0366
2026-07-23T16:01:19.434,140.4329,8.1293,2.9387
2026-07-23T16:01:19.434,140.4329,8.0314,2.9583
2026-07-23T16:01:19.451,140.443,8.2272,2.9974
2026-07-23T16:01:19.460,140.47,8.0706,2.9387
2026-07-23T16:01:19.473,140.4725,8.2468,3.0366
2026-07-23T16:01:19.484,140.4725,8.1293,2.9387
2026-07-23T16:01:19.491,140.4858,8.2272,3.0562
2026-07-23T16:01:19.505,140.5172,7.9923,2.9387
2026-07-23T16:01:19.517,140.525,8.1881,3.0366
2026-07-23T16:01:19.523,140.5298,8.0314,2.8995
2026-07-23T16:01:19.523,140.5328,8.2272,3.0366
2026-07-23T16:01:19.544,140.5363,8.1489,2.9583
2026-07-23T16:01:19.554,140.5649,8.2272,2.9974
2026-07-23T16:01:19.554,140.5669,8.2077,3.0366
2026-07-23T16:01:19.568,140.5669,8.2077,3.0366
2026-07-23T16:01:19.584,140.5725,8.1489,2.9387
2026-07-23T16:01:19.587,140.6015,8.1489,2.9778
2026-07-23T16:01:19.599,140.6015,8.1489,2.9191
2026-07-23T16:01:19.615,140.6117,8.1685,2.9583
2026-07-23T16:01:19.618,140.6117,8.0902,2.9778
2026-07-23T16:01:19.635,140.6443,8.1098,2.9778
2026-07-23T16:01:19.635,140.6443,8.0902,2.9778
2026-07-23T16:01:19.652,140.6559,8.0902,2.8799
2026-07-23T16:01:19.663,140.661,7.9923,2.9191
2026-07-23T16:01:19.672,140.6663,8.1293,2.9191
2026-07-23T16:01:19.683,140.6922,8.1098,2.8604
2026-07-23T16:01:19.683,140.6922,8.0119,2.8799
2026-07-23T16:01:19.701,140.6996,8.051,2.9191
2026-07-23T16:01:19.712,140.707,8.0314,2.8799
2026-07-23T16:01:19.726,140.7229,8.0119,2.9583
2026-07-23T16:01:19.735,140.7339,8.2272,2.8995
2026-07-23T16:01:19.735,140.7339,8.0902,2.9191
2026-07-23T16:01:19.750,140.744,8.1489,2.8995
2026-07-23T16:01:19.763,140.7461,8.0706,2.9778
2026-07-23T16:01:19.763,140.7755,8.2468,2.9387
2026-07-23T16:01:19.785,140.7755,8.0119,2.9583
2026-07-23T16:01:19.793,140.7861,8.2077,2.9191
2026-07-23T16:01:19.797,140.7861,8.0314,2.9778
2026-07-23T16:01:19.817,140.8018,8.2664,2.9387
2026-07-23T16:01:19.826,140.8186,8.0706,2.9974
2026-07-23T16:01:19.826,140.8231,8.2468,3.0366
2026-07-23T16:01:19.837,140.8297,8.1685,3.017
2026-07-23T16:01:19.853,140.8588,8.3056,3.0757
2026-07-23T16:01:19.869,140.8645,8.0902,3.017
2026-07-23T16:01:19.869,140.866,8.3839,3.017
2026-07-23T16:01:19.884,140.866,8.1685,3.0757
2026-07-23T16:01:19.886,140.8964,8.3447,3.0953
2026-07-23T16:01:19.899,140.9033,8.1881,3.0757
2026-07-23T16:01:19.910,140.9083,8.4231,3.1932
2026-07-23T16:01:19.917,140.9121,8.2468,3.1149
2026-07-23T16:01:19.935,140.9442,8.3643,3.1345
2026-07-23T16:01:19.935,140.9442,8.1881,3.0562
2026-07-23T16:01:19.954,140.951,8.3447,3.0366
2026-07-23T16:01:19.968,140.951,8.2272,2.9778
2026-07-23T16:01:19.968,140.9773,8.2664,2.9974
2026-07-23T16:01:19.983,140.9773,8.1881,2.9387
2026-07-23T16:01:19.993,140.9848,8.2077,2.9778
2026-07-23T16:01:20.002,140.9878,8.2664,2.9974
2026-07-23T16:01:20.002,141.0071,8.3839,3.0366
2026-07-23T16:01:20.027,141.0201,8.2272,2.9583
2026-07-23T16:01:20.028,141.0228,8.2664,2.9778
2026-07-23T16:01:20.042,141.0256,8.1881,2.9778
2026-07-23T16:01:20.050,141.0385,8.2664,2.9974
2026-07-23T16:01:20.058,141.0573,8.2272,2.9778
2026-07-23T16:01:20.071,141.0573,8.2664,2.9583
2026-07-23T16:01:20.084,141.0731,8.1881,3.0366
2026-07-23T16:01:20.089,141.0866,8.286,2.9974
2026-07-23T16:01:20.105,141.0866,8.2664,3.0562
2026-07-23T16:01:20.108,141.0925,8.3252,3.0366
2026-07-23T16:01:20.123,141.1091,8.2077,3.0366
2026-07-23T16:01:20.124,141.122,8.4035,2.9974
2026-07-23T16:01:20.137,141.1248,8.1881,3.0366
2026-07-23T16:01:20.153,141.1529,8.3643,3.0366
2026-07-23T16:01:20.160,141.1529,8.1293,3.0562
2026-07-23T16:01:20.180,141.16,8.286,2.9778
2026-07-23T16:01:20.180,141.164,8.0119,2.9583
2026-07-23T16:01:20.185,141.1854,8.1685,2.9191
2026-07-23T16:01:20.209,141.1945,7.9923,2.9191
2026-07-23T16:01:20.215,141.1973,8.1293,2.8995
2026-07-23T16:01:20.224,141.2165,7.9923,2.8799
2026-07-23T16:01:20.232,141.2165,8.1489,3.1149
2026-07-23T16:01:20.248,141.2288,8.0314,2.9387
2026-07-23T16:01:20.250,141.2288,8.286,2.9778
2026-07-23T16:01:20.267,141.2582,8.0902,2.9778
2026-07-23T16:01:20.267,141.2603,8.3643,3.017
2026-07-23T16:01:20.280,141.2649,8.1685,3.0562
2026-07-23T16:01:20.295,141.2941,8.4426,3.017
2026-07-23T16:01:20.295,141.2969,8.2077,3.0366
2026-07-23T16:01:20.316,141.3035,8.3447,3.0562
2026-07-23T16:01:20.324,141.3294,8.2468,2.9974
2026-07-23T16:01:20.337,141.3331,8.3839,3.017
2026-07-23T16:01:20.345,141.3361,8.3056,3.0757
2026-07-23T16:01:20.354,141.3393,8.3056,3.0953
2026-07-23T16:01:20.374,141.3662,8.286,3.0366
2026-07-23T16:01:20.374,141.3718,8.286,3.0953
2026-07-23T16:01:20.384,141.3733,8.286,3.0953
2026-07-23T16:01:20.390,141.3733,8.286,3.0366
2026-07-23T16:01:20.406,141.4037,8.2272,3.017
2026-07-23T16:01:20.410,141.4037,8.3447,3.0366
2026-07-23T16:01:20.424,141.4037,8.286,3.017
2026-07-23T16:01:20.435,141.4037,8.2077,3.017
2026-07-23T16:01:20.442,141.4401,8.1881,3.0366
2026-07-23T16:01:20.452,141.443,8.1881,3.017
2026-07-23T16:01:20.454,141.443,8.2664,3.0953
2026-07-23T16:01:20.472,141.4735,8.2468,2.9974
2026-07-23T16:01:20.486,141.4797,8.286,3.0562
2026-07-23T16:01:20.502,141.4846,8.3056,2.9974
2026-07-23T16:01:20.502,141.4867,8.1685,3.0953
2026-07-23T16:01:20.502,141.504,8.3252,3.0953
2026-07-23T16:01:20.517,141.504,8.2468,3.1345
2026-07-23T16:01:20.535,141.5136,8.4622,3.0953
2026-07-23T16:01:20.540,141.5451,8.3447,3.1345
2026-07-23T16:01:20.552,141.5451,8.5797,3.1149
2026-07-23T16:01:20.555,141.5451,8.4231,3.2324
2026-07-23T16:01:20.572,141.5609,8.5405,3.1736
2026-07-23T16:01:20.584,141.578,8.4035,3.2911
2026-07-23T16:01:20.584,141.5871,8.5797,3.1541
2026-07-23T16:01:20.596,141.5928,8.4426,3.1932
2026-07-23T16:01:20.612,141.5928,8.658,3.1932
2026-07-23T16:01:20.624,141.6243,8.4818,3.1736
2026-07-23T16:01:20.629,141.6243,8.5993,3.2716
2026-07-23T16:01:20.638,141.6329,8.4426,3.1541
2026-07-23T16:01:20.667,141.6576,8.5405,3.2716
2026-07-23T16:01:20.667,141.6576,8.3252,3.1736
2026-07-23T16:01:20.675,141.6662,8.521,3.1736
2026-07-23T16:01:20.684,141.6717,8.4426,3.2128
2026-07-23T16:01:20.691,141.6931,8.6189,3.2128
2026-07-23T16:01:20.707,141.6931,8.4426,3.1345
2026-07-23T16:01:20.708,141.6996,8.6384,3.1736
2026-07-23T16:01:20.723,141.7034,8.4622,3.1345
2026-07-23T16:01:20.739,141.7398,8.5601,3.1541
2026-07-23T16:01:20.739,141.7398,8.5014,3.1149
2026-07-23T16:01:20.754,141.7505,8.5014,3.1541
2026-07-23T16:01:20.760,141.7818,8.4818,3.1149
2026-07-23T16:01:20.770,141.7881,8.4426,3.0953
2026-07-23T16:01:20.770,141.7881,8.4231,3.1149
2026-07-23T16:01:20.791,141.7881,8.4622,3.1541
2026-07-23T16:01:20.801,141.7881,8.3643,3.1149
2026-07-23T16:01:20.817,141.8183,8.4622,3.0366
2026-07-23T16:01:20.817,141.8248,8.3839,3.0757
2026-07-23T16:01:20.833,141.8316,8.5014,3.0562
2026-07-23T16:01:20.839,141.838,8.3447,3.0366
2026-07-23T16:01:20.850,141.8649,8.3839,3.0366
2026-07-23T16:01:20.869,141.8685,8.3252,3.0366
2026-07-23T16:01:20.876,141.8718,8.286,3.0366
2026-07-23T16:01:20.882,141.8718,8.2664,3.0757
2026-07-23T16:01:20.889,141.8739,8.286,2.9387
2026-07-23T16:01:20.897,141.9016,8.2468,3.0366
2026-07-23T16:01:20.912,141.9093,8.2664,2.9583
2026-07-23T16:01:20.925,141.9114,8.2077,3.0562
2026-07-23T16:01:20.928,141.94,8.4035,2.9778
2026-07-23T16:01:20.948,141.9435,8.2272,3.0757
2026-07-23T16:01:20.952,141.9469,8.3447,3.017
2026-07-23T16:01:20.962,141.9469,8.1685,2.9974
2026-07-23T16:01:20.975,141.9795,8.3447,2.9387
2026-07-23T16:01:20.984,141.9795,8.1881,2.9387
2026-07-23T16:01:20.994,141.9849,8.3447,2.8995
2026-07-23T16:01:20.998,141.9886,8.1489,2.9583
2026-07-23T16:01:21.007,142.0189,8.3056,2.9583
2026-07-23T16:01:21.025,142.0225,8.1685,2.8995
2026-07-23T16:01:21.030,142.0266,8.3839,2.9387
2026-07-23T16:01:21.044,142.0266,8.1489,2.8995
2026-07-23T16:01:21.055,142.0503,8.3447,2.9778
2026-07-23T16:01:21.055,142.0503,8.1685,2.9974
2026-07-23T16:01:21.073,142.066,8.3252,2.9778
2026-07-23T16:01:21.085,142.0743,8.1098,2.9583
2026-07-23T16:01:21.085,142.1018,8.3056,2.9583
2026-07-23T16:01:21.101,142.1053,8.1881,2.8995
2026-07-23T16:01:21.101,142.1053,8.4426,2.9387
2026-07-23T16:01:21.125,142.1136,8.2272,2.9387
2026-07-23T16:01:21.133,142.1329,8.4622,2.9583
2026-07-23T16:01:21.140,142.1329,8.3643,3.0366
2026-07-23T16:01:21.153,142.1436,8.4426,2.9974
2026-07-23T16:01:21.164,142.1451,8.521,2.9778
2026-07-23T16:01:21.167,142.1745,8.5797,3.0562
2026-07-23T16:01:21.184,142.1775,8.6776,3.017
2026-07-23T16:01:21.194,142.1775,8.5405,3.0562
2026-07-23T16:01:21.203,142.1855,8.5601,3.0366
2026-07-23T16:01:21.212,142.2078,8.5797,3.0366
2026-07-23T16:01:21.217,142.2159,8.5601,3.0366
2026-07-23T16:01:21.240,142.2238,8.6189,3.0757
2026-07-23T16:01:21.240,142.2404,8.658,3.0562
2026-07-23T16:01:21.259,142.2511,8.8147,3.0757
2026-07-23T16:01:21.259,142.2536,8.8147,3.1932
2026-07-23T16:01:21.275,142.2554,8.9713,3.2128
2026-07-23T16:01:21.275,142.2873,9.0496,3.3107
2026-07-23T16:01:21.291,142.2898,9.1475,3.2911
2026-07-23T16:01:21.304,142.2898,9.1867,3.389
2026-07-23T16:01:21.306,142.2898,9.3238,3.4282
2026-07-23T16:01:21.325,142.3187,9.4217,3.4674
2026-07-23T16:01:21.328,142.3267,9.5,3.4674
2026-07-23T16:01:21.341,142.3331,9.5587,3.5457
2026-07-23T16:01:21.354,142.3348,9.7545,3.4869
2026-07-23T16:01:21.361,142.3602,9.6371,3.624
2026-07-23T16:01:21.370,142.3602,9.8916,3.6044
2026-07-23T16:01:21.386,142.3661,9.7154,3.5848
2026-07-23T16:01:21.392,142.3953,9.9504,3.5457
2026-07-23T16:01:21.401,142.3978,9.7937,3.624
2026-07-23T16:01:21.411,142.4022,9.9504,3.5653
2026-07-23T16:01:21.421,142.4022,9.872,3.624
2026-07-23T16:01:21.425,142.4372,10.0483,3.6436
2026-07-23T16:01:21.446,142.4416,9.872,3.6436
2026-07-23T16:01:21.449,142.4495,10.0483,3.6436
2026-07-23T16:01:21.453,142.4495,9.9112,3.6632
2026-07-23T16:01:21.471,142.4926,10.0091,3.6436
2026-07-23T16:01:21.484,142.4926,9.872,3.624
2026-07-23T16:01:21.492,142.4995,10.0678,3.7023
2026-07-23T16:01:21.507,142.4995,9.9895,3.624
2026-07-23T16:01:21.517,142.535,10.2636,3.6827
2026-07-23T16:01:21.528,142.5404,10.1462,3.6632
2026-07-23T16:01:21.536,142.5431,10.3224,3.7023
2026-07-23T16:01:21.543,142.5451,10.2636,3.6436
2026-07-23T16:01:21.550,142.5471,10.2832,3.6827
2026-07-23T16:01:21.559,142.5564,10.2049,3.6044
2026-07-23T16:01:21.575,142.5835,10.2832,3.624
2026-07-23T16:01:21.586,142.5907,10.2832,3.624
2026-07-23T16:01:21.598,142.5936,10.2636,3.624
2026-07-23T16:01:21.607,142.5936,10.2832,3.6044
2026-07-23T16:01:21.607,142.6195,10.2636,3.6044
2026-07-23T16:01:21.626,142.6267,10.3616,3.5065
2026-07-23T16:01:21.634,142.6329,10.3224,3.5457
2026-07-23T16:01:21.644,142.6353,10.3811,3.5457
2026-07-23T16:01:21.662,142.6662,10.342,3.5457
2026-07-23T16:01:21.662,142.6675,10.342,3.5261
2026-07-23T16:01:21.677,142.6675,10.3811,3.5261
2026-07-23T16:01:21.684,142.6751,10.3811,3.6044
2026-07-23T16:01:21.691,142.7018,10.4203,3.7219
2026-07-23T16:01:21.703,142.7018,10.4595,3.5457
2026-07-23T16:01:21.718,142.7018,10.4007,3.5457
2026-07-23T16:01:21.718,142.7018,10.4399,3.624
2026-07-23T16:01:21.734,142.736,10.3616,3.5653
2026-07-23T16:01:21.750,142.7451,10.3616,3.5848
2026-07-23T16:01:21.753,142.7451,10.3811,3.5261
2026-07-23T16:01:21.753,142.755,10.2832,3.624
2026-07-23T16:01:21.765,142.7773,10.4203,3.5261
2026-07-23T16:01:21.787,142.7928,10.342,3.5065
2026-07-23T16:01:21.787,142.7928,10.3811,3.5261
2026-07-23T16:01:21.809,142.8039,10.3028,3.5653
2026-07-23T16:01:21.812,142.8291,10.4399,3.5653
2026-07-23T16:01:21.826,142.8316,10.3028,3.5653
2026-07-23T16:01:21.828,142.8331,10.4007,3.4674
2026-07-23T16:01:21.844,142.8411,10.3616,3.4674
2026-07-23T16:01:21.855,142.8441,10.342,3.5261
2026-07-23T16:01:21.859,142.8729,10.2441,3.5261
2026-07-23T16:01:21.875,142.8749,10.4595,3.4674
2026-07-23T16:01:21.882,142.8749,10.2049,3.5065
2026-07-23T16:01:21.895,142.8812,10.3224,3.5457
2026-07-23T16:01:21.912,142.9037,10.2636,3.5653
2026-07-23T16:01:21.917,142.9144,10.342,3.5261
2026-07-23T16:01:21.926,142.9172,10.2636,3.5065
2026-07-23T16:01:21.932,142.9226,10.3616,3.5261
2026-07-23T16:01:21.953,142.9443,10.1853,3.4869
2026-07-23T16:01:21.955,142.9443,10.2245,3.5065
2026-07-23T16:01:21.965,142.9513,10.1657,3.5065
2026-07-23T16:01:21.973,142.9513,10.2441,3.4674
2026-07-23T16:01:21.984,142.977,10.1657,3.4674
2026-07-23T16:01:21.987,142.977,10.3028,3.4869
2026-07-23T16:01:22.002,142.9851,10.2441,3.4478
2026-07-23T16:01:22.002,143.004,10.1853,3.4478
2026-07-23T16:01:22.028,143.0148,10.2245,3.4674
2026-07-23T16:01:22.036,143.0148,10.2049,3.5065
2026-07-23T16:01:22.039,143.0335,10.2636,3.4478
2026-07-23T16:01:22.055,143.0487,10.2245,3.5065
2026-07-23T16:01:22.055,143.0487,10.3616,3.4674
2026-07-23T16:01:22.081,143.0822,10.3028,3.5261
2026-07-23T16:01:22.084,143.0822,10.3224,3.5261
2026-07-23T16:01:22.097,143.0822,10.342,3.5065
2026-07-23T16:01:22.106,143.0925,10.4007,3.5065
2026-07-23T16:01:22.113,143.1113,10.3224,3.5065
2026-07-23T16:01:22.126,143.1208,10.3616,3.5653
2026-07-23T16:01:22.133,143.1256,10.3616,3.5653
2026-07-23T16:01:22.143,143.1261,10.4986,3.5457
2026-07-23T16:01:22.150,143.1573,10.4007,3.5457
2026-07-23T16:01:22.162,143.1573,10.4595,3.5848
2026-07-23T16:01:22.172,143.1654,10.479,3.5261
2026-07-23T16:01:22.184,143.1705,10.4986,3.5457
2026-07-23T16:01:22.192,143.1969,10.479,3.5653
2026-07-23T16:01:22.206,143.1995,10.4986,3.5653
2026-07-23T16:01:22.208,143.2053,10.5965,3.5261
2026-07-23T16:01:22.221,143.2053,10.479,3.5065
2026-07-23T16:01:22.240,143.2364,10.5378,3.5261
2026-07-23T16:01:22.240,143.2396,10.479,3.6044
2026-07-23T16:01:22.256,143.2452,10.4986,3.5457
2026-07-23T16:01:22.256,143.2452,10.4399,3.5653
2026-07-23T16:01:22.279,143.2751,10.5965,3.5065
2026-07-23T16:01:22.283,143.2782,10.479,3.5457
2026-07-23T16:01:22.290,143.2823,10.6161,3.5457
2026-07-23T16:01:22.307,143.3158,10.5378,3.5457
2026-07-23T16:01:22.307,143.3158,10.7336,3.5261
2026-07-23T16:01:22.329,143.32,10.5769,3.5457
2026-07-23T16:01:22.333,143.32,10.6357,3.5653
2026-07-23T16:01:22.344,143.3512,10.6357,3.5653
2026-07-23T16:01:22.350,143.3512,10.6161,3.4869
2026-07-23T16:01:22.365,143.3588,10.5574,3.5065
2026-07-23T16:01:22.371,143.3614,10.5965,3.5261
2026-07-23T16:01:22.380,143.3912,10.5182,3.4869
2026-07-23T16:01:22.396,143.3975,10.6161,3.5457
2026-07-23T16:01:22.402,143.3975,10.5965,3.5065
2026-07-23T16:01:22.417,143.403,10.6357,3.4869
2026-07-23T16:01:22.428,143.4254,10.6553,3.5065
2026-07-23T16:01:22.428,143.4254,10.6553,3.4869
2026-07-23T16:01:22.442,143.4332,10.6553,3.5457
2026-07-23T16:01:22.454,143.4332,10.5965,3.5261
2026-07-23T16:01:22.466,143.4666,10.6944,3.4869
2026-07-23T16:01:22.476,143.4693,10.5182,3.5653
2026-07-23T16:01:22.484,143.4753,10.7727,3.5457
2026-07-23T16:01:22.491,143.4753,10.6944,3.6044
2026-07-23T16:01:22.507,143.5035,10.7336,3.5653
2026-07-23T16:01:22.507,143.5035,10.6357,3.624
2026-07-23T16:01:22.523,143.5035,10.7923,3.6044
2026-07-23T16:01:22.539,143.535,10.6357,3.5261
2026-07-23T16:01:22.545,143.535,10.7336,3.5653
2026-07-23T16:01:22.554,143.5451,10.6357,3.5457
2026-07-23T16:01:22.554,143.5479,10.7532,3.5457
2026-07-23T16:01:22.579,143.5701,10.6161,3.5457
2026-07-23T16:01:22.584,143.5701,10.7532,3.6044
2026-07-23T16:01:22.596,143.5791,10.6748,3.624
2026-07-23T16:01:22.602,143.6073,10.8119,3.5653
2026-07-23T16:01:22.617,143.6073,10.6944,3.5261
2026-07-23T16:01:22.621,143.6136,10.7727,3.6436
2026-07-23T16:01:22.633,143.6374,10.7336,3.5848
2026-07-23T16:01:22.643,143.6449,10.7532,3.5457
2026-07-23T16:01:22.651,143.6464,10.7532,3.5653
2026-07-23T16:01:22.671,143.6498,10.7727,3.5653
2026-07-23T16:01:22.671,143.6498,10.7336,3.5848
2026-07-23T16:01:22.686,143.6781,10.7727,3.5653
2026-07-23T16:01:22.688,143.6781,10.8511,3.5457
2026-07-23T16:01:22.704,143.6928,10.8902,3.6827
2026-07-23T16:01:22.714,143.7191,10.9098,3.624
2026-07-23T16:01:22.717,143.7214,10.8902,3.7219
2026-07-23T16:01:22.745,143.7249,10.9686,3.6827
2026-07-23T16:01:22.745,143.7249,11.0077,3.7415
2026-07-23T16:01:22.760,143.7581,11.0273,3.6044
2026-07-23T16:01:22.760,143.7608,11.0665,3.6436
2026-07-23T16:01:22.776,143.7632,11.1644,3.6436
2026-07-23T16:01:22.776,143.7663,11.1056,3.7611
2026-07-23T16:01:22.793,143.7945,11.086,3.7611
2026-07-23T16:01:22.793,143.7978,11.1056,3.624
2026-07-23T16:01:22.817,143.8038,11.086,3.7415
2026-07-23T16:01:22.839,143.8353,11.0665,3.7023
2026-07-23T16:01:22.839,143.8353,11.0665,3.7415
2026-07-23T16:01:22.849,143.842,11.0469,3.7219
2026-07-23T16:01:22.855,143.842,11.086,3.7023
2026-07-23T16:01:22.860,143.8675,11.1448,3.7807
2026-07-23T16:01:22.871,143.8718,11.1252,3.7023
2026-07-23T16:01:22.886,143.8753,11.2427,3.7219
2026-07-23T16:01:22.893,143.8753,11.1644,3.7611
2026-07-23T16:01:22.913,143.9099,11.3798,3.7611
2026-07-23T16:01:22.913,143.9099,11.2623,3.8002
2026-07-23T16:01:22.923,143.9099,11.3993,3.8198
2026-07-23T16:01:22.933,143.933,11.2818,3.8198
2026-07-23T16:01:22.949,143.9454,11.4385,3.7807
2026-07-23T16:01:22.954,143.9454,11.2427,3.7611
2026-07-23T16:01:22.961,143.9542,11.3602,3.7023
2026-07-23T16:01:22.969,143.9771,11.2818,3.7415
2026-07-23T16:01:22.984,143.9874,11.4189,3.7807
2026-07-23T16:01:22.996,143.9874,11.2623,3.8002
2026-07-23T16:01:23.005,143.9951,11.4777,3.8786
2026-07-23T16:01:23.010,144.0173,11.2231,3.8198
2026-07-23T16:01:23.028,144.0249,11.3993,3.8198
2026-07-23T16:01:23.038,144.029,11.2623,3.6827
2026-07-23T16:01:23.046,144.0351,11.3993,3.8002
2026-07-23T16:01:23.064,144.0658,11.2427,3.7023
2026-07-23T16:01:23.068,144.0706,11.4385,3.7807
2026-07-23T16:01:23.080,144.0723,11.2035,3.7611
2026-07-23T16:01:23.089,144.0755,11.4189,3.7611
2026-07-23T16:01:23.107,144.1112,11.2035,3.6827
2026-07-23T16:01:23.107,144.1122,11.3602,3.7219
2026-07-23T16:01:23.117,144.1122,11.3014,3.7219
2026-07-23T16:01:23.123,144.1122,11.2427,3.7415
2026-07-23T16:01:23.128,144.1357,11.2623,3.6827
2026-07-23T16:01:23.150,144.154,11.2035,3.7023
2026-07-23T16:01:23.155,144.154,11.2231,3.6827
2026-07-23T16:01:23.163,144.1587,11.2231,3.7415
2026-07-23T16:01:23.171,144.1587,11.3406,3.6827
2026-07-23T16:01:23.187,144.1832,11.321,3.7415
2026-07-23T16:01:23.187,144.196,11.321,3.6827
2026-07-23T16:01:23.205,144.2018,11.3602,3.6827
2026-07-23T16:01:23.217,144.2018,11.3602,3.624
2026-07-23T16:01:23.226,144.2316,11.3602,3.7023
2026-07-23T16:01:23.234,144.2316,11.2818,3.6827
2026-07-23T16:01:23.247,144.2368,11.3406,3.6827
2026-07-23T16:01:23.253,144.2368,11.3602,3.6827
2026-07-23T16:01:23.261,144.2684,11.3798,3.6827
2026-07-23T16:01:23.266,144.2756,11.3798,3.7023
2026-07-23T16:01:23.282,144.2792,11.3798,3.6632
2026-07-23T16:01:23.297,144.283,11.321,3.7023
2026-07-23T16:01:23.297,144.3098,11.3406,3.6436
2026-07-23T16:01:23.313,144.3098,11.2427,3.7219
2026-07-23T16:01:23.326,144.3098,11.3602,3.6436
2026-07-23T16:01:23.334,144.321,11.1644,3.6632
2026-07-23T16:01:23.345,144.3442,11.3406,3.6436
2026-07-23T16:01:23.350,144.3442,11.1448,3.6827
2026-07-23T16:01:23.361,144.3442,11.3406,3.624
2026-07-23T16:01:23.372,144.3572,11.1252,3.7219
2026-07-23T16:01:23.393,144.3872,11.3602,3.6827
2026-07-23T16:01:23.393,144.3872,11.2427,3.7415
2026-07-23T16:01:23.395,144.389,11.3406,3.6436
2026-07-23T16:01:23.417,144.4219,11.1448,3.6827
2026-07-23T16:01:23.427,144.4219,11.3014,3.6827
2026-07-23T16:01:23.438,144.4219,11.086,3.6436
2026-07-23T16:01:23.440,144.4219,11.3014,3.624
2026-07-23T16:01:23.455,144.4528,11.1644,3.6827
2026-07-23T16:01:23.455,144.4528,11.2623,3.624
2026-07-23T16:01:23.473,144.4666,11.0665,3.7023
2026-07-23T16:01:23.488,144.4666,11.2231,3.5848
2026-07-23T16:01:23.497,144.4979,11.0665,3.5653
2026-07-23T16:01:23.504,144.4999,11.3014,3.624
2026-07-23T16:01:23.517,144.4999,11.1252,3.6632
2026-07-23T16:01:23.517,144.5103,11.2818,3.7415
2026-07-23T16:01:23.533,144.5365,11.1644,3.6827
2026-07-23T16:01:23.539,144.5365,11.1839,3.8002
2026-07-23T16:01:23.559,144.5452,11.2035,3.6436
2026-07-23T16:01:23.565,144.5702,11.2427,3.7219
2026-07-23T16:01:23.570,144.5712,11.321,3.7023
2026-07-23T16:01:23.587,144.577,11.3014,3.7611
2026-07-23T16:01:23.596,144.5852,11.3014,3.7415
2026-07-23T16:01:23.596,144.6108,11.2623,3.7611
2026-07-23T16:01:23.612,144.6128,11.2623,3.7611
2026-07-23T16:01:23.622,144.6166,11.2035,3.7023
2026-07-23T16:01:23.636,144.624,11.1644,3.7415
2026-07-23T16:01:23.651,144.6499,11.2818,3.7219
2026-07-23T16:01:23.651,144.6499,11.2035,3.7611
2026-07-23T16:01:23.664,144.6561,11.2427,3.8002
2026-07-23T16:01:23.675,144.6561,11.1644,3.8002
2026-07-23T16:01:23.684,144.6915,11.1839,3.8198
2026-07-23T16:01:23.691,144.6915,11.086,3.7807
2026-07-23T16:01:23.707,144.6976,11.1644,3.7219
2026-07-23T16:01:23.707,144.7017,11.1252,3.7807
2026-07-23T16:01:23.727,144.7197,11.2231,3.7219
2026-07-23T16:01:23.727,144.7197,11.1056,3.7219
2026-07-23T16:01:23.748,144.7364,11.2035,3.6827
2026-07-23T16:01:23.754,144.7379,11.0665,3.7023
2026-07-23T16:01:23.770,144.7689,11.1839,3.7219
2026-07-23T16:01:23.770,144.7717,11.0665,3.7219
2026-07-23T16:01:23.787,144.7763,11.2035,3.7023
2026-07-23T16:01:23.789,144.7999,11.0665,3.8002
2026-07-23T16:01:23.803,144.814,11.2427,3.7023
2026-07-23T16:01:23.820,144.814,10.9881,3.8002
2026-07-23T16:01:23.833,144.8212,11.2231,3.6632
2026-07-23T16:01:23.835,144.8332,11.0665,3.8002
2026-07-23T16:01:23.844,144.8493,11.2035,3.6827
2026-07-23T16:01:23.851,144.8493,11.0469,3.7023
2026-07-23T16:01:23.865,144.8569,11.1644,3.7415
2026-07-23T16:01:23.872,144.8846,10.9686,3.6632
2026-07-23T16:01:23.884,144.8875,11.1056,3.7807
2026-07-23T16:01:23.884,144.8921,10.8902,3.6632
2026-07-23T16:01:23.900,144.8981,11.1252,3.7023
2026-07-23T16:01:23.914,144.8981,10.949,3.7219
2026-07-23T16:01:23.927,144.9246,11.1056,3.7415
2026-07-23T16:01:23.927,144.9246,10.9098,3.6632
2026-07-23T16:01:23.954,144.9332,11.1448,3.7023
2026-07-23T16:01:23.954,144.9332,10.9686,3.624
2026-07-23T16:01:23.959,144.9554,11.1252,3.7611
2026-07-23T16:01:23.975,144.9554,10.949,3.7415
2026-07-23T16:01:23.984,144.9667,11.1252,3.7219
2026-07-23T16:01:23.997,144.9883,11.0273,3.6632
2026-07-23T16:01:24.006,144.9984,11.0273,3.7415
2026-07-23T16:01:24.006,145.0019,10.9686,3.6632
2026-07-23T16:01:24.022,145.0029,11.086,3.8002
2026-07-23T16:01:24.039,145.0297,10.9686,3.7415
2026-07-23T16:01:24.039,145.0297,11.0665,3.7219
2026-07-23T16:01:24.053,145.0347,11.0665,3.6436
2026-07-23T16:01:24.057,145.0505,11.1252,3.7415
2026-07-23T16:01:24.070,145.0665,11.0273,3.6632
2026-07-23T16:01:24.086,145.0715,11.1252,3.7023
2026-07-23T16:01:24.090,145.0967,11.1252,3.7611
2026-07-23T16:01:24.101,145.1019,11.1839,3.8002
2026-07-23T16:01:24.117,145.105,11.1644,3.7219
2026-07-23T16:01:24.127,145.105,11.2035,3.8198
2026-07-23T16:01:24.133,145.1301,11.2231,3.7807
2026-07-23T16:01:24.133,145.1332,11.2035,3.7807
2026-07-23T16:01:24.156,145.1421,11.1252,3.7807
2026-07-23T16:01:24.161,145.1665,11.1056,3.7611
2026-07-23T16:01:24.167,145.1665,11.1252,3.8198
2026-07-23T16:01:24.184,145.1665,11.0665,3.7807
2026-07-23T16:01:24.197,145.1778,11.1644,3.7807
2026-07-23T16:01:24.217,145.2042,11.1839,3.7807
2026-07-23T16:01:24.217,145.2042,11.1056,3.8002
2026-07-23T16:01:24.217,145.2086,11.2035,3.7611
2026-07-23T16:01:24.230,145.2321,11.0665,3.8394
2026-07-23T16:01:24.248,145.2386,11.2231,3.8198
2026-07-23T16:01:24.251,145.2403,11.0665,3.8002
2026-07-23T16:01:24.259,145.2666,11.2035,3.8002
2026-07-23T16:01:24.275,145.2666,11.086,3.859
2026-07-23T16:01:24.291,145.272,11.2818,3.8394
2026-07-23T16:01:24.291,145.2769,11.1839,3.8786
2026-07-23T16:01:24.308,145.3017,11.3602,3.8198
2026-07-23T16:01:24.317,145.3035,11.1644,3.9569
2026-07-23T16:01:24.328,145.3079,11.3798,3.8394
2026-07-23T16:01:24.339,145.335,11.1448,3.9373
2026-07-23T16:01:24.339,145.3381,11.2818,3.8786
2026-07-23T16:01:24.359,145.3381,11.1252,3.8786
2026-07-23T16:01:24.363,145.3381,11.2035,3.859
2026-07-23T16:01:24.375,145.3695,11.0469,3.8981
2026-07-23T16:01:24.389,145.3748,11.2427,3.8786
2026-07-23T16:01:24.389,145.3768,11.086,3.8002
2026-07-23T16:01:24.404,145.4,11.3014,3.8981
2026-07-23T16:01:24.404,145.4067,11.1056,3.859
2026-07-23T16:01:24.426,145.4067,11.3014,3.9177
2026-07-23T16:01:24.435,145.435,11.0665,3.8198
2026-07-23T16:01:24.449,145.435,11.2623,3.9373
2026-07-23T16:01:24.451,145.435,11.0665,3.8786
2026-07-23T16:01:24.464,145.4665,11.2231,3.8786
2026-07-23T16:01:24.480,145.4665,11.0469,3.8394
2026-07-23T16:01:24.486,145.4665,11.2623,3.859
2026-07-23T16:01:24.496,145.4767,11.0273,3.8198
2026-07-23T16:01:24.498,145.4974,11.1644,3.8394
2026-07-23T16:01:24.512,145.5004,11.1252,3.8394
2026-07-23T16:01:24.527,145.5082,11.1252,3.8002
2026-07-23T16:01:24.535,145.5396,11.1056,3.7611
2026-07-23T16:01:24.543,145.5396,11.1644,3.7415
2026-07-23T16:01:24.557,145.5446,10.9881,3.6827
2026-07-23T16:01:24.562,145.5723,11.0469,3.6827
2026-07-23T16:01:24.584,145.577,11.0273,3.6827
2026-07-23T16:01:24.584,145.577,11.0469,3.7415
2026-07-23T16:01:24.590,145.577,10.9686,3.624
2026-07-23T16:01:24.608,145.6028,10.9686,3.7219
2026-07-23T16:01:24.617,145.6028,10.949,3.6632
2026-07-23T16:01:24.623,145.6161,10.9881,3.6436
2026-07-23T16:01:24.636,145.6225,10.8707,3.5457
2026-07-23T16:01:24.638,145.6513,10.8707,3.5261
2026-07-23T16:01:24.654,145.6513,10.9098,3.6044
2026-07-23T16:01:24.667,145.6558,10.9294,3.5848
2026-07-23T16:01:24.673,145.6558,10.949,3.6436
2026-07-23T16:01:24.673,145.6826,10.9098,3.5065
2026-07-23T16:01:24.685,145.6826,10.9098,3.5457
2026-07-23T16:01:24.707,145.6974,10.9098,3.5457
2026-07-23T16:01:24.707,145.713,10.8902,3.6044
2026-07-23T16:01:24.717,145.7331,10.9294,3.5261
2026-07-23T16:01:24.733,145.7331,10.9881,3.5457
2026-07-23T16:01:24.748,145.7388,11.0665,3.5653
2026-07-23T16:01:24.752,145.7685,10.9686,3.5848
2026-07-23T16:01:24.764,145.7685,11.1252,3.5261
2026-07-23T16:01:24.764,145.7685,11.0273,3.6632
2026-07-23T16:01:24.790,145.7808,11.1839,3.5457
2026-07-23T16:01:24.794,145.783,10.949,3.5653
2026-07-23T16:01:24.811,145.8076,11.1448,3.5653
2026-07-23T16:01:24.816,145.8076,10.9881,3.6044
2026-07-23T16:01:24.819,145.8076,11.1839,3.5653
2026-07-23T16:01:24.834,145.8236,11.1056,3.6827
2026-07-23T16:01:24.858,145.8394,11.2818,3.624
2026-07-23T16:01:24.858,145.8394,11.1644,3.8198
2026-07-23T16:01:24.858,145.8529,11.3014,3.7023
2026-07-23T16:01:24.874,145.8575,11.2231,3.7415
2026-07-23T16:01:24.890,145.8873,11.4189,3.7807
2026-07-23T16:01:24.890,145.8873,11.3406,3.8002
2026-07-23T16:01:24.904,145.8934,11.5951,3.8981
2026-07-23T16:01:24.917,145.9251,11.5756,3.9569
2026-07-23T16:01:24.928,145.9251,11.7518,4.0352
2026-07-23T16:01:24.928,145.9251,11.556,4.0352
2026-07-23T16:01:24.946,145.9347,11.8301,4.1135
2026-07-23T16:01:24.959,145.9514,11.7126,4.1135
2026-07-23T16:01:24.971,145.9514,11.8497,4.1723
2026-07-23T16:01:24.976,145.9514,11.693,4.0939
2026-07-23T16:01:24.988,145.9729,11.8889,4.1723
2026-07-23T16:01:24.988,146.0001,11.8889,4.0939
2026-07-23T16:01:25.002,146.0021,12.0063,4.1527
2026-07-23T16:01:25.022,146.0105,12.0651,4.1918
2026-07-23T16:01:25.024,146.0139,12.2021,4.2506
2026-07-23T16:01:25.040,146.0331,12.2805,4.3093
2026-07-23T16:01:25.040,146.0331,12.3392,4.3289
2026-07-23T16:01:25.061,146.0452,12.3392,4.3289
2026-07-23T16:01:25.065,146.0452,12.3392,4.3681
2026-07-23T16:01:25.077,146.0774,12.3588,4.2898
2026-07-23T16:01:25.084,146.0774,12.3196,4.3485
2026-07-23T16:01:25.096,146.0852,12.2413,4.2702
2026-07-23T16:01:25.096,146.1088,12.2021,4.2702
2026-07-23T16:01:25.112,146.1143,12.2021,4.2702
2026-07-23T16:01:25.128,146.1194,12.2609,4.3681
2026-07-23T16:01:25.136,146.1266,12.3196,4.3093
2026-07-23T16:01:25.150,146.1405,12.4371,4.2898
2026-07-23T16:01:25.153,146.1405,12.4763,4.3289
2026-07-23T16:01:25.165,146.1607,12.4763,4.2898
2026-07-23T16:01:25.177,146.1664,12.4567,4.3681
2026-07-23T16:01:25.184,146.1879,12.4371,4.3093
2026-07-23T16:01:25.191,146.1999,12.4763,4.3681
2026-07-23T16:01:25.191,146.1999,12.4763,4.2702
2026-07-23T16:01:25.217,146.204,12.4763,4.2898
2026-07-23T16:01:25.223,146.204,12.4959,4.2702
2026-07-23T16:01:25.239,146.2357,12.535,4.2506
2026-07-23T16:01:25.239,146.2405,12.535,4.231
2026-07-23T16:01:25.255,146.2425,12.535,4.2898
2026-07-23T16:01:25.264,146.2459,12.5546,4.231
2026-07-23T16:01:25.279,146.2675,12.4371,4.1723
2026-07-23T16:01:25.293,146.2774,12.5154,4.1331
2026-07-23T16:01:25.297,146.2774,12.3979,4.1918
2026-07-23T16:01:25.302,146.3,12.4763,4.1527
2026-07-23T16:01:25.302,146.3032,12.4959,4.1527
2026-07-23T16:01:25.328,146.3032,12.535,4.1918
2026-07-23T16:01:25.335,146.3332,12.4763,4.2506
2026-07-23T16:01:25.350,146.3389,12.5546,4.2114
2026-07-23T16:01:25.354,146.3417,12.3979,4.2506
2026-07-23T16:01:25.365,146.3667,12.5938,4.1723
2026-07-23T16:01:25.374,146.3667,12.4763,4.231
2026-07-23T16:01:25.384,146.3774,12.535,4.1723
2026-07-23T16:01:25.398,146.3774,12.4371,4.2114
2026-07-23T16:01:25.406,146.4062,12.5938,4.231
2026-07-23T16:01:25.418,146.4114,12.4567,4.1723
2026-07-23T16:01:25.418,146.4164,12.5938,4.2506
2026-07-23T16:01:25.428,146.4412,12.4959,4.1331
2026-07-23T16:01:25.452,146.4479,12.5742,4.1723
2026-07-23T16:01:25.457,146.4479,12.3979,4.0744
2026-07-23T16:01:25.467,146.457,12.4959,4.231
2026-07-23T16:01:25.474,146.457,12.3392,4.1918
2026-07-23T16:01:25.492,146.4776,12.4763,4.1527
2026-07-23T16:01:25.499,146.4874,12.3,4.0939
2026-07-23T16:01:25.508,146.4899,12.4175,4.1723
2026-07-23T16:01:25.508,146.507,12.3979,4.1331
2026-07-23T16:01:25.528,146.5211,12.4175,4.1723
2026-07-23T16:01:25.528,146.5211,12.4371,4.1918
2026-07-23T16:01:25.541,146.5211,12.4567,4.231
2026-07-23T16:01:25.555,146.538,12.5154,4.1527
2026-07-23T16:01:25.558,146.538,12.3979,4.2114
2026-07-23T16:01:25.572,146.5529,12.4567,4.1331
2026-07-23T16:01:25.589,146.5846,12.5154,4.1331
2026-07-23T16:01:25.589,146.5865,12.4959,4.1135
2026-07-23T16:01:25.604,146.5865,12.4959,4.231
2026-07-23T16:01:25.620,146.6149,12.5742,4.1135
2026-07-23T16:01:25.628,146.6176,12.5938,4.1918
2026-07-23T16:01:25.637,146.6176,12.5938,4.2114
2026-07-23T16:01:25.646,146.6255,12.6917,4.2506
2026-07-23T16:01:25.655,146.6511,12.7504,4.2702
2026-07-23T16:01:25.666,146.6542,12.7504,4.2506
2026-07-23T16:01:25.676,146.6567,12.7896,4.2506
2026-07-23T16:01:25.684,146.6859,12.77,4.3093
2026-07-23T16:01:25.684,146.6859,12.8287,4.2898
2026-07-23T16:01:25.707,146.6939,12.7896,4.2898
2026-07-23T16:01:25.719,146.7242,12.907,4.3289
2026-07-23T16:01:25.729,146.7253,12.8287,4.2898
2026-07-23T16:01:25.737,146.7273,12.8287,4.2898
2026-07-23T16:01:25.745,146.7319,12.8287,4.2114
2026-07-23T16:01:25.755,146.7568,12.8091,4.3093
2026-07-23T16:01:25.761,146.7615,12.8287,4.231
2026-07-23T16:01:25.778,146.7683,12.7896,4.3093
2026-07-23T16:01:25.786,146.7683,12.8679,4.231
2026-07-23T16:01:25.792,146.7924,12.77,4.231
2026-07-23T16:01:25.792,146.7999,12.8091,4.231
2026-07-23T16:01:25.812,146.8055,12.7112,4.2898
2026-07-23T16:01:25.823,146.8332,12.8287,4.1918
2026-07-23T16:01:25.840,146.8359,12.7112,4.3289
2026-07-23T16:01:25.843,146.8359,12.8679,4.2114
2026-07-23T16:01:25.856,146.8359,12.77,4.2506
2026-07-23T16:01:25.864,146.8679,12.8287,4.2114
2026-07-23T16:01:25.874,146.8679,12.7112,4.3093
2026-07-23T16:01:25.887,146.8779,12.8483,4.1918
2026-07-23T16:01:25.898,146.8835,12.7896,4.2702
2026-07-23T16:01:25.903,146.9069,12.8679,4.231
2026-07-23T16:01:25.916,146.9069,12.7896,4.1918
2026-07-23T16:01:25.919,146.9155,12.8875,4.2506
2026-07-23T16:01:25.937,146.9155,12.8679,4.1918
2026-07-23T16:01:25.937,146.9331,12.8679,4.2702
2026-07-23T16:01:25.958,146.9488,12.8483,4.2506
2026-07-23T16:01:25.966,146.9488,12.8875,4.3093
2026-07-23T16:01:25.966,146.982,12.7896,4.231
2026-07-23T16:01:25.984,146.9878,12.8483,4.2898
2026-07-23T16:01:25.984,146.9903,12.7504,4.1918
2026-07-23T16:01:26.000,146.9949,12.77,4.231
2026-07-23T16:01:26.017,147.0106,12.7308,4.1331
2026-07-23T16:01:26.030,147.028,12.7896,4.2506
2026-07-23T16:01:26.041,147.033,12.8091,4.1723
2026-07-23T16:01:26.046,147.033,12.8091,4.2702
2026-07-23T16:01:26.057,147.0573,12.8679,4.1135
2026-07-23T16:01:26.061,147.0573,12.7896,4.231
2026-07-23T16:01:26.084,147.0663,12.8679,4.1135
2026-07-23T16:01:26.084,147.0663,12.8679,4.2114
2026-07-23T16:01:26.096,147.0889,12.7896,4.1331
2026-07-23T16:01:26.108,147.0998,12.6721,4.1527
2026-07-23T16:01:26.117,147.1046,12.7504,4.1331
2026-07-23T16:01:26.125,147.1066,12.5938,4.1723
2026-07-23T16:01:26.140,147.136,12.8091,4.1135
2026-07-23T16:01:26.140,147.1383,12.5938,4.0939
2026-07-23T16:01:26.157,147.1383,12.77,4.1135
2026-07-23T16:01:26.166,147.1676,12.6721,4.1918
2026-07-23T16:01:26.171,147.1676,12.7896,4.231
2026-07-23T16:01:26.189,147.1783,12.7896,4.1918
2026-07-23T16:01:26.189,147.1855,12.8679,4.1135
2026-07-23T16:01:26.203,147.207,12.8091,4.1527
2026-07-23T16:01:26.217,147.207,12.8875,3.8786
2026-07-23T16:01:26.229,147.217,12.7504,4.1331
2026-07-23T16:01:26.236,147.217,12.8875,4.2506
2026-07-23T16:01:26.251,147.2491,12.7308,4.1918
2026-07-23T16:01:26.251,147.2491,12.8679,4.2506
2026-07-23T16:01:26.266,147.2532,12.8483,4.1723
2026-07-23T16:01:26.276,147.2627,12.9462,4.1918
2026-07-23T16:01:26.292,147.2864,12.907,4.2702
2026-07-23T16:01:26.300,147.2905,12.9266,4.231
2026-07-23T16:01:26.308,147.2905,12.907,4.1723
2026-07-23T16:01:26.321,147.3105,12.8679,4.2114
2026-07-23T16:01:26.329,147.326,12.8679,4.2114
2026-07-23T16:01:26.337,147.3283,12.907,4.2702
2026-07-23T16:01:26.345,147.3333,12.9658,4.1723
2026-07-23T16:01:26.351,147.3632,12.9854,4.1331
2026-07-23T16:01:26.361,147.3666,13.005,4.231
2026-07-23T16:01:26.377,147.3696,13.0245,4.3289
2026-07-23T16:01:26.384,147.3745,13.0245,4.3093
2026-07-23T16:01:26.403,147.4052,13.0441,4.4072
2026-07-23T16:01:26.409,147.4077,13.0637,4.3681
2026-07-23T16:01:26.417,147.4077,13.0441,4.3681
2026-07-23T16:01:26.429,147.4148,13.0245,4.3877
2026-07-23T16:01:26.442,147.4491,13.0637,4.3681
2026-07-23T16:01:26.451,147.4491,13.005,4.3877
2026-07-23T16:01:26.458,147.4528,12.9854,4.3289
2026-07-23T16:01:26.466,147.4528,12.9854,4.3093
2026-07-23T16:01:26.473,147.4842,12.9462,4.2702
2026-07-23T16:01:26.488,147.4907,13.0637,4.3485
2026-07-23T16:01:26.488,147.4925,12.9854,4.3681
2026-07-23T16:01:26.504,147.498,13.005,4.4072
2026-07-23T16:01:26.519,147.5232,12.9462,4.3877
2026-07-23T16:01:26.530,147.5301,12.9658,4.3485
2026-07-23T16:01:26.535,147.5327,12.9462,4.2702
2026-07-23T16:01:26.549,147.5327,12.8287,4.3681
2026-07-23T16:01:26.559,147.5631,13.005,4.3681
2026-07-23T16:01:26.567,147.5664,12.907,4.4072
2026-07-23T16:01:26.583,147.5664,13.0245,4.3485
2026-07-23T16:01:26.583,147.5743,12.9658,4.3289
2026-07-23T16:01:26.598,147.5999,13.0833,4.3289
2026-07-23T16:01:26.599,147.5999,12.9266,4.3681
2026-07-23T16:01:26.616,147.5999,13.142,4.3289
2026-07-23T16:01:26.625,147.6104,12.9658,4.3681
2026-07-23T16:01:26.645,147.6421,13.0637,4.4072
2026-07-23T16:01:26.645,147.6421,12.9462,4.4072
2026-07-23T16:01:26.651,147.6421,13.1029,4.466
2026-07-23T16:01:26.661,147.6421,12.9266,4.4268
2026-07-23T16:01:26.677,147.679,13.0245,4.4268
2026-07-23T16:01:26.684,147.679,12.7896,4.466
2026-07-23T16:01:26.693,147.679,12.9266,4.4268
2026-07-23T16:01:26.717,147.7089,12.7896,4.5051
2026-07-23T16:01:26.717,147.716,12.9462,4.5051
2026-07-23T16:01:26.730,147.718,12.8287,4.4464
2026-07-23T16:01:26.730,147.7214,13.0245,4.5247
2026-07-23T16:01:26.740,147.748,12.8091,4.466
2026-07-23T16:01:26.760,147.7519,12.9658,4.4856
2026-07-23T16:01:26.769,147.7575,12.7896,4.4856
2026-07-23T16:01:26.772,147.7625,12.9658,4.4856
2026-07-23T16:01:26.784,147.7849,12.8091,4.466
2026-07-23T16:01:26.803,147.7907,12.9266,4.5639
2026-07-23T16:01:26.806,147.7943,12.8287,4.466
2026-07-23T16:01:26.820,147.8193,12.9266,4.466
2026-07-23T16:01:26.830,147.8243,12.7504,4.4856
2026-07-23T16:01:26.836,147.8285,12.7504,4.5051
2026-07-23T16:01:26.847,147.8331,12.7504,4.4464
2026-07-23T16:01:26.857,147.8567,12.7896,4.4856
2026-07-23T16:01:26.866,147.8594,12.7308,4.4268
2026-07-23T16:01:26.879,147.8662,12.7308,4.4268
2026-07-23T16:01:26.884,147.8793,12.8091,4.4268
2026-07-23T16:01:26.903,147.8945,12.7308,4.5051
2026-07-23T16:01:26.910,147.9024,12.7504,4.466
2026-07-23T16:01:26.917,147.9045,12.8287,4.4464
2026-07-23T16:01:26.930,147.9315,12.8287,4.5639
2026-07-23T16:01:26.930,147.9335,12.907,4.5247
2026-07-23T16:01:26.951,147.9335,12.9462,4.5443
2026-07-23T16:01:26.959,147.9422,13.142,4.5247
2026-07-23T16:01:26.963,147.9667,13.1616,4.6618
2026-07-23T16:01:26.977,147.9725,13.3182,4.6422
2026-07-23T16:01:26.984,147.9747,13.4553,4.7793
2026-07-23T16:01:26.993,147.9795,13.5924,4.6814
2026-07-23T16:01:27.000,147.9999,13.6903,4.7793
2026-07-23T16:01:27.017,148.0069,13.8273,4.8184
2026-07-23T16:01:27.025,148.0097,13.9252,4.838
2026-07-23T16:01:27.042,148.0375,14.1015,4.7989
2026-07-23T16:01:27.042,148.0375,14.1015,4.9555
2026-07-23T16:01:27.051,148.0375,14.1602,4.9751
2026-07-23T16:01:27.065,148.0492,14.0819,4.8772
2026-07-23T16:01:27.076,148.0749,14.1602,4.9163
2026-07-23T16:01:27.088,148.0796,14.0427,4.9359
2026-07-23T16:01:27.088,148.0849,14.219,4.8968
2026-07-23T16:01:27.107,148.11,14.1798,4.9359
2026-07-23T16:01:27.121,148.1158,14.3364,4.8968
2026-07-23T16:01:27.136,148.1163,14.1406,4.9359
2026-07-23T16:01:27.136,148.1163,14.3952,4.9359
2026-07-23T16:01:27.147,148.1492,14.1211,4.9555
2026-07-23T16:01:27.151,148.1492,14.2777,4.8576
2026-07-23T16:01:27.167,148.1584,14.1015,4.8772
2026-07-23T16:01:27.184,148.1795,14.1798,4.9359
2026-07-23T16:01:27.184,148.187,13.984,4.9163
2026-07-23T16:01:27.200,148.187,14.1211,4.9751
2026-07-23T16:01:27.209,148.1917,13.9252,4.8968
2026-07-23T16:01:27.218,148.2209,14.1211,4.9163
2026-07-23T16:01:27.230,148.2261,14.0232,4.838
2026-07-23T16:01:27.230,148.2261,14.0623,4.8576
2026-07-23T16:01:27.247,148.2332,13.8469,4.8968
2026-07-23T16:01:27.255,148.2572,13.984,4.9163
2026-07-23T16:01:27.261,148.263,13.6903,4.838
2026-07-23T16:01:27.277,148.2665,13.9252,4.9555
2026-07-23T16:01:27.284,148.2977,13.7294,4.7989
2026-07-23T16:01:27.292,148.3018,13.8078,4.8576
2026-07-23T16:01:27.308,148.3041,13.6511,4.8184
2026-07-23T16:01:27.317,148.3041,13.8273,4.7989
2026-07-23T16:01:27.326,148.311,13.5924,4.7597
2026-07-23T16:01:27.341,148.3352,13.612,4.838
2026-07-23T16:01:27.341,148.3423,13.5924,4.6618
2026-07-23T16:01:27.355,148.3423,13.6315,4.7009
2026-07-23T16:01:27.362,148.3423,13.5336,4.6618
2026-07-23T16:01:27.386,148.3668,13.5924,4.6226
2026-07-23T16:01:27.386,148.3668,13.4945,4.6814
2026-07-23T16:01:27.393,148.3827,13.4161,4.6618
2026-07-23T16:01:27.402,148.4143,13.3574,4.6226
2026-07-23T16:01:27.418,148.4143,13.377,4.603
2026-07-23T16:01:27.433,148.4143,13.3182,4.603
2026-07-23T16:01:27.437,148.4204,13.3378,4.5835
2026-07-23T16:01:27.451,148.4502,13.3378,4.6422
2026-07-23T16:01:27.451,148.4502,13.2987,4.603
2026-07-23T16:01:27.465,148.4502,13.2595,4.603
2026-07-23T16:01:27.481,148.4802,13.3182,4.7009
2026-07-23T16:01:27.484,148.4802,13.2595,4.6618
2026-07-23T16:01:27.501,148.4802,13.2595,4.5443
2026-07-23T16:01:27.501,148.4802,13.2595,4.6618
2026-07-23T16:01:27.528,148.5117,13.2791,4.603
2026-07-23T16:01:27.528,148.5117,13.2203,4.6422
2026-07-23T16:01:27.531,148.5208,13.1812,4.6422
2026-07-23T16:01:27.551,148.5417,13.1812,4.6422
2026-07-23T16:01:27.559,148.5417,13.2987,4.6226
2026-07-23T16:01:27.563,148.5417,13.2399,4.7009
2026-07-23T16:01:27.575,148.5583,13.3574,4.7009
2026-07-23T16:01:27.592,148.5901,13.2399,4.7009
2026-07-23T16:01:27.592,148.5929,13.3378,4.6618
2026-07-23T16:01:27.609,148.5929,13.3378,4.7205
2026-07-23T16:01:27.619,148.6218,13.4161,4.7401
2026-07-23T16:01:27.631,148.6238,13.3574,4.7989
2026-07-23T16:01:27.641,148.6269,13.4945,4.9163
2026-07-23T16:01:27.644,148.6319,13.3378,4.7597
2026-07-23T16:01:27.668,148.6586,13.4553,4.6618
2026-07-23T16:01:27.668,148.6586,13.2791,4.6814
2026-07-23T16:01:27.683,148.6666,13.5141,4.6422
2026-07-23T16:01:27.684,148.6874,13.2791,4.7989
2026-07-23T16:01:27.702,148.7003,13.5141,4.6422
2026-07-23T16:01:27.709,148.7003,13.2791,4.7009
2026-07-23T16:01:27.717,148.7046,13.5141,4.6226
2026-07-23T16:01:27.717,148.7333,13.3574,4.6814
2026-07-23T16:01:27.738,148.7382,13.4553,4.6618
2026-07-23T16:01:27.751,148.742,13.2399,4.7205
2026-07-23T16:01:27.755,148.7448,13.4945,4.6814
2026-07-23T16:01:27.768,148.7666,13.2595,4.7009
2026-07-23T16:01:27.780,148.7766,13.5336,4.7009
2026-07-23T16:01:27.789,148.7841,13.4357,4.6618
2026-07-23T16:01:27.796,148.7929,13.5532,4.7009
2026-07-23T16:01:27.796,148.8128,13.3574,4.7401
2026-07-23T16:01:27.817,148.8256,13.4749,4.7401
2026-07-23T16:01:27.831,148.8256,13.2987,4.7597
2026-07-23T16:01:27.844,148.8334,13.5336,4.7401
2026-07-23T16:01:27.844,148.8334,13.3966,4.7009
2026-07-23T16:01:27.864,148.8661,13.5532,4.7009
2026-07-23T16:01:27.864,148.8661,13.4749,4.7009
2026-07-23T16:01:27.884,148.8671,13.5532,4.7401
2026-07-23T16:01:27.884,148.8717,13.377,4.7205
2026-07-23T16:01:27.907,148.903,13.4945,4.7597
2026-07-23T16:01:27.907,148.903,13.5141,4.7205
2026-07-23T16:01:27.918,148.9091,13.4945,4.7989
2026-07-23T16:01:27.922,148.9351,13.5336,4.7597
2026-07-23T16:01:27.935,148.9382,13.4945,4.838
2026-07-23T16:01:27.938,148.941,13.4945,4.7009
2026-07-23T16:01:27.960,148.941,13.5532,4.7989
2026-07-23T16:01:27.970,148.9666,13.5336,4.7401
2026-07-23T16:01:27.984,148.9666,13.5532,4.838
2026-07-23T16:01:27.989,148.9666,13.5336,4.7989
2026-07-23T16:01:27.992,148.9824,13.612,4.8576
2026-07-23T16:01:28.017,149.0174,13.612,4.7793
2026-07-23T16:01:28.017,149.0174,13.6511,4.838
2026-07-23T16:01:28.017,149.0213,13.5924,4.9163
2026-07-23T16:01:28.033,149.0454,13.6707,4.8968
2026-07-23T16:01:28.043,149.0611,13.612,4.8968
2026-07-23T16:01:28.051,149.0611,13.7686,4.9359
2026-07-23T16:01:28.068,149.0668,13.8469,4.9555
2026-07-23T16:01:28.082,149.077,13.9252,4.9751
2026-07-23T16:01:28.096,149.1,13.8469,4.9163
2026-07-23T16:01:28.096,149.1,13.9252,4.8968
2026-07-23T16:01:28.096,149.1083,13.9252,4.8772
2026-07-23T16:01:28.112,149.1083,13.9252,4.8184
2026-07-23T16:01:28.128,149.1132,13.9644,4.8576
2026-07-23T16:01:28.131,149.1397,14.0623,4.7793
2026-07-23T16:01:28.143,149.1397,14.1211,4.838
2026-07-23T16:01:28.159,149.1486,14.219,4.8968
2026-07-23T16:01:28.168,149.1517,14.1602,4.838
2026-07-23T16:01:28.177,149.1805,14.2973,4.838
2026-07-23T16:01:28.184,149.1871,14.1798,4.8968
2026-07-23T16:01:28.199,149.1937,14.3364,4.8968
2026-07-23T16:01:28.207,149.1937,14.219,4.9163
2026-07-23T16:01:28.222,149.2241,14.3364,4.9359
2026-07-23T16:01:28.222,149.2252,14.0623,4.8968
2026-07-23T16:01:28.238,149.2276,14.2385,4.8576
2026-07-23T16:01:28.245,149.2317,13.984,4.9947
2026-07-23T16:01:28.264,149.2495,14.1798,4.9555
2026-07-23T16:01:28.264,149.2495,13.984,4.9555
2026-07-23T16:01:28.282,149.2667,14.1994,4.9359
2026-07-23T16:01:28.286,149.2971,14.0232,4.9751
2026-07-23T16:01:28.300,149.299,14.2777,4.9751
2026-07-23T16:01:28.300,149.3,14.0819,4.9947
2026-07-23T16:01:28.318,149.3,14.2973,4.9163
2026-07-23T16:01:28.318,149.3371,14.0819,4.9947
2026-07-23T16:01:28.344,149.3404,14.2777,4.9947
2026-07-23T16:01:28.350,149.3435,14.0427,4.9163
2026-07-23T16:01:28.361,149.3435,14.1211,4.9359
2026-07-23T16:01:28.364,149.3751,13.9448,4.9359
2026-07-23T16:01:28.379,149.3808,14.1015,4.9555
2026-07-23T16:01:28.391,149.3808,13.9448,4.838
2026-07-23T16:01:28.394,149.3808,14.0819,4.8772
2026-07-23T16:01:28.410,149.414,13.8861,4.8968
2026-07-23T16:01:28.419,149.4221,14.0623,4.9555
2026-07-23T16:01:28.426,149.4221,13.9252,4.9359
2026-07-23T16:01:28.442,149.4334,14.0427,4.8772
2026-07-23T16:01:28.451,149.4635,13.8861,4.838
2026-07-23T16:01:28.465,149.4635,13.984,4.838
2026-07-23T16:01:28.465,149.4704,13.9252,4.838
2026-07-23T16:01:28.473,149.4704,14.0427,4.7793
2026-07-23T16:01:28.489,149.5016,13.984,4.7401
2026-07-23T16:01:28.505,149.5117,13.9644,4.8968
2026-07-23T16:01:28.505,149.5117,13.9252,4.7401
2026-07-23T16:01:28.521,149.5173,14.0036,4.7009
2026-07-23T16:01:28.521,149.5173,13.9448,4.7597
2026-07-23T16:01:28.552,149.5489,13.9644,4.7009
2026-07-23T16:01:28.552,149.5534,13.9644,4.6814
2026-07-23T16:01:28.552,149.5534,13.984,4.7205
2026-07-23T16:01:28.568,149.5563,13.9644,4.6618
2026-07-23T16:01:28.568,149.5887,13.984,4.7401
2026-07-23T16:01:28.585,149.5936,14.0232,4.6814
2026-07-23T16:01:28.600,149.5975,14.0819,4.6618
2026-07-23T16:01:28.611,149.6001,14.1211,4.6814
2026-07-23T16:01:28.617,149.6332,14.0623,4.6618
2026-07-23T16:01:28.632,149.6332,14.0427,4.7205
2026-07-23T16:01:28.632,149.6332,14.1015,4.7205
2026-07-23T16:01:28.651,149.6444,14.0232,4.7205
2026-07-23T16:01:28.651,149.6667,13.9448,4.6226
2026-07-23T16:01:28.669,149.6755,13.9252,4.7401
2026-07-23T16:01:28.669,149.6755,13.8861,4.7009
2026-07-23T16:01:28.684,149.6813,13.9057,4.6618
2026-07-23T16:01:28.695,149.6851,13.8078,4.7205
2026-07-23T16:01:28.711,149.7106,13.7294,4.6618
2026-07-23T16:01:28.717,149.7153,13.7882,4.7205
2026-07-23T16:01:28.726,149.7153,13.6315,4.7205
2026-07-23T16:01:28.736,149.7242,13.6903,4.6422
2026-07-23T16:01:28.758,149.7432,13.5728,4.7009
2026-07-23T16:01:28.758,149.752,13.6315,4.6814
2026-07-23T16:01:28.766,149.7548,13.4357,4.7793
2026-07-23T16:01:28.784,149.785,13.5728,4.6814
2026-07-23T16:01:28.794,149.7883,13.4553,4.7009
2026-07-23T16:01:28.794,149.7883,13.612,4.6618
2026-07-23T16:01:28.806,149.7998,13.4945,4.6618
2026-07-23T16:01:28.806,149.8202,13.612,4.7009
2026-07-23T16:01:28.832,149.8266,13.4945,4.7205
2026-07-23T16:01:28.838,149.8266,13.6315,4.7205
2026-07-23T16:01:28.851,149.8404,13.4749,4.7793
2026-07-23T16:01:28.853,149.8655,13.6315,4.7989
2026-07-23T16:01:28.869,149.8685,13.5336,4.838
2026-07-23T16:01:28.877,149.8705,13.6707,4.8184
2026-07-23T16:01:28.891,149.8762,13.5336,4.838
2026-07-23T16:01:28.901,149.9025,13.6707,4.838
2026-07-23T16:01:28.901,149.9057,13.5141,4.8968
2026-07-23T16:01:28.921,149.9129,13.7099,4.9359
2026-07-23T16:01:28.932,149.9129,13.5532,4.8772
2026-07-23T16:01:28.939,149.9334,13.7882,4.838
2026-07-23T16:01:28.949,149.9334,13.6511,4.838
2026-07-23T16:01:28.956,149.9444,13.7294,4.9555
2026-07-23T16:01:28.967,149.9444,13.5728,4.8576
2026-07-23T16:01:28.984,149.9755,13.7099,4.9359
2026-07-23T16:01:28.984,149.9755,13.5532,4.8968
2026-07-23T16:01:28.995,149.9814,13.6903,4.8968
2026-07-23T16:01:29.011,150.0072,13.5336,4.9359
2026-07-23T16:01:29.018,150.0166,13.5728,4.9751
2026-07-23T16:01:29.026,150.019,13.5924,4.9555
2026-07-23T16:01:29.039,150.0244,13.5728,5.0142
2026-07-23T16:01:29.058,150.0386,13.5336,4.8968
2026-07-23T16:01:29.058,150.0386,13.5728,5.0534
2026-07-23T16:01:29.070,150.0553,13.5532,4.9359
2026-07-23T16:01:29.075,150.0553,13.5924,4.9359
2026-07-23T16:01:29.089,150.086,13.4749,4.9751
2026-07-23T16:01:29.089,150.0893,13.4945,4.9947
2026-07-23T16:01:29.106,150.0927,13.4553,4.8772
2026-07-23T16:01:29.121,150.1185,13.4945,4.9555
2026-07-23T16:01:29.132,150.1222,13.4161,4.9555
2026-07-23T16:01:29.140,150.1222,13.3966,4.8576
2026-07-23T16:01:29.143,150.1222,13.4161,4.8968
2026-07-23T16:01:29.155,150.1488,13.4357,4.9163
2026-07-23T16:01:29.169,150.1488,13.4945,4.9947
2026-07-23T16:01:29.173,150.1488,13.4749,4.9359
2026-07-23T16:01:29.186,150.1857,13.5532,4.9751
2026-07-23T16:01:29.186,150.1857,13.5336,4.9751
2026-07-23T16:01:29.200,150.1857,13.5336,4.9947
2026-07-23T16:01:29.219,150.2214,13.4357,4.8968
2026-07-23T16:01:29.231,150.2224,13.4945,4.9163
2026-07-23T16:01:29.236,150.2224,13.4357,4.8772
2026-07-23T16:01:29.236,150.2275,13.377,4.8772
2026-07-23T16:01:29.263,150.2593,13.3182,4.8184
2026-07-23T16:01:29.263,150.2593,13.3378,4.8772
2026-07-23T16:01:29.282,150.2642,13.3966,4.7793
2026-07-23T16:01:29.284,150.2914,13.3574,4.8772
2026-07-23T16:01:29.294,150.2914,13.4553,4.7989
2026-07-23T16:01:29.315,150.3001,13.5141,4.838
2026-07-23T16:01:29.324,150.3278,13.5924,4.838
2026-07-23T16:01:29.336,150.3299,13.5141,4.9555
2026-07-23T16:01:29.336,150.3299,13.5728,4.838
2026-07-23T16:01:29.351,150.3334,13.5336,4.8772
2026-07-23T16:01:29.351,150.339,13.5924,4.8184
2026-07-23T16:01:29.374,150.3542,13.5532,4.8184
2026-07-23T16:01:29.379,150.3699,13.5728,4.8576
2026-07-23T16:01:29.390,150.3759,13.4553,4.8576
2026-07-23T16:01:29.390,150.4016,13.5141,4.838
2026-07-23T16:01:29.405,150.4037,13.3966,4.8968
2026-07-23T16:01:29.420,150.4107,13.5141,4.9359
2026-07-23T16:01:29.427,150.4107,13.4945,4.8968
2026-07-23T16:01:29.436,150.4374,13.6315,4.9555
2026-07-23T16:01:29.436,150.4374,13.5336,5.0142
2026-07-23T16:01:29.461,150.4374,13.612,4.9751
2026-07-23T16:01:29.469,150.4668,13.5532,4.8772
2026-07-23T16:01:29.469,150.4668,13.6315,4.9947
2026-07-23T16:01:29.488,150.4668,13.6315,4.9947
2026-07-23T16:01:29.498,150.4819,13.749,4.9751
2026-07-23T16:01:29.518,150.5002,13.7294,4.9947
2026-07-23T16:01:29.518,150.5002,13.7294,4.9751
2026-07-23T16:01:29.533,150.5123,13.7882,4.9359
2026-07-23T16:01:29.533,150.5357,13.749,5.0142
2026-07-23T16:01:29.551,150.5357,13.7882,5.0338
2026-07-23T16:01:29.551,150.5436,13.749,5.0926
2026-07-23T16:01:29.569,150.5736,13.8665,5.0534
2026-07-23T16:01:29.579,150.5779,13.8078,5.1513
2026-07-23T16:01:29.586,150.5779,13.8665,5.0926
2026-07-23T16:01:29.594,150.5817,13.8273,5.1317
2026-07-23T16:01:29.594,150.6095,13.8273,5.1317
2026-07-23T16:01:29.618,150.6095,13.7294,5.1121
2026-07-23T16:01:29.629,150.6095,13.7882,5.0534
2026-07-23T16:01:29.643,150.6454,13.7294,5.073
2026-07-23T16:01:29.651,150.6482,13.8078,5.0534
2026-07-23T16:01:29.660,150.6482,13.7882,5.1121
2026-07-23T16:01:29.673,150.6536,13.8469,5.1121
2026-07-23T16:01:29.676,150.6707,13.7686,5.1121
2026-07-23T16:01:29.690,150.6817,13.8469,5.1121
2026-07-23T16:01:29.696,150.6864,13.8078,5.073
2026-07-23T16:01:29.709,150.6919,13.9644,5.1709
2026-07-23T16:01:29.717,150.7199,13.8861,5.0534
2026-07-23T16:01:29.732,150.7199,13.9448,5.1905
2026-07-23T16:01:29.737,150.7199,13.8665,5.0926
2026-07-23T16:01:29.753,150.7493,13.9644,5.0338
2026-07-23T16:01:29.754,150.7573,13.8078,5.0534
2026-07-23T16:01:29.771,150.7573,13.8273,5.0926
2026-07-23T16:01:29.784,150.7573,13.7686,5.0534
2026-07-23T16:01:29.784,150.7841,13.8861,5.0926
2026-07-23T16:01:29.800,150.7898,13.8273,5.073
2026-07-23T16:01:29.808,150.7927,13.8469,5.1709
2026-07-23T16:01:29.822,150.813,13.8273,5.073
2026-07-23T16:01:29.834,150.8203,13.8861,5.1121
2026-07-23T16:01:29.841,150.8251,13.9057,5.1317
2026-07-23T16:01:29.847,150.8523,13.8469,5.1121
2026-07-23T16:01:29.863,150.8591,13.8665,5.0534
2026-07-23T16:01:29.871,150.8638,13.7882,5.0926
2026-07-23T16:01:29.879,150.8693,13.8665,5.1121
2026-07-23T16:01:29.895,150.8938,13.7882,5.073
2026-07-23T16:01:29.895,150.8938,13.8078,4.9947
2026-07-23T16:01:29.910,150.9,13.7686,5.0926
2026-07-23T16:01:29.922,150.9024,13.8273,5.1121
2026-07-23T16:01:29.932,150.9285,13.749,5.0338
2026-07-23T16:01:29.932,150.9285,13.7686,5.0926
2026-07-23T16:01:29.951,150.9337,13.7882,5.073
2026-07-23T16:01:29.974,150.9602,13.8469,5.0534
2026-07-23T16:01:29.974,150.9602,13.984,5.0534
2026-07-23T16:01:29.979,150.9669,14.1798,5.073
2026-07-23T16:01:29.986,150.97,14.2973,5.0142
2026-07-23T16:01:30.005,150.9987,14.3364,5.1513
2026-07-23T16:01:30.005,151.0002,14.3364,5.1121
2026-07-23T16:01:30.021,151.002,14.4343,5.2492
2026-07-23T16:01:30.033,151.0363,14.4539,5.21
2026-07-23T16:01:30.045,151.0363,14.6106,5.21
2026-07-23T16:01:30.049,151.0363,14.6693,5.2884
2026-07-23T16:01:30.053,151.0363,14.8455,5.2492
2026-07-23T16:01:30.072,151.0665,14.8455,5.308
