wall_time,elapsed_s,F1_N,F2_N
2026-07-21T16:03:44.658,0.1184,0.6011,0.3364
2026-07-21T16:03:44.688,0.153,0.4445,0.2385
2026-07-21T16:03:44.688,0.155,0.2095,0.5909
2026-07-21T16:03:44.690,0.157,0.6011,0.4343
2026-07-21T16:03:44.694,0.158,0.562,0.5518
2026-07-21T16:03:44.709,0.1703,0.4836,0.5714
2026-07-21T16:03:44.720,0.1741,0.2487,0.4343
2026-07-21T16:03:44.727,0.19,0.5228,0.5322
2026-07-21T16:03:44.739,0.2061,0.5424,0.5518
2026-07-21T16:03:44.747,0.2221,0.4053,0.1602
2026-07-21T16:03:44.760,0.2372,0.2291,0.5322
2026-07-21T16:03:44.763,0.2459,0.5228,0.4539
2026-07-21T16:03:44.780,0.2589,0.5228,0.5714
2026-07-21T16:03:44.788,0.2687,0.5815,0.5126
2026-07-21T16:03:44.788,0.2791,0.2878,0.3756
2026-07-21T16:03:44.804,0.2859,0.4445,0.5909
2026-07-21T16:03:44.821,0.3192,0.5228,0.8651
2026-07-21T16:03:44.822,0.3248,0.5424,0.6105
2026-07-21T16:03:44.841,0.3268,0.3662,0.5518
2026-07-21T16:03:44.851,0.3343,0.3466,0.6889
2026-07-21T16:03:44.868,0.3383,0.6795,0.5909
2026-07-21T16:03:44.868,0.3383,0.5228,0.3364
2026-07-21T16:03:44.884,0.3403,0.327,0.2972
2026-07-21T16:03:44.884,0.3423,0.2683,0.7084
2026-07-21T16:03:44.916,0.3443,0.8948,0.5126
2026-07-21T16:03:44.916,0.3464,0.5228,0.3756
2026-07-21T16:03:44.927,0.3494,0.3857,0.2189
2026-07-21T16:03:44.929,0.3494,0.1899,0.6889
2026-07-21T16:03:44.946,0.3534,0.7382,0.5322
2026-07-21T16:03:44.950,0.3554,0.6403,0.4343
2026-07-21T16:03:44.961,0.3594,0.4836,0.2385
2026-07-21T16:03:44.973,0.3632,0.2291,0.5909
2026-07-21T16:03:44.979,0.3632,0.6403,0.5126
2026-07-21T16:03:45.013,0.3951,0.5815,0.4539
2026-07-21T16:03:45.013,0.3951,0.5228,0.1602
2026-07-21T16:03:45.013,0.4036,0.2878,0.7084
2026-07-21T16:03:45.020,0.4056,0.6599,0.728
2026-07-21T16:03:45.032,0.4111,0.4053,0.7868
2026-07-21T16:03:45.038,0.4151,0.4836,0.2189
2026-07-21T16:03:45.053,0.4197,0.1899,0.5126
2026-07-21T16:03:45.057,0.4268,0.6403,0.6497
2026-07-21T16:03:45.069,0.4587,0.6795,0.5909
2026-07-21T16:03:45.089,0.4587,0.4249,0.2385
2026-07-21T16:03:45.089,0.4587,0.2291,0.6497
2026-07-21T16:03:45.099,0.4744,0.7578,0.6889
2026-07-21T16:03:45.109,0.4811,0.6599,0.5714
2026-07-21T16:03:45.122,0.4852,0.6403,0.3364
2026-07-21T16:03:45.152,0.5222,0.2683,0.3364
2026-07-21T16:03:45.152,0.5231,0.1508,0.8259
2026-07-21T16:03:45.152,0.5251,0.2487,0.1014
2026-07-21T16:03:45.152,0.53,-0.28,-0.1335
2026-07-21T16:03:45.173,0.538,-0.2408,-0.1923
2026-07-21T16:03:45.179,0.5579,0.3662,0.6105
2026-07-21T16:03:45.213,0.6011,2.8333,2.1966
2026-07-21T16:03:45.213,0.6011,6.5537,5.212
2026-07-21T16:03:45.213,0.6169,11.958,9.1282
2026-07-21T16:03:45.224,0.6347,16.3636,14.3758
2026-07-21T16:03:45.232,0.6408,22.2966,19.3689
2026-07-21T16:03:45.247,0.6495,27.3093,22.7759
2026-07-21T16:03:45.247,0.6522,31.1275,25.1648
2026-07-21T16:03:45.257,0.6807,34.75,27.6124
2026-07-21T16:03:45.264,0.6959,39.0186,28.9635
2026-07-21T16:03:45.283,0.6959,42.0928,30.4516
2026-07-21T16:03:45.288,0.6959,45.3627,31.4306
2026-07-21T16:03:45.295,0.6959,47.8103,33.1733
2026-07-21T16:03:45.295,0.7127,51.1782,34.5636
2026-07-21T16:03:45.330,0.7143,53.9587,35.3076
2026-07-21T16:03:45.330,0.7163,56.2105,36.1496
2026-07-21T16:03:45.346,0.7249,58.8539,37.4811
2026-07-21T16:03:45.354,0.728,61.4386,38.3622
2026-07-21T16:03:45.374,0.7583,63.6512,38.6755
2026-07-21T16:03:45.374,0.7583,65.3155,38.9692
2026-07-21T16:03:45.389,0.7676,67.254,39.7525
2026-07-21T16:03:45.389,0.7716,69.0359,40.2028
2026-07-21T16:03:45.389,0.7716,70.8569,40.0266
2026-07-21T16:03:45.418,0.7772,71.8947,40.2811
2026-07-21T16:03:45.422,0.7812,72.7954,40.4378
2026-07-21T16:03:45.437,0.8058,73.8528,40.8882
2026-07-21T16:03:45.437,0.8058,75.3801,40.9077
2026-07-21T16:03:45.452,0.8058,76.4178,41.0056
2026-07-21T16:03:45.461,0.8223,77.0053,41.2798
2026-07-21T16:03:45.471,0.8268,77.5731,41.6518
2026-07-21T16:03:45.486,0.8541,78.8654,41.3777
2026-07-21T16:03:45.499,0.8541,78.4542,40.9273
2026-07-21T16:03:45.499,0.8541,77.7493,40.1832
2026-07-21T16:03:45.499,0.8685,76.5157,39.9287
2026-07-21T16:03:45.522,0.8728,76.7899,39.4392
2026-07-21T16:03:45.548,0.9055,77.0444,38.9692
2026-07-21T16:03:45.548,0.9075,77.9647,39.0084
2026-07-21T16:03:45.548,0.9095,78.5717,39.9287
2026-07-21T16:03:45.548,0.9155,79.2179,40.3399
2026-07-21T16:03:45.566,0.9389,79.6878,40.4378
2026-07-21T16:03:45.595,0.9481,79.8053,40.614
2026-07-21T16:03:45.595,0.9481,80.2752,41.3581
2026-07-21T16:03:45.599,0.9481,81.3522,41.5931
2026-07-21T16:03:45.609,0.9481,82.155,41.5539
2026-07-21T16:03:45.632,0.9911,82.6641,42.0434
2026-07-21T16:03:45.632,0.9932,83.1536,42.5329
2026-07-21T16:03:45.640,0.9962,83.6823,42.8462
2026-07-21T16:03:45.642,0.9982,83.6431,42.5917
2026-07-21T16:03:45.656,1.0323,83.2515,42.5134
2026-07-21T16:03:45.676,1.0408,82.8599,42.6308
2026-07-21T16:03:45.676,1.0408,83.0165,42.5721
2026-07-21T16:03:45.692,1.0408,83.4473,42.4546
2026-07-21T16:03:45.700,1.0408,83.1732,42.2588
2026-07-21T16:03:45.707,1.0725,83.1145,42.8071
2026-07-21T16:03:45.726,1.0725,83.4082,43.3945
2026-07-21T16:03:45.726,1.0725,83.604,43.4532
2026-07-21T16:03:45.734,1.0887,83.2515,43.3162
2026-07-21T16:03:45.766,1.1255,82.2921,43.5707
2026-07-21T16:03:45.766,1.1255,82.5858,43.8644
2026-07-21T16:03:45.766,1.1255,83.0165,43.4532
2026-07-21T16:03:45.782,1.1363,82.7816,43.0812
2026-07-21T16:03:45.788,1.144,81.8221,43.2378
2026-07-21T16:03:45.798,1.168,81.7634,43.3945
2026-07-21T16:03:45.814,1.168,82.1746,43.3749
2026-07-21T16:03:45.819,1.168,81.9396,43.1791
2026-07-21T16:03:45.830,1.1838,81.8025,43.0812
2026-07-21T16:03:45.838,1.216,82.0179,43.3945
2026-07-21T16:03:45.846,1.2229,81.92,43.4924
2026-07-21T16:03:45.862,1.2255,81.4501,43.2574
2026-07-21T16:03:45.862,1.2337,80.8431,43.277
2026-07-21T16:03:45.877,1.2378,80.6669,43.9427
2026-07-21T16:03:45.877,1.2632,80.8431,43.8057
2026-07-21T16:03:45.903,1.2632,80.7452,43.2966
2026-07-21T16:03:45.910,1.2632,80.5494,43.0616
2026-07-21T16:03:45.923,1.2632,80.5494,43.0029
2026-07-21T16:03:45.931,1.2791,81.176,42.905
2026-07-21T16:03:45.941,1.3114,80.6473,42.3567
2026-07-21T16:03:45.957,1.3114,79.9815,42.2001
2026-07-21T16:03:45.957,1.3114,79.7466,42.5525
2026-07-21T16:03:45.957,1.3273,79.7661,42.3959
2026-07-21T16:03:45.973,1.3273,80.0599,42.2001
2026-07-21T16:03:46.005,1.3635,80.0794,41.9455
2026-07-21T16:03:46.005,1.3635,79.727,41.9651
2026-07-21T16:03:46.005,1.3672,80.1186,41.9455
2026-07-21T16:03:46.021,1.3672,80.3927,41.6126
2026-07-21T16:03:46.021,1.4026,80.1186,41.0252
2026-07-21T16:03:46.036,1.4062,80.1578,41.3189
2026-07-21T16:03:46.052,1.4062,80.8627,41.221
2026-07-21T16:03:46.061,1.4062,81.0585,40.9861
2026-07-21T16:03:46.071,1.426,80.7452,40.6728
2026-07-21T16:03:46.083,1.4537,80.4319,41.1035
2026-07-21T16:03:46.083,1.4551,80.569,41.6126
2026-07-21T16:03:46.100,1.4551,80.4123,41.3385
2026-07-21T16:03:46.100,1.4551,80.0207,40.9273
2026-07-21T16:03:46.120,1.4551,79.4333,41.1819
2026-07-21T16:03:46.131,1.4854,80.0599,41.2798
2026-07-21T16:03:46.143,1.4854,79.9815,41.1427
2026-07-21T16:03:46.149,1.5056,79.9619,40.7511
2026-07-21T16:03:46.149,1.5116,79.6487,40.849
2026-07-21T16:03:46.179,1.5345,79.7857,41.0448
2026-07-21T16:03:46.179,1.5345,79.7661,41.4756
2026-07-21T16:03:46.179,1.5345,79.7466,40.9469
2026-07-21T16:03:46.203,1.55,79.5703,41.0448
2026-07-21T16:03:46.209,1.5777,79.6682,41.2602
2026-07-21T16:03:46.228,1.582,79.7661,40.8294
2026-07-21T16:03:46.228,1.582,79.6291,40.4574
2026-07-21T16:03:46.228,1.5856,79.2179,40.3791
2026-07-21T16:03:46.248,1.6135,79.1591,40.4182
2026-07-21T16:03:46.269,1.6193,79.3549,40.7315
2026-07-21T16:03:46.271,1.6193,79.0808,40.6923
2026-07-21T16:03:46.283,1.6287,78.65,40.242
2026-07-21T16:03:46.307,1.6576,78.3172,40.5749
2026-07-21T16:03:46.307,1.6597,78.5913,40.5357
2026-07-21T16:03:46.313,1.6627,79.2179,40.3791
2026-07-21T16:03:46.322,1.6687,78.5326,39.7525
2026-07-21T16:03:46.324,1.6968,78.1214,40.477
2026-07-21T16:03:46.345,1.6976,78.4151,40.477
2026-07-21T16:03:46.349,1.7021,78.4542,40.0658
2026-07-21T16:03:46.362,1.7112,77.9451,39.6546
2026-07-21T16:03:46.387,1.743,77.1815,40.3007
2026-07-21T16:03:46.387,1.743,77.4556,40.0658
2026-07-21T16:03:46.391,1.743,77.2402,39.6546
2026-07-21T16:03:46.402,1.743,77.0836,39.165
2026-07-21T16:03:46.418,1.7732,76.9074,39.87
2026-07-21T16:03:46.420,1.7732,77.6123,39.9483
2026-07-21T16:03:46.432,1.7732,77.5144,39.9287
2026-07-21T16:03:46.437,1.7909,77.3773,39.6741
2026-07-21T16:03:46.451,1.8202,77.0248,40.2224
2026-07-21T16:03:46.456,1.8253,77.6906,40.0853
2026-07-21T16:03:46.467,1.8268,77.5731,39.8504
2026-07-21T16:03:46.482,1.8364,77.2598,39.3804
2026-07-21T16:03:46.484,1.8401,76.9269,39.9091
2026-07-21T16:03:46.514,1.8734,77.2402,39.9679
2026-07-21T16:03:46.514,1.8734,77.0248,40.1049
2026-07-21T16:03:46.522,1.8775,76.7115,39.6741
2026-07-21T16:03:46.534,1.8845,76.8878,40.0658
2026-07-21T16:03:46.544,1.8984,77.3185,40.007
2026-07-21T16:03:46.560,1.9148,77.0836,39.7916
2026-07-21T16:03:46.560,1.9148,77.0053,39.2238
2026-07-21T16:03:46.571,1.9188,76.5941,39.6546
2026-07-21T16:03:46.578,1.927,76.6332,39.7525
2026-07-21T16:03:46.592,1.9522,76.692,39.6937
2026-07-21T16:03:46.592,1.9522,76.7703,39.5567
2026-07-21T16:03:46.612,1.9636,76.7115,39.5175
2026-07-21T16:03:46.619,1.9636,76.8486,40.007
2026-07-21T16:03:46.640,1.9939,77.0836,39.5958
2026-07-21T16:03:46.646,1.9939,76.829,39.4783
2026-07-21T16:03:46.646,1.9939,76.4178,39.4588
2026-07-21T16:03:46.657,2.0105,76.3395,39.8504
2026-07-21T16:03:46.675,2.0467,76.6528,39.7133
2026-07-21T16:03:46.687,2.0507,76.1633,39.5567
2026-07-21T16:03:46.687,2.0527,76.1241,39.5175
2026-07-21T16:03:46.704,2.0562,76.1437,39.9287
2026-07-21T16:03:46.704,2.0562,76.2808,39.6937
2026-07-21T16:03:46.723,2.093,75.9087,39.4979
2026-07-21T16:03:46.735,2.097,75.4584,39.7329
2026-07-21T16:03:46.742,2.101,75.6738,40.007
2026-07-21T16:03:46.750,2.1071,76.0066,39.8895
2026-07-21T16:03:46.750,2.1071,75.5759,39.8895
2026-07-21T16:03:46.783,2.1345,75.6738,39.6741
2026-07-21T16:03:46.783,2.1345,75.9479,40.1049
2026-07-21T16:03:46.793,2.1345,76.1045,39.87
2026-07-21T16:03:46.801,2.1345,75.5563,39.6154
2026-07-21T16:03:46.812,2.1663,75.4388,39.5958
2026-07-21T16:03:46.828,2.1824,75.3409,40.0658
2026-07-21T16:03:46.828,2.1824,75.5563,40.007
2026-07-21T16:03:46.828,2.1824,75.1451,40.2028
2026-07-21T16:03:46.848,2.2202,75.0863,39.8504
2026-07-21T16:03:46.860,2.2222,75.0472,40.1049
2026-07-21T16:03:46.860,2.2278,75.1255,40.2616
2026-07-21T16:03:46.876,2.2378,75.0276,40.5161
2026-07-21T16:03:46.876,2.2619,74.7143,40.1441
2026-07-21T16:03:46.907,2.2699,73.8723,40.1832
2026-07-21T16:03:46.907,2.2699,74.0094,40.4378
2026-07-21T16:03:46.921,2.278,74.1465,40.2616
2026-07-21T16:03:46.931,2.278,74.2639,39.7916
2026-07-21T16:03:46.955,2.3095,74.029,40.1049
2026-07-21T16:03:46.955,2.3095,74.4989,40.242
2026-07-21T16:03:46.955,2.3095,74.5577,40.1637
2026-07-21T16:03:46.972,2.3095,74.2052,40.0853
2026-07-21T16:03:46.991,2.3557,73.8919,40.4574
2026-07-21T16:03:46.991,2.3575,73.9898,40.6336
2026-07-21T16:03:47.003,2.3615,74.029,40.4574
2026-07-21T16:03:47.003,2.3635,73.8919,40.4574
2026-07-21T16:03:47.021,2.3695,73.8136,40.614
2026-07-21T16:03:47.036,2.3979,74.4989,41.0056
2026-07-21T16:03:47.045,2.3979,75.7521,41.9064
2026-07-21T16:03:47.049,2.4052,74.9101,41.5147
2026-07-21T16:03:47.061,2.413,74.166,41.221
2026-07-21T16:03:47.067,2.4432,74.2835,40.9665
2026-07-21T16:03:47.087,2.4472,74.1856,40.5749
2026-07-21T16:03:47.091,2.4513,73.8723,40.614
2026-07-21T16:03:47.099,2.453,74.2444,40.5749
2026-07-21T16:03:47.111,2.4876,74.6751,41.2406
2026-07-21T16:03:47.115,2.4916,75.3801,41.8672
2026-07-21T16:03:47.135,2.4936,74.4598,41.2406
2026-07-21T16:03:47.141,2.4976,74.166,41.1819
2026-07-21T16:03:47.151,2.4996,74.3031,41.2406
2026-07-21T16:03:47.178,2.5315,74.1465,40.7902
2026-07-21T16:03:47.178,2.5315,73.9898,40.6728
2026-07-21T16:03:47.181,2.5315,74.2444,40.8686
2026-07-21T16:03:47.191,2.5315,75.9283,42.2392
2026-07-21T16:03:47.222,2.5753,76.2024,42.4742
2026-07-21T16:03:47.222,2.5773,74.3031,41.3189
2026-07-21T16:03:47.222,2.5773,73.4611,40.7119
2026-07-21T16:03:47.225,2.5854,73.559,40.7511
2026-07-21T16:03:47.241,2.6147,72.9716,40.4182
2026-07-21T16:03:47.251,2.6167,72.815,40.3791
2026-07-21T16:03:47.265,2.6187,72.7758,40.3595
2026-07-21T16:03:47.277,2.6281,74.3031,42.2001
2026-07-21T16:03:47.281,2.6287,73.6765,41.6714
2026-07-21T16:03:47.293,2.6582,72.1101,39.9679
2026-07-21T16:03:47.303,2.6582,71.3856,39.9679
2026-07-21T16:03:47.312,2.6582,71.2681,40.007
2026-07-21T16:03:47.322,2.6724,70.8569,39.7133
2026-07-21T16:03:47.334,2.7045,70.994,39.3413
2026-07-21T16:03:47.352,2.7045,70.5436,39.5371
2026-07-21T16:03:47.352,2.7045,72.7954,41.6714
2026-07-21T16:03:47.352,2.7045,72.7171,41.3581
2026-07-21T16:03:47.367,2.7045,71.3268,39.772
2026-07-21T16:03:47.382,2.7366,70.4065,39.4783
2026-07-21T16:03:47.382,2.7366,70.524,39.6741
2026-07-21T16:03:47.398,2.7518,70.759,39.4
2026-07-21T16:03:47.398,2.7574,70.6023,39.1259
2026-07-21T16:03:47.423,2.7932,70.4261,39.165
2026-07-21T16:03:47.430,2.7952,72.3842,41.3581
2026-07-21T16:03:47.430,2.7993,71.5618,39.9091
2026-07-21T16:03:47.451,2.8053,69.3688,37.9315
2026-07-21T16:03:47.451,2.8357,68.7618,37.3832
2026-07-21T16:03:47.478,2.8397,68.6443,38.0294
2026-07-21T16:03:47.478,2.8397,69.1534,37.4811
2026-07-21T16:03:47.493,2.8478,69.1142,37.2657
2026-07-21T16:03:47.501,2.8538,68.9576,37.3245
2026-07-21T16:03:47.525,2.8788,70.2891,39.2434
2026-07-21T16:03:47.525,2.8788,70.5828,38.8713
2026-07-21T16:03:47.529,2.8788,69.1534,37.7356
2026-07-21T16:03:47.547,2.8948,69.0946,36.9916
2026-07-21T16:03:47.549,2.8948,68.9576,37.3245
2026-07-21T16:03:47.572,2.9322,69.6625,37.2461
2026-07-21T16:03:47.572,2.9322,68.9771,37.0699
2026-07-21T16:03:47.572,2.9403,68.9967,37.4224
2026-07-21T16:03:47.588,2.9423,69.78,39.2629
2026-07-21T16:03:47.621,2.9748,70.3282,38.8518
2026-07-21T16:03:47.621,2.9748,68.9576,37.5594
2026-07-21T16:03:47.621,2.9748,68.5464,36.972
2026-07-21T16:03:47.636,2.9748,68.2918,37.4224
2026-07-21T16:03:47.638,2.9904,68.9184,37.4811
2026-07-21T16:03:47.660,3.0202,68.938,37.579
2026-07-21T16:03:47.660,3.0222,69.1338,37.6965
2026-07-21T16:03:47.668,3.0285,70.2303,39.9874
2026-07-21T16:03:47.668,3.0325,69.31,38.7538
2026-07-21T16:03:47.688,3.0542,68.5268,37.5986
2026-07-21T16:03:47.701,3.0699,67.861,37.5203
2026-07-21T16:03:47.701,3.0709,67.6261,37.4419
2026-07-21T16:03:47.722,3.0769,67.7827,37.9902
2026-07-21T16:03:47.732,3.0846,68.0177,37.3832
2026-07-21T16:03:47.732,3.1158,68.3897,37.8923
2026-07-21T16:03:47.748,3.1193,68.4289,38.6951
2026-07-21T16:03:47.748,3.1233,68.1743,38.1077
2026-07-21T16:03:47.770,3.1286,67.6261,37.2657
2026-07-21T16:03:47.779,3.1534,66.8624,37.2657
2026-07-21T16:03:47.803,3.1649,66.5295,36.972
2026-07-21T16:03:47.803,3.1649,66.2358,37.4419
2026-07-21T16:03:47.811,3.1649,66.6275,37.3245
2026-07-21T16:03:47.824,3.1649,67.0778,38.2839
2026-07-21T16:03:47.847,3.2085,67.4498,38.9105
2026-07-21T16:03:47.847,3.2105,67.1561,38.9692
2026-07-21T16:03:47.847,3.2123,67.3128,38.6168
2026-07-21T16:03:47.858,3.2163,66.8037,38.1077
2026-07-21T16:03:47.858,3.2224,66.2163,37.8727
2026-07-21T16:03:47.874,3.2563,65.9225,38.7538
2026-07-21T16:03:47.898,3.2563,66.5883,38.558
2026-07-21T16:03:47.904,3.263,67.2149,39.1455
2026-07-21T16:03:47.910,3.267,66.9212,38.9497
2026-07-21T16:03:47.926,3.2975,66.6666,38.8909
2026-07-21T16:03:47.939,3.2975,66.4708,38.4406
2026-07-21T16:03:47.939,3.3015,65.9813,37.6769
2026-07-21T16:03:47.950,3.3055,65.433,37.5007
2026-07-21T16:03:47.963,3.3105,65.903,38.0489
2026-07-21T16:03:47.987,3.3408,66.2554,38.4406
2026-07-21T16:03:47.987,3.3408,67.1561,38.8322
2026-07-21T16:03:47.995,3.3408,66.9799,38.7343
2026-07-21T16:03:48.002,3.349,66.882,38.8126
2026-07-21T16:03:48.025,3.3848,66.5295,38.558
2026-07-21T16:03:48.025,3.3848,66.275,38.186
2026-07-21T16:03:48.025,3.3882,66.04,37.7552
2026-07-21T16:03:48.043,3.3903,65.4526,38.0685
2026-07-21T16:03:48.050,3.4231,66.275,38.5385
2026-07-21T16:03:48.067,3.4271,66.7254,38.7343
2026-07-21T16:03:48.067,3.4291,66.3729,38.2056
2026-07-21T16:03:48.082,3.4317,65.5505,38.5189
2026-07-21T16:03:48.088,3.4375,66.0009,38.6559
2026-07-21T16:03:48.113,3.458,66.0988,38.3818
2026-07-21T16:03:48.113,3.458,66.1771,38.1468
2026-07-21T16:03:48.123,3.4671,65.7463,38.8909
2026-07-21T16:03:48.133,3.4671,66.7449,39.028
2026-07-21T16:03:48.152,3.4994,66.9995,39.4
2026-07-21T16:03:48.152,3.5095,66.6079,39.0476
2026-07-21T16:03:48.152,3.5115,65.8834,39.165
2026-07-21T16:03:48.174,3.5161,65.9225,39.2629
2026-07-21T16:03:48.193,3.5464,66.1771,39.3804
2026-07-21T16:03:48.193,3.5464,66.1771,39.1259
2026-07-21T16:03:48.193,3.5504,65.8834,39.2042
2026-07-21T16:03:48.210,3.5585,66.3337,39.7525
2026-07-21T16:03:48.223,3.5874,66.2163,39.772
2026-07-21T16:03:48.236,3.5894,65.6288,39.3804
2026-07-21T16:03:48.242,3.5934,65.061,39.1259
2026-07-21T16:03:48.250,3.5979,64.8456,39.635
2026-07-21T16:03:48.278,3.6291,65.0414,39.5762
2026-07-21T16:03:48.278,3.6291,64.6106,39.7133
2026-07-21T16:03:48.283,3.6327,64.4931,39.2629
2026-07-21T16:03:48.291,3.6408,64.4148,39.9091
2026-07-21T16:03:48.318,3.6727,65.3155,40.4965
2026-07-21T16:03:48.318,3.6727,64.454,40.3399
2026-07-21T16:03:48.318,3.6727,64.0232,39.6154
2026-07-21T16:03:48.334,3.6727,64.0232,40.3791
2026-07-21T16:03:48.341,3.6727,64.5127,39.9679
2026-07-21T16:03:48.361,3.7056,64.1799,39.9483
2026-07-21T16:03:48.361,3.7056,64.219,39.3804
2026-07-21T16:03:48.366,3.7235,64.3561,40.3986
2026-07-21T16:03:48.382,3.7235,65.2372,40.5161
2026-07-21T16:03:48.399,3.7521,64.1994,40.0266
2026-07-21T16:03:48.399,3.7521,64.1799,39.4196
2026-07-21T16:03:48.399,3.7521,63.5533,40.0658
2026-07-21T16:03:48.417,3.798,64.1015,39.7525
2026-07-21T16:03:48.430,3.8023,64.1407,39.6154
2026-07-21T16:03:48.446,3.8043,64.082,39.3217
2026-07-21T16:03:48.446,3.8083,64.4344,40.3791
2026-07-21T16:03:48.462,3.8155,65.0218,40.614
2026-07-21T16:03:48.462,3.8476,64.1603,39.9483
2026-07-21T16:03:48.490,3.8532,63.5729,39.3217
2026-07-21T16:03:48.494,3.8532,63.5533,39.4979
2026-07-21T16:03:48.502,3.8643,63.5337,39.9483
2026-07-21T16:03:48.509,3.8643,63.8274,39.6937
2026-07-21T16:03:48.520,3.8994,63.4945,39.4979
2026-07-21T16:03:48.527,3.9014,64.1799,40.7315
2026-07-21T16:03:48.541,3.9054,64.8848,41.7693
2026-07-21T16:03:48.547,3.9074,64.1211,40.0658
2026-07-21T16:03:48.558,3.9109,63.0833,39.5567
2026-07-21T16:03:48.573,3.9448,62.9071,39.4
2026-07-21T16:03:48.588,3.9468,63.0442,39.4979
2026-07-21T16:03:48.588,3.9499,63.6903,39.0084
2026-07-21T16:03:48.605,3.9605,63.1225,38.9301
2026-07-21T16:03:48.609,3.9645,63.847,40.3986
2026-07-21T16:03:48.633,3.9923,63.8666,40.614
2026-07-21T16:03:48.633,3.9923,62.77,39.4979
2026-07-21T16:03:48.643,3.9923,62.2805,39.1455
2026-07-21T16:03:48.658,4.0071,62.2609,39.028
2026-07-21T16:03:48.668,4.0378,62.7896,39.0084
2026-07-21T16:03:48.684,4.0388,63.0442,38.8126
2026-07-21T16:03:48.684,4.0388,62.9463,38.7147
2026-07-21T16:03:48.686,4.0454,63.5729,39.6937
2026-07-21T16:03:48.701,4.0533,64.3365,40.614
2026-07-21T16:03:48.728,4.0853,63.4358,39.4392
2026-07-21T16:03:48.728,4.0853,62.8288,38.8126
2026-07-21T16:03:48.732,4.0897,62.2414,38.5385
2026-07-21T16:03:48.747,4.0937,62.0651,38.6755
2026-07-21T16:03:48.747,4.1168,61.9868,38.793
2026-07-21T16:03:48.769,4.1301,62.3784,38.6951
2026-07-21T16:03:48.769,4.1301,62.5351,40.0462
2026-07-21T16:03:48.783,4.1346,63.2008,40.6336
2026-07-21T16:03:48.791,4.1346,62.6134,39.9483
2026-07-21T16:03:48.810,4.171,62.1826,39.3217
2026-07-21T16:03:48.810,4.173,61.6735,39.0084
2026-07-21T16:03:48.826,4.179,61.4777,39.2434
2026-07-21T16:03:48.828,4.1801,62.026,39.0084
2026-07-21T16:03:48.858,4.2125,61.6735,38.8518
2026-07-21T16:03:48.860,4.2145,62.3588,39.8504
2026-07-21T16:03:48.860,4.2165,62.8092,40.7315
2026-07-21T16:03:48.874,4.2226,62.0456,39.1846
2026-07-21T16:03:48.876,4.2496,61.4777,39.028
2026-07-21T16:03:48.903,4.265,61.4386,38.5972
2026-07-21T16:03:48.903,4.265,60.8707,38.9301
2026-07-21T16:03:48.914,4.2701,61.184,38.7147
2026-07-21T16:03:48.923,4.2755,60.8903,38.4797
2026-07-21T16:03:48.937,4.3092,61.3015,38.6364
2026-07-21T16:03:48.937,4.3112,60.4595,38.9105
2026-07-21T16:03:48.943,4.3112,60.7336,37.9706
2026-07-21T16:03:48.964,4.3112,60.4399,37.7748
2026-07-21T16:03:48.969,4.3239,60.3224,37.3636
2026-07-21T16:03:49.000,4.3536,59.97,37.7944
2026-07-21T16:03:49.000,4.3546,60.4204,38.1077
2026-07-21T16:03:49.003,4.3566,60.4399,37.814
2026-07-21T16:03:49.005,4.3606,59.97,38.0881
2026-07-21T16:03:49.029,4.3864,59.3042,37.9902
2026-07-21T16:03:49.043,4.3864,59.8917,37.579
2026-07-21T16:03:49.043,4.3864,59.5001,37.344
2026-07-21T16:03:49.056,4.4057,59.4413,37.0307
2026-07-21T16:03:49.060,4.4057,59.4217,37.4615
2026-07-21T16:03:49.080,4.4397,59.8329,37.7552
2026-07-21T16:03:49.080,4.4397,60.3616,37.7944
2026-07-21T16:03:49.080,4.4458,59.598,38.0294
2026-07-21T16:03:49.101,4.4516,58.6581,37.8336
2026-07-21T16:03:49.123,4.4814,58.6777,37.4224
2026-07-21T16:03:49.123,4.4814,58.4231,36.8545
2026-07-21T16:03:49.131,4.4814,57.9336,36.8349
2026-07-21T16:03:49.143,4.4814,57.7965,36.8545
2026-07-21T16:03:49.157,4.5133,57.9728,37.2853
2026-07-21T16:03:49.169,4.5133,58.4819,37.2461
2026-07-21T16:03:49.173,4.5291,58.149,37.4224
2026-07-21T16:03:49.175,4.5301,57.7965,36.7174
2026-07-21T16:03:49.207,4.5614,57.4441,36.9524
2026-07-21T16:03:49.207,4.5614,57.6007,36.5804
2026-07-21T16:03:49.207,4.5614,57.0133,36.4433
2026-07-21T16:03:49.224,4.5614,56.1713,36.6195
2026-07-21T16:03:49.255,4.6098,56.093,37.2265
2026-07-21T16:03:49.255,4.6098,57.2091,37.7552
2026-07-21T16:03:49.255,4.6098,56.4455,37.5594
2026-07-21T16:03:49.255,4.6098,55.6035,37.3832
2026-07-21T16:03:49.270,4.6256,55.4273,37.5007
2026-07-21T16:03:49.291,4.6503,55.9168,37.207
2026-07-21T16:03:49.291,4.656,55.7014,36.8741
2026-07-21T16:03:49.303,4.6606,55.3685,36.737
2026-07-21T16:03:49.303,4.6606,55.5839,37.4224
2026-07-21T16:03:49.319,4.6721,56.465,37.5594
2026-07-21T16:03:49.344,4.6945,55.9559,36.9524
2026-07-21T16:03:49.344,4.6945,55.721,36.8154
2026-07-21T16:03:49.354,4.7086,55.8189,37.2657
2026-07-21T16:03:49.366,4.7146,56.5238,37.1482
2026-07-21T16:03:49.388,4.7375,56.2496,36.7958
2026-07-21T16:03:49.388,4.7375,56.0538,36.8349
2026-07-21T16:03:49.388,4.7375,56.1909,37.4419
2026-07-21T16:03:49.402,4.7515,56.2888,37.3636
2026-07-21T16:03:49.413,4.7835,56.0734,36.6587
2026-07-21T16:03:49.431,4.7835,55.3881,36.4433
2026-07-21T16:03:49.431,4.7835,55.2119,36.6195
2026-07-21T16:03:49.431,4.7835,55.9364,36.8154
2026-07-21T16:03:49.472,4.8157,55.8972,36.5412
2026-07-21T16:03:49.472,4.8308,55.6035,36.7958
2026-07-21T16:03:49.472,4.8318,55.2706,36.8154
2026-07-21T16:03:49.477,4.838,55.6818,37.0699
2026-07-21T16:03:49.477,4.838,55.7014,36.6391
2026-07-21T16:03:49.509,4.87,55.486,36.3258
2026-07-21T16:03:49.509,4.872,55.3294,36.4433
2026-07-21T16:03:49.509,4.874,55.721,36.6195
2026-07-21T16:03:49.532,4.8819,55.8972,36.2671
2026-07-21T16:03:49.547,4.9125,55.2902,35.993
2026-07-21T16:03:49.560,4.9163,54.9965,36.3846
2026-07-21T16:03:49.560,4.9196,55.251,36.5608
2026-07-21T16:03:49.575,4.9256,55.5643,36.3846
2026-07-21T16:03:49.581,4.9282,55.6231,36.0909
2026-07-21T16:03:49.591,4.9555,55.4077,36.365
2026-07-21T16:03:49.591,4.9575,56.0734,37.207
2026-07-21T16:03:49.615,4.9613,56.2301,36.7958
2026-07-21T16:03:49.622,4.9613,56.0147,36.5021
2026-07-21T16:03:49.638,4.9992,55.251,36.9916
2026-07-21T16:03:49.638,5.0,55.251,37.2265
2026-07-21T16:03:49.655,5.0047,55.4664,37.1286
2026-07-21T16:03:49.655,5.0097,55.2706,36.7174
2026-07-21T16:03:49.688,5.04,54.9377,36.9916
2026-07-21T16:03:49.688,5.0421,55.4664,37.2853
2026-07-21T16:03:49.691,5.0441,55.8189,36.8937
2026-07-21T16:03:49.706,5.0486,54.9377,36.2083
2026-07-21T16:03:49.716,5.0801,54.1349,36.2867
2026-07-21T16:03:49.729,5.0841,54.4286,36.5216
2026-07-21T16:03:49.734,5.0859,54.6049,36.6195
2026-07-21T16:03:49.742,5.0879,54.644,36.4629
2026-07-21T16:03:49.765,5.1179,54.2328,36.6391
2026-07-21T16:03:49.765,5.1179,54.4286,36.9524
2026-07-21T16:03:49.774,5.1179,54.6832,37.0699
2026-07-21T16:03:49.781,5.1344,54.1153,36.7762
2026-07-21T16:03:49.793,5.1639,53.6062,36.737
2026-07-21T16:03:49.811,5.1741,54.4286,37.1482
2026-07-21T16:03:49.811,5.1741,54.5461,37.3832
2026-07-21T16:03:49.827,5.1799,54.8007,37.2853
2026-07-21T16:03:49.836,5.1799,54.8203,37.1286
2026-07-21T16:03:49.857,5.2113,54.8398,37.8727
2026-07-21T16:03:49.857,5.2113,55.6231,38.0881
2026-07-21T16:03:49.866,5.2113,55.0161,38.0685
2026-07-21T16:03:49.873,5.2272,53.8021,37.4811
2026-07-21T16:03:49.889,5.249,53.6846,37.8727
2026-07-21T16:03:49.905,5.2593,53.9,37.9902
2026-07-21T16:03:49.905,5.2593,54.037,37.9706
2026-07-21T16:03:49.905,5.2593,54.1349,37.9706
2026-07-21T16:03:49.921,5.2593,54.1349,38.9105
2026-07-21T16:03:49.933,5.2911,54.6636,39.4
2026-07-21T16:03:49.943,5.2911,54.1153,39.0476
2026-07-21T16:03:49.953,5.307,53.5671,38.421
2026-07-21T16:03:49.953,5.307,53.3517,38.9497
2026-07-21T16:03:49.969,5.3432,53.7433,38.9888
2026-07-21T16:03:49.985,5.3432,53.5083,38.7734
2026-07-21T16:03:49.985,5.3541,53.6454,38.5972
2026-07-21T16:03:50.001,5.3541,53.4496,39.8308
2026-07-21T16:03:50.010,5.3541,54.3503,40.2811
2026-07-21T16:03:50.037,5.3857,53.9195,40.007
2026-07-21T16:03:50.037,5.3857,52.8818,39.0476
2026-07-21T16:03:50.037,5.3857,51.0999,39.0867
2026-07-21T16:03:50.048,5.4015,49.8467,37.7944
2026-07-21T16:03:50.063,5.4335,46.6551,35.7972
2026-07-21T16:03:50.079,5.4399,41.897,32.5859
2026-07-21T16:03:50.079,5.4399,35.5136,29.4334
2026-07-21T16:03:50.079,5.4556,29.0716,25.7326
2026-07-21T16:03:50.095,5.4832,22.6882,21.4836
2026-07-21T16:03:50.111,5.5086,16.3049,16.9996
2026-07-21T16:03:50.111,5.5086,10.7048,12.7898
2026-07-21T16:03:50.141,5.5127,6.0642,9.2456
2026-07-21T16:03:50.155,5.5127,2.1284,6.1323
2026-07-21T16:03:50.159,5.5284,0.3857,4.233
2026-07-21T16:03:50.159,5.5602,-0.0255,2.9015
2026-07-21T16:03:50.177,5.5642,0.4053,2.3532
2026-07-21T16:03:50.197,5.576,0.327,1.0021
2026-07-21T16:03:50.197,5.576,0.2095,0.5322
2026-07-21T16:03:50.222,5.576,0.2878,0.4735
2026-07-21T16:03:50.222,5.5781,0.4836,0.7868
2026-07-21T16:03:50.227,5.5821,0.9927,0.5714
2026-07-21T16:03:50.234,5.6116,1.3844,1.1
2026-07-21T16:03:50.238,5.6116,2.0109,1.8441
2026-07-21T16:03:50.254,5.6232,3.6949,3.6651
2026-07-21T16:03:50.270,5.6232,3.0487,2.3728
2026-07-21T16:03:50.276,5.6318,1.8935,1.4133
2026-07-21T16:03:50.281,5.6318,1.5018,0.6497
2026-07-21T16:03:50.303,5.6547,1.3648,1.2959
2026-07-21T16:03:50.303,5.6547,1.5997,0.9238
2026-07-21T16:03:50.315,5.6547,1.7956,1.2371
2026-07-21T16:03:50.329,5.6704,1.9718,1.1784
2026-07-21T16:03:50.348,5.6966,1.4823,1.198
2026-07-21T16:03:50.348,5.6986,1.541,0.6497
2026-07-21T16:03:50.348,5.7006,0.9144,0.1014
2026-07-21T16:03:50.364,5.7051,0.9536,-0.114
2026-07-21T16:03:50.384,5.7321,0.7774,0.2385
2026-07-21T16:03:50.384,5.7338,1.4627,0.2581
2026-07-21T16:03:50.392,5.7338,1.6585,0.9434
2026-07-21T16:03:50.403,5.7632,2.6375,1.805
2026-07-21T16:03:50.419,5.7652,1.1494,0.4539
2026-07-21T16:03:50.426,5.7652,-0.6716,-1.2888
2026-07-21T16:03:50.427,5.7652,-0.6325,-1.465
2026-07-21T16:03:50.453,5.7968,1.4039,0.493
2026-07-21T16:03:50.453,5.7968,1.1886,0.728
2026-07-21T16:03:50.459,5.7968,1.7956,1.2371
2026-07-21T16:03:50.475,5.8146,0.3074,-0.5447
2026-07-21T16:03:50.477,5.8286,0.1508,-0.7405
2026-07-21T16:03:50.490,5.832,-0.4171,-0.8972
2026-07-21T16:03:50.508,5.861,-0.6716,-1.1322
2026-07-21T16:03:50.508,5.861,1.3256,0.3168
2026-07-21T16:03:50.526,5.861,0.327,-0.5447
2026-07-21T16:03:50.538,5.892,0.7578,0.3364
2026-07-21T16:03:50.538,5.892,1.8739,1.57
2026-07-21T16:03:50.555,5.892,1.2669,0.2777
2026-07-21T16:03:50.570,5.9189,-0.6325,-1.4455
2026-07-21T16:03:50.570,5.9248,-1.5723,-2.1112
2026-07-21T16:03:50.570,5.9248,-1.2786,-1.6608
2026-07-21T16:03:50.586,5.9248,0.1312,-0.858
2026-07-21T16:03:50.612,5.9588,-0.1625,-0.8972
2026-07-21T16:03:50.612,5.9588,-0.3387,-0.7993
2026-07-21T16:03:50.618,5.9649,-0.1429,-0.858
2026-07-21T16:03:50.634,5.9933,0.2683,-0.5839
2026-07-21T16:03:50.650,5.9953,-0.2996,-0.9559
2026-07-21T16:03:50.654,5.9973,-0.5933,-1.093
2026-07-21T16:03:50.681,6.0199,-0.1625,-0.8384
2026-07-21T16:03:50.681,6.0199,0.0137,-0.8384
2026-07-21T16:03:50.681,6.0199,0.092,-0.5447
2026-07-21T16:03:50.695,6.0514,-0.0059,-0.3685
2026-07-21T16:03:50.713,6.0514,0.1116,-0.4468
2026-07-21T16:03:50.713,6.0514,0.3466,-0.3489
2026-07-21T16:03:50.713,6.0855,0.7774,-0.0356
2026-07-21T16:03:50.745,6.0876,-0.1038,-0.3881
2026-07-21T16:03:50.745,6.0896,-0.2408,-0.9559
2026-07-21T16:03:50.745,6.0916,0.2487,-0.4273
2026-07-21T16:03:50.779,6.114,-0.2604,-1.0734
2026-07-21T16:03:50.779,6.114,-0.3975,-0.9755
2026-07-21T16:03:50.785,6.114,-0.045,-0.9559
2026-07-21T16:03:50.796,6.1458,0.1312,-0.486
2026-07-21T16:03:50.808,6.1458,0.3074,-0.5643
2026-07-21T16:03:50.808,6.1458,0.1116,-0.0356
2026-07-21T16:03:50.826,6.1782,0.1899,-0.3293
2026-07-21T16:03:50.839,6.1782,-0.045,-0.7797
2026-07-21T16:03:50.839,6.1877,0.3857,-0.4664
2026-07-21T16:03:50.855,6.209,-0.0842,-0.251
2026-07-21T16:03:50.872,6.209,0.2878,-0.4273
2026-07-21T16:03:50.872,6.209,0.327,-0.3098
2026-07-21T16:03:50.881,6.2249,0.0724,-0.7405
2026-07-21T16:03:50.903,6.2539,0.1116,-0.3098
2026-07-21T16:03:50.903,6.2539,0.1899,-0.5447
2026-07-21T16:03:50.903,6.2577,0.5032,-0.1335
2026-07-21T16:03:50.926,6.2898,0.6011,-0.1923
2026-07-21T16:03:50.937,6.2898,0.4053,-0.5056
2026-07-21T16:03:50.945,6.2957,0.1899,-0.114
2026-07-21T16:03:50.953,6.2997,0.7774,-0.1923
2026-07-21T16:03:50.967,6.3289,0.6011,0.0035
2026-07-21T16:03:50.979,6.3289,0.3466,-0.1727
2026-07-21T16:03:50.983,6.333,0.1312,-0.1727
2026-07-21T16:03:50.993,6.3356,1.0123,0.1798
2026-07-21T16:03:50.997,6.367,0.5815,0.0231
2026-07-21T16:03:51.014,6.367,0.327,-0.3489
2026-07-21T16:03:51.022,6.367,-0.0255,-0.1923
2026-07-21T16:03:51.042,6.3985,0.327,-0.5447
2026-07-21T16:03:51.055,6.3985,0.5815,0.0427
2026-07-21T16:03:51.055,6.3985,1.2081,0.7084
2026-07-21T16:03:51.061,6.3985,0.4836,0.3951
2026-07-21T16:03:51.076,6.4332,1.0711,0.0623
2026-07-21T16:03:51.092,6.4332,0.2683,-0.2902
2026-07-21T16:03:51.092,6.4441,0.1508,-0.7993
2026-07-21T16:03:51.092,6.4461,-0.1821,-0.2706
2026-07-21T16:03:51.127,6.4811,0.5424,-0.4664
2026-07-21T16:03:51.127,6.4811,0.4836,-0.3293
2026-07-21T16:03:51.127,6.4831,1.3844,0.7672
2026-07-21T16:03:51.140,6.4831,1.6781,1.57
2026-07-21T16:03:51.169,6.5151,1.306,0.8455
2026-07-21T16:03:51.169,6.5257,0.0529,-0.8189
2026-07-21T16:03:51.177,6.5257,-0.3779,-0.9364
2026-07-21T16:03:51.177,6.5257,-0.2604,-0.3685
2026-07-21T16:03:51.188,6.5574,0.1312,-0.4664
2026-07-21T16:03:51.209,6.5574,0.0333,-0.6818
2026-07-21T16:03:51.209,6.5574,0.7382,-0.0944
2026-07-21T16:03:51.219,6.5574,1.0123,0.7868
2026-07-21T16:03:51.235,6.5889,1.3648,0.8651
2026-07-21T16:03:51.251,6.5889,0.699,-0.2706
2026-07-21T16:03:51.251,6.5889,0.0137,-0.5643
2026-07-21T16:03:51.282,6.6377,-0.045,-0.3293
2026-07-21T16:03:51.282,6.6397,0.3074,-0.0356
2026-07-21T16:03:51.282,6.6397,0.3857,-0.5839
2026-07-21T16:03:51.282,6.6417,0.7774,-0.2119
2026-07-21T16:03:51.322,6.6725,1.7956,1.5112
2026-07-21T16:03:51.327,6.6725,1.6977,1.2371
2026-07-21T16:03:51.327,6.6725,0.5424,-0.2902
2026-07-21T16:03:51.335,6.6783,-0.3387,-1.1322
2026-07-21T16:03:51.361,6.7049,-0.4171,-0.7014
2026-07-21T16:03:51.366,6.7049,-0.045,-0.486
2026-07-21T16:03:51.366,6.7049,0.1899,-0.7405
2026-07-21T16:03:51.374,6.7163,-0.2604,-1.1126
2026-07-21T16:03:51.394,6.7473,-0.6325,-0.7797
2026-07-21T16:03:51.394,6.7473,-0.3192,-0.5252
2026-07-21T16:03:51.398,6.7473,-0.045,-0.8189
2026-07-21T16:03:51.410,6.7853,-0.28,-1.2301
2026-07-21T16:03:51.427,6.7893,-0.7108,-0.7601
2026-07-21T16:03:51.427,6.7893,-0.1429,-0.7601
2026-07-21T16:03:51.441,6.7913,-0.0842,-0.8972
2026-07-21T16:03:51.472,6.826,-0.2604,-1.1713
2026-07-21T16:03:51.475,6.826,-0.652,-0.5839
2026-07-21T16:03:51.475,6.8309,-0.1821,-0.6622
2026-07-21T16:03:51.485,6.8338,-0.1625,-0.7797
2026-07-21T16:03:51.497,6.8671,-0.1821,-0.858
2026-07-21T16:03:51.504,6.8671,-0.3387,-0.8972
2026-07-21T16:03:51.512,6.8671,-0.2604,-0.5056
2026-07-21T16:03:51.527,6.8712,-0.1821,-0.721
2026-07-21T16:03:51.540,6.892,-0.2017,-0.9755
2026-07-21T16:03:51.553,6.892,-0.28,-0.9364
2026-07-21T16:03:51.557,6.892,-0.4367,-0.6426
2026-07-21T16:03:51.563,6.9047,-0.1821,-0.7014
2026-07-21T16:03:51.586,6.9387,-0.1625,-0.858
2026-07-21T16:03:51.586,6.9387,-0.3975,-1.0734
2026-07-21T16:03:51.586,6.9387,-0.2408,-0.721
2026-07-21T16:03:51.598,6.9688,-0.1625,-0.9364
2026-07-21T16:03:51.627,6.9688,-0.045,-0.8776
2026-07-21T16:03:51.630,6.9688,-0.4171,-1.1322
2026-07-21T16:03:51.634,6.982,-0.6325,-0.6622
2026-07-21T16:03:51.646,7.0135,0.0137,-0.5839
2026-07-21T16:03:51.662,7.0165,-0.28,-0.7601
2026-07-21T16:03:51.662,7.0165,-0.4562,-1.1713
2026-07-21T16:03:51.676,7.0202,-0.4171,-0.486
2026-07-21T16:03:51.705,7.0485,0.0137,-0.7797
2026-07-21T16:03:51.705,7.0485,-0.28,-0.8189
2026-07-21T16:03:51.705,7.0485,-0.0842,-1.093
2026-07-21T16:03:51.714,7.0485,-0.2408,-0.6035
2026-07-21T16:03:51.726,7.0829,-0.1625,-0.7993
2026-07-21T16:03:51.742,7.0829,-0.2604,-0.7797
2026-07-21T16:03:51.742,7.0829,-0.28,-1.0538
2026-07-21T16:03:51.758,7.1195,-0.4171,-0.6426
2026-07-21T16:03:51.776,7.1236,-0.1821,-0.721
2026-07-21T16:03:51.776,7.1236,-0.2996,-0.6035
2026-07-21T16:03:51.776,7.1276,-0.2408,-0.9755
2026-07-21T16:03:51.796,7.1474,-0.3779,-0.6231
2026-07-21T16:03:51.805,7.1592,-0.045,-0.5839
2026-07-21T16:03:51.815,7.1625,-0.045,-0.6818
2026-07-21T16:03:51.828,7.1906,-0.1821,-0.8384
2026-07-21T16:03:51.841,7.1906,-0.3583,-0.6426
2026-07-21T16:03:51.841,7.1906,-0.0646,-0.2706
2026-07-21T16:03:51.853,7.1906,0.1312,-0.7601
2026-07-21T16:03:51.868,7.2225,-0.2017,-0.9559
2026-07-21T16:03:51.868,7.2225,-0.4171,-0.6818
2026-07-21T16:03:51.868,7.2225,-0.045,-0.5056
2026-07-21T16:03:51.884,7.2567,-0.0255,-0.7601
2026-07-21T16:03:51.900,7.2567,-0.3583,-0.7993
2026-07-21T16:03:51.916,7.2567,-0.3779,-0.6426
2026-07-21T16:03:51.916,7.2696,0.0333,-0.5839
2026-07-21T16:03:51.950,7.2991,0.0529,-0.7601
2026-07-21T16:03:51.950,7.2991,-0.2604,-0.7797
2026-07-21T16:03:51.950,7.2991,-0.4171,-0.5252
2026-07-21T16:03:51.963,7.3011,0.092,-0.4468
2026-07-21T16:03:51.985,7.3383,-0.0255,-0.721
2026-07-21T16:03:51.989,7.3383,0.0724,-0.8384
2026-07-21T16:03:51.993,7.3383,-0.3387,-0.4273
2026-07-21T16:03:51.995,7.3481,0.092,-0.6231
2026-07-21T16:03:52.031,7.3649,0.0724,-0.6622
2026-07-21T16:03:52.031,7.3649,-0.1038,-0.7797
2026-07-21T16:03:52.032,7.3649,-0.3779,-0.5056
2026-07-21T16:03:52.043,7.3807,0.0333,-0.6231
2026-07-21T16:03:52.058,7.3966,0.2291,-0.5252
2026-07-21T16:03:52.058,7.3966,-0.0646,-0.858
2026-07-21T16:03:52.074,7.4125,0.092,-0.5447
2026-07-21T16:03:52.074,7.4444,0.092,-0.5643
2026-07-21T16:03:52.090,7.4444,-0.0059,-0.486
2026-07-21T16:03:52.090,7.4444,0.0333,-0.9364
2026-07-21T16:03:52.106,7.4758,-0.3975,-0.3881
2026-07-21T16:03:52.128,7.4758,0.1116,-0.5643
2026-07-21T16:03:52.128,7.4758,0.1312,-0.4077
2026-07-21T16:03:52.142,7.4833,-0.1234,-0.8189
2026-07-21T16:03:52.153,7.5075,-0.4758,-0.5839
2026-07-21T16:03:52.169,7.5075,0.0137,-0.2902
2026-07-21T16:03:52.169,7.5075,0.0333,-0.6231
2026-07-21T16:03:52.201,7.5394,-0.1821,-0.9168
2026-07-21T16:03:52.201,7.5394,-0.4562,-0.486
2026-07-21T16:03:52.201,7.5394,0.1116,-0.5447
2026-07-21T16:03:52.219,7.5702,0.1508,-0.7014
2026-07-21T16:03:52.233,7.5702,0.0137,-0.6818
2026-07-21T16:03:52.233,7.5702,-0.1429,-0.4664
2026-07-21T16:03:52.242,7.6036,-0.1429,-0.3098
2026-07-21T16:03:52.264,7.6036,0.1704,-0.6426
2026-07-21T16:03:52.264,7.6036,-0.1625,-0.6035
2026-07-21T16:03:52.264,7.6157,-0.045,-0.721
2026-07-21T16:03:52.280,7.6351,-0.1821,-0.3098
2026-07-21T16:03:52.297,7.6451,0.3466,-0.5839
2026-07-21T16:03:52.297,7.6471,-0.0646,-0.5643
2026-07-21T16:03:52.329,7.6661,0.092,-0.858
2026-07-21T16:03:52.329,7.6661,-0.28,-0.3098
2026-07-21T16:03:52.329,7.6661,0.2095,-0.4468
2026-07-21T16:03:52.346,7.7017,0.2291,-0.6231
2026-07-21T16:03:52.360,7.7017,-0.2213,-0.8384
2026-07-21T16:03:52.360,7.7017,-0.1429,-0.2902
2026-07-21T16:03:52.360,7.7136,0.1704,-0.4273
2026-07-21T16:03:52.395,7.7378,0.0724,-0.721
2026-07-21T16:03:52.395,7.7378,-0.2408,-0.8189
2026-07-21T16:03:52.395,7.7378,-0.1625,-0.3489
2026-07-21T16:03:52.431,7.7709,0.1704,-0.3685
2026-07-21T16:03:52.431,7.7729,0.327,-0.7014
2026-07-21T16:03:52.431,7.7749,-0.2017,-0.7405
2026-07-21T16:03:52.459,7.8006,-0.0255,-0.3685
2026-07-21T16:03:52.459,7.8006,0.2683,-0.4664
2026-07-21T16:03:52.464,7.8006,0.6011,-0.6231
2026-07-21T16:03:52.470,7.8348,-0.0842,-0.6231
2026-07-21T16:03:52.494,7.8348,-0.1821,-0.3685
2026-07-21T16:03:52.494,7.8348,0.1704,-0.2706
2026-07-21T16:03:52.505,7.8666,0.2095,-0.2314
2026-07-21T16:03:52.512,7.8686,0.0724,-0.7601
2026-07-21T16:03:52.524,7.8706,-0.2996,-0.3881
2026-07-21T16:03:52.534,7.8721,0.2683,-0.1727
2026-07-21T16:03:52.550,7.8942,0.3074,-0.3881
2026-07-21T16:03:52.560,7.8942,0.092,-0.7993
2026-07-21T16:03:52.564,7.8942,-0.045,-0.2314
2026-07-21T16:03:52.588,7.9313,0.3074,-0.2706
2026-07-21T16:03:52.588,7.9348,0.2095,-0.3685
2026-07-21T16:03:52.588,7.9348,0.1312,-0.3685
2026-07-21T16:03:52.623,7.9648,-0.1625,-0.2314
2026-07-21T16:03:52.623,7.9648,0.3466,0.1798
2026-07-21T16:03:52.630,7.9665,0.2095,-0.3881
2026-07-21T16:03:52.644,7.9946,0.1508,-0.2706
2026-07-21T16:03:52.644,7.9977,-0.1429,-0.3489
2026-07-21T16:03:52.644,7.9977,0.3466,-0.3098
2026-07-21T16:03:52.687,8.0192,0.2487,-0.1335
2026-07-21T16:03:52.688,8.0192,0.2487,-0.4077
2026-07-21T16:03:52.688,8.0298,-0.0842,-0.486
2026-07-21T16:03:52.691,8.0329,0.3074,-0.2314
2026-07-21T16:03:52.713,8.0615,0.2878,-0.3293
2026-07-21T16:03:52.713,8.0615,0.562,-0.4077
2026-07-21T16:03:52.724,8.0615,-0.0255,-0.4077
2026-07-21T16:03:52.739,8.0836,0.1899,-0.0748
2026-07-21T16:03:52.747,8.0955,0.4053,-0.3881
2026-07-21T16:03:52.755,8.0955,0.1899,-0.5839
2026-07-21T16:03:52.771,8.1254,0.0137,-0.4468
2026-07-21T16:03:52.777,8.1274,0.1508,-0.0748
2026-07-21T16:03:52.777,8.1274,0.4641,-0.4077
2026-07-21T16:03:52.789,8.1571,0.1116,-0.4273
2026-07-21T16:03:52.817,8.1571,0.0529,-0.1335
2026-07-21T16:03:52.817,8.1571,0.4836,-0.1727
2026-07-21T16:03:52.825,8.1773,0.4053,-0.3685
2026-07-21T16:03:52.845,8.1886,0.4249,-0.2902
2026-07-21T16:03:52.845,8.1886,0.0529,-0.2902
2026-07-21T16:03:52.851,8.1922,0.5815,-0.2119
2026-07-21T16:03:52.866,8.2202,0.327,-0.0552
2026-07-21T16:03:52.871,8.2202,0.1508,-0.486
2026-07-21T16:03:52.886,8.2202,0.3662,-0.1531
2026-07-21T16:03:52.898,8.2526,0.2878,-0.1923
2026-07-21T16:03:52.907,8.2526,0.327,-0.1727
2026-07-21T16:03:52.914,8.2526,0.3466,-0.1727
2026-07-21T16:03:52.914,8.2836,0.1312,-0.3098
2026-07-21T16:03:52.946,8.2836,0.4249,-0.114
2026-07-21T16:03:52.946,8.2836,0.5032,0.0427
2026-07-21T16:03:52.946,8.3005,0.2683,-0.3685
2026-07-21T16:03:52.977,8.3238,-0.0646,-0.114
2026-07-21T16:03:52.977,8.3315,0.5228,0.0427
2026-07-21T16:03:52.977,8.3315,0.5424,0.0818
2026-07-21T16:03:52.993,8.3354,0.7382,-0.3685
2026-07-21T16:03:53.017,8.3656,0.3074,-0.2902
2026-07-21T16:03:53.017,8.3677,0.6011,0.121
2026-07-21T16:03:53.025,8.3677,0.6011,0.0427
2026-07-21T16:03:53.041,8.3968,0.2291,0.0231
2026-07-21T16:03:53.046,8.3989,0.2878,-0.3685
2026-07-21T16:03:53.046,8.3989,0.2487,0.0427
2026-07-21T16:03:53.072,8.4263,0.6403,-0.1923
2026-07-21T16:03:53.088,8.4263,0.3466,0.121
2026-07-21T16:03:53.088,8.4263,0.4641,-0.3881
2026-07-21T16:03:53.094,8.4358,0.1899,0.2777
2026-07-21T16:03:53.106,8.458,0.6403,-0.0944
2026-07-21T16:03:53.120,8.458,0.5424,-0.0748
2026-07-21T16:03:53.120,8.458,0.2683,-0.3685
2026-07-21T16:03:53.140,8.4984,0.2683,0.1993
2026-07-21T16:03:53.144,8.4984,0.5424,0.2385
2026-07-21T16:03:53.152,8.5004,0.5815,-0.1531
2026-07-21T16:03:53.152,8.5045,0.327,-0.4273
2026-07-21T16:03:53.167,8.5312,0.1508,0.2189
2026-07-21T16:03:53.188,8.5332,0.7774,-0.0161
2026-07-21T16:03:53.194,8.5357,0.6011,-0.2314
2026-07-21T16:03:53.206,8.5639,-0.0842,-0.4077
2026-07-21T16:03:53.221,8.5659,0.2487,0.2777
2026-07-21T16:03:53.227,8.5679,0.6207,0.0818
2026-07-21T16:03:53.255,8.5928,0.5815,-0.1923
2026-07-21T16:03:53.255,8.5928,0.3662,-0.3098
2026-07-21T16:03:53.255,8.5928,0.2291,0.356
2026-07-21T16:03:53.263,8.601,0.6207,0.2385
2026-07-21T16:03:53.279,8.626,0.6795,-0.251
2026-07-21T16:03:53.286,8.628,0.3466,-0.251
2026-07-21T16:03:53.295,8.63,0.3074,0.0818
2026-07-21T16:03:53.316,8.6554,0.6403,0.2189
2026-07-21T16:03:53.320,8.6574,0.6795,-0.0748
2026-07-21T16:03:53.324,8.6614,0.4053,-0.1531
2026-07-21T16:03:53.347,8.6833,0.2683,0.0427
2026-07-21T16:03:53.347,8.6833,0.6795,0.2972
2026-07-21T16:03:53.353,8.6904,0.7774,-0.0356
2026-07-21T16:03:53.377,8.7101,0.4641,-0.1727
2026-07-21T16:03:53.377,8.7101,0.1899,-0.0161
2026-07-21T16:03:53.386,8.7101,0.6795,0.3364
2026-07-21T16:03:53.404,8.7433,0.699,-0.0944
2026-07-21T16:03:53.404,8.7433,0.4836,-0.251
2026-07-21T16:03:53.404,8.7571,0.2683,0.0427
2026-07-21T16:03:53.428,8.7761,0.7186,0.3168
2026-07-21T16:03:53.437,8.7889,0.8165,0.0818
2026-07-21T16:03:53.437,8.7889,0.5424,-0.3098
2026-07-21T16:03:53.470,8.8201,0.1116,0.0623
2026-07-21T16:03:53.470,8.8201,0.6795,0.4147
2026-07-21T16:03:53.470,8.8201,0.8165,0.1406
2026-07-21T16:03:53.484,8.8271,0.6011,-0.2119
2026-07-21T16:03:53.488,8.8541,0.2878,0.0818
2026-07-21T16:03:53.512,8.8605,0.6207,0.5518
2026-07-21T16:03:53.514,8.8646,0.7578,0.1406
2026-07-21T16:03:53.530,8.8834,0.562,-0.0356
2026-07-21T16:03:53.530,8.8834,0.2095,0.0623
2026-07-21T16:03:53.548,8.8994,0.6599,0.2385
2026-07-21T16:03:53.554,8.8994,0.7578,0.1014
2026-07-21T16:03:53.563,8.9312,0.6403,-0.1531
2026-07-21T16:03:53.577,8.9312,0.5032,0.0035
2026-07-21T16:03:53.577,8.9312,0.6207,0.3364
2026-07-21T16:03:53.593,8.9363,0.6795,0.2189
2026-07-21T16:03:53.609,8.9629,0.699,-0.0944
2026-07-21T16:03:53.617,8.9629,0.3857,0.0623
2026-07-21T16:03:53.617,8.9629,0.6207,0.2385
2026-07-21T16:03:53.656,8.9948,1.0711,0.2581
2026-07-21T16:03:53.656,8.9948,0.6795,0.1602
2026-07-21T16:03:53.656,8.9948,0.5815,0.1602
2026-07-21T16:03:53.656,8.9948,0.5032,0.4343
2026-07-21T16:03:53.673,9.0363,0.7578,0.3168
2026-07-21T16:03:53.688,9.0363,0.934,0.1014
2026-07-21T16:03:53.688,9.0433,0.5815,-0.0161
2026-07-21T16:03:53.704,9.074,0.3857,0.1993
2026-07-21T16:03:53.720,9.074,0.8361,0.2972
2026-07-21T16:03:53.720,9.074,0.7186,0.1014
2026-07-21T16:03:53.730,9.074,0.5228,0.0818
2026-07-21T16:03:53.749,9.1067,0.4249,0.2581
2026-07-21T16:03:53.768,9.1067,0.934,0.3364
2026-07-21T16:03:53.768,9.1067,1.0123,0.1406
2026-07-21T16:03:53.768,9.1067,0.6403,-0.0161
2026-07-21T16:03:53.800,9.151,0.3466,0.1798
2026-07-21T16:03:53.800,9.151,0.8165,0.2777
2026-07-21T16:03:53.800,9.153,0.7382,0.121
2026-07-21T16:03:53.815,9.1859,0.6403,-0.251
2026-07-21T16:03:53.838,9.1859,0.2291,0.3364
2026-07-21T16:03:53.838,9.1859,0.8753,0.5322
2026-07-21T16:03:53.845,9.1859,0.7969,0.3364
2026-07-21T16:03:53.849,9.2248,0.7578,-0.2119
2026-07-21T16:03:53.879,9.2248,0.2487,0.4343
2026-07-21T16:03:53.879,9.2248,0.8948,0.356
2026-07-21T16:03:53.879,9.2319,0.7969,0.4343
2026-07-21T16:03:53.898,9.2619,0.7186,-0.251
2026-07-21T16:03:53.914,9.2636,0.3662,0.4343
2026-07-21T16:03:53.916,9.2636,0.8948,0.3364
2026-07-21T16:03:53.925,9.2636,1.0123,0.5126
2026-07-21T16:03:53.951,9.2978,0.7186,-0.0944
2026-07-21T16:03:53.951,9.2978,0.4445,0.2581
2026-07-21T16:03:53.957,9.2978,0.7969,0.5714
2026-07-21T16:03:53.957,9.2978,0.8165,0.2385
2026-07-21T16:03:53.989,9.3387,0.6599,-0.1531
2026-07-21T16:03:53.989,9.3407,0.4445,0.4147
2026-07-21T16:03:53.991,9.3428,0.7578,0.4735
2026-07-21T16:03:54.005,9.3726,0.8753,0.2777
2026-07-21T16:03:54.030,9.3744,0.9536,0.121
2026-07-21T16:03:54.030,9.3764,0.4836,0.0035
2026-07-21T16:03:54.036,9.3805,0.6011,0.6693
2026-07-21T16:03:54.048,9.4088,0.9732,0.2581
2026-07-21T16:03:54.062,9.4088,0.699,0.0623
2026-07-21T16:03:54.066,9.4088,0.5424,-0.0552
2026-07-21T16:03:54.075,9.4088,0.5815,0.4539
2026-07-21T16:03:54.086,9.4504,0.9927,0.4343
2026-07-21T16:03:54.102,9.4524,0.6795,0.1798
2026-07-21T16:03:54.102,9.4544,0.6403,-0.0356
2026-07-21T16:03:54.116,9.457,0.5228,0.4539
2026-07-21T16:03:54.142,9.486,1.0319,0.1993
2026-07-21T16:03:54.142,9.486,0.6795,0.1602
2026-07-21T16:03:54.144,9.486,0.6795,-0.0944
2026-07-21T16:03:54.164,9.5227,0.562,0.4343
2026-07-21T16:03:54.164,9.5227,0.934,0.0231
2026-07-21T16:03:54.180,9.5247,0.6795,0.2189
2026-07-21T16:03:54.180,9.5297,0.7186,0.1602
2026-07-21T16:03:54.214,9.5574,0.562,0.3168
2026-07-21T16:03:54.214,9.5574,0.8361,0.2972
2026-07-21T16:03:54.216,9.5574,0.7186,0.1993
2026-07-21T16:03:54.225,9.5653,0.6207,-0.0356
2026-07-21T16:03:54.231,9.5881,0.6011,0.3168
2026-07-21T16:03:54.251,9.5978,0.8557,0.1993
2026-07-21T16:03:54.251,9.5978,0.7774,0.3168
2026-07-21T16:03:54.259,9.6286,0.699,0.0231
2026-07-21T16:03:54.282,9.6286,0.5032,0.2189
2026-07-21T16:03:54.282,9.6371,0.8165,0.3951
2026-07-21T16:03:54.291,9.6371,0.9536,0.2385
2026-07-21T16:03:54.306,9.66,0.699,-0.0161
2026-07-21T16:03:54.322,9.66,0.4836,0.2189
2026-07-21T16:03:54.322,9.66,0.7774,0.5126
2026-07-21T16:03:54.331,9.6759,0.934,0.1602
2026-07-21T16:03:54.354,9.692,0.7969,-0.0161
2026-07-21T16:03:54.354,9.692,0.5424,0.4343
2026-07-21T16:03:54.354,9.7078,0.8165,0.4539
2026-07-21T16:03:54.369,9.7372,0.9732,0.2189
2026-07-21T16:03:54.386,9.7406,0.8165,0.0231
2026-07-21T16:03:54.386,9.7406,0.5424,0.3364
2026-07-21T16:03:54.405,9.7709,1.0123,0.5714
2026-07-21T16:03:54.417,9.7709,0.8948,0.121
2026-07-21T16:03:54.419,9.7709,0.6795,0.0623
2026-07-21T16:03:54.434,9.7709,0.5228,0.3168
2026-07-21T16:03:54.452,9.8023,0.9144,0.356
2026-07-21T16:03:54.452,9.8023,0.7774,0.0818
2026-07-21T16:03:54.464,9.8023,0.6011,0.1602
2026-07-21T16:03:54.480,9.8373,0.5228,0.3756
2026-07-21T16:03:54.496,9.8373,1.0319,0.356
2026-07-21T16:03:54.496,9.8373,0.8361,0.0427
2026-07-21T16:03:54.496,9.8373,0.6403,-0.0161
2026-07-21T16:03:54.528,9.8655,0.4836,0.3168
2026-07-21T16:03:54.528,9.8655,0.8753,0.3364
2026-07-21T16:03:54.531,9.8655,0.699,0.1602
2026-07-21T16:03:54.543,9.8977,0.7774,0.1798
2026-07-21T16:03:54.559,9.8977,0.3662,0.1798
2026-07-21T16:03:54.559,9.8977,0.8361,0.3756
2026-07-21T16:03:54.559,9.9134,0.7186,0.2189
2026-07-21T16:03:54.591,9.9375,0.699,-0.0944
2026-07-21T16:03:54.591,9.9375,0.2878,0.2581
2026-07-21T16:03:54.607,9.9455,0.9732,0.2581
2026-07-21T16:03:54.607,9.9774,0.7969,0.2189
2026-07-21T16:03:54.631,9.9774,0.6599,-0.114
2026-07-21T16:03:54.631,9.9774,0.3662,0.3168
2026-07-21T16:03:54.655,10.0094,0.7774,0.2972
2026-07-21T16:03:54.667,10.0094,0.9927,0.1602
2026-07-21T16:03:54.667,10.0094,0.6011,-0.1923
2026-07-21T16:03:54.679,10.0094,0.3857,0.5322
2026-07-21T16:03:54.679,10.0434,0.699,0.3756
2026-07-21T16:03:54.687,10.0454,0.934,0.121
2026-07-21T16:03:54.703,10.0474,0.7382,-0.0552
2026-07-21T16:03:54.719,10.077,0.2683,0.3168
2026-07-21T16:03:54.735,10.079,0.8753,0.4343
2026-07-21T16:03:54.737,10.079,0.8753,0.0818
2026-07-21T16:03:54.766,10.1068,0.5032,-0.114
2026-07-21T16:03:54.766,10.1068,0.6011,0.1798
2026-07-21T16:03:54.766,10.1068,0.6599,0.1993
2026-07-21T16:03:54.775,10.1068,0.9536,0.0427
2026-07-21T16:03:54.800,10.1441,0.4836,0.3951
2026-07-21T16:03:54.800,10.1441,0.7969,-0.0748
2026-07-21T16:03:54.800,10.1502,0.5032,0.3364
2026-07-21T16:03:54.834,10.1679,0.8361,0.121
2026-07-21T16:03:54.834,10.1679,0.5815,0.0818
2026-07-21T16:03:54.838,10.1836,0.562,-0.1727
2026-07-21T16:03:54.844,10.1836,0.4836,0.3756
2026-07-21T16:03:54.861,10.215,0.934,0.3756
2026-07-21T16:03:54.861,10.215,0.6403,0.0818
2026-07-21T16:03:54.877,10.2257,0.327,-0.2119
2026-07-21T16:03:54.877,10.2507,0.2291,0.6105
2026-07-21T16:03:54.909,10.2507,1.0123,0.2189
2026-07-21T16:03:54.909,10.2608,0.7382,-0.0161
2026-07-21T16:03:54.917,10.2626,0.4445,-0.2706
2026-07-21T16:03:54.931,10.2783,0.7186,0.3756
2026-07-21T16:03:54.931,10.2943,0.7774,0.1798
2026-07-21T16:03:54.944,10.2943,0.8557,-0.1335
2026-07-21T16:03:54.956,10.2943,0.3857,-0.0748
2026-07-21T16:03:54.972,10.3275,0.4053,0.2385
2026-07-21T16:03:54.972,10.3275,0.7969,0.2581
2026-07-21T16:03:54.988,10.3275,0.7382,-0.114
2026-07-21T16:03:54.988,10.338,0.3662,-0.114
2026-07-21T16:03:55.021,10.3737,0.562,0.2581
2026-07-21T16:03:55.021,10.3737,0.7382,0.1993
2026-07-21T16:03:55.021,10.3737,0.7382,-0.0552
2026-07-21T16:03:55.035,10.4074,0.4053,-0.1531
2026-07-21T16:03:55.064,10.4074,0.2878,0.1602
2026-07-21T16:03:55.064,10.4074,0.6207,0.3364
2026-07-21T16:03:55.064,10.4074,0.7186,-0.0356
2026-07-21T16:03:55.067,10.4383,0.4445,-0.2119
2026-07-21T16:03:55.083,10.4383,0.4053,0.0623
2026-07-21T16:03:55.101,10.4383,0.6011,0.2581
2026-07-21T16:03:55.101,10.4526,0.7186,-0.0552
2026-07-21T16:03:55.115,10.4803,0.1899,-0.5056
2026-07-21T16:03:55.132,10.488,-0.0255,-0.3881
2026-07-21T16:03:55.132,10.488,-0.045,-0.3098
2026-07-21T16:03:55.146,10.5029,0.2487,-0.6426
2026-07-21T16:03:55.174,10.5385,0.5228,-0.6622
2026-07-21T16:03:55.174,10.5385,1.4823,1.7071
2026-07-21T16:03:55.174,10.5516,5.5942,5.5057
2026-07-21T16:03:55.194,10.5735,9.7453,10.1464
2026-07-21T16:03:55.196,10.5755,12.2908,15.5506
2026-07-21T16:03:55.225,10.6166,14.1314,22.5801
2026-07-21T16:03:55.225,10.6166,17.2839,29.8642
2026-07-21T16:03:55.225,10.6186,19.6336,36.8349
2026-07-21T16:03:55.232,10.6267,22.0225,43.0616
2026-07-21T16:03:55.245,10.6424,24.0197,48.4463
2026-07-21T16:03:55.267,10.6424,26.0561,52.5583
2026-07-21T16:03:55.267,10.6424,27.3093,56.0828
2026-07-21T16:03:55.277,10.6618,29.2086,59.3528
2026-07-21T16:03:55.300,10.6946,30.1289,62.7599
2026-07-21T16:03:55.302,10.6951,31.4017,66.1082
2026-07-21T16:03:55.308,10.7031,32.2436,69.1432
2026-07-21T16:03:55.312,10.7051,32.8506,70.8859
2026-07-21T16:03:55.320,10.7051,33.0073,71.7474
2026-07-21T16:03:55.336,10.7051,33.1444,72.5307
2026-07-21T16:03:55.352,10.7051,33.7514,73.0202
2026-07-21T16:03:55.355,10.7221,34.1038,73.451
2026-07-21T16:03:55.375,10.7443,34.3975,73.7251
2026-07-21T16:03:55.375,10.7443,35.0437,74.5279
2026-07-21T16:03:55.389,10.7567,36.2969,74.4692
2026-07-21T16:03:55.399,10.7622,36.2773,75.1741
2026-07-21T16:03:55.399,10.7683,36.5906,75.4482
2026-07-21T16:03:55.417,10.7723,36.6885,76.0356
2026-07-21T16:03:55.425,10.7995,37.3346,75.9377
2026-07-21T16:03:55.438,10.7995,37.3542,75.6244
2026-07-21T16:03:55.452,10.8182,37.7458,75.037
2026-07-21T16:03:55.462,10.8208,38.1766,75.7223
2026-07-21T16:03:55.468,10.8263,38.7053,76.1139
2026-07-21T16:03:55.485,10.8544,38.8619,76.7014
2026-07-21T16:03:55.485,10.8564,38.9403,76.486
2026-07-21T16:03:55.493,10.8584,38.6661,76.9559
2026-07-21T16:03:55.509,10.8626,39.1556,76.9167
2026-07-21T16:03:55.520,10.8626,38.6661,77.4454
2026-07-21T16:03:55.540,10.8946,38.7249,77.6021
2026-07-21T16:03:55.540,10.8946,39.0577,78.307
2026-07-21T16:03:55.540,10.8946,39.371,79.0511
2026-07-21T16:03:55.556,10.9097,39.7822,78.9531
2026-07-21T16:03:55.556,10.9163,39.5668,78.2874
2026-07-21T16:03:55.578,10.9411,38.999,77.2692
2026-07-21T16:03:55.588,10.9411,38.6465,75.9769
2026-07-21T16:03:55.588,10.9411,38.6074,75.1936
2026-07-21T16:03:55.610,10.9568,38.4312,74.2342
2026-07-21T16:03:55.620,10.9916,38.4703,74.2146
2026-07-21T16:03:55.635,10.9946,38.7249,74.5083
2026-07-21T16:03:55.635,10.9946,38.9011,74.2733
2026-07-21T16:03:55.635,11.0026,38.5291,74.0971
2026-07-21T16:03:55.650,11.0081,38.4507,74.7041
2026-07-21T16:03:55.679,11.0411,38.8619,75.0174
2026-07-21T16:03:55.679,11.0411,38.9011,74.7824
2026-07-21T16:03:55.688,11.0411,38.7053,74.9978
2026-07-21T16:03:55.696,11.0522,38.6857,75.6832
2026-07-21T16:03:55.714,11.0837,39.1752,76.486
2026-07-21T16:03:55.727,11.0837,39.234,76.2118
2026-07-21T16:03:55.727,11.0837,38.8424,75.8006
2026-07-21T16:03:55.735,11.0999,38.7249,75.6244
2026-07-21T16:03:55.746,11.0999,39.3515,75.5461
2026-07-21T16:03:55.762,11.1411,38.8815,75.9573
2026-07-21T16:03:55.777,11.1431,38.8032,76.2118
2026-07-21T16:03:55.777,11.1451,38.7444,77.1321
2026-07-21T16:03:55.777,11.1491,38.9794,77.3084
2026-07-21T16:03:55.793,11.1491,38.9794,77.2105
2026-07-21T16:03:55.813,11.1851,38.6661,76.7209
2026-07-21T16:03:55.829,11.1948,38.3137,76.7993
2026-07-21T16:03:55.829,11.1948,39.0382,76.9559
2026-07-21T16:03:55.837,11.1948,38.8815,77.1713
2026-07-21T16:03:55.843,11.1948,38.7053,76.9559
2026-07-21T16:03:55.856,11.2449,38.5682,77.6217
2026-07-21T16:03:55.873,11.2489,38.9011,77.7783
2026-07-21T16:03:55.879,11.2509,39.1556,77.0342
2026-07-21T16:03:55.888,11.2549,38.6465,76.4664
2026-07-21T16:03:55.888,11.2616,38.5095,76.623
2026-07-21T16:03:55.904,11.2702,38.9794,76.8384
2026-07-21T16:03:55.920,11.3054,38.8619,76.623
2026-07-21T16:03:55.936,11.3054,38.4312,76.8972
2026-07-21T16:03:55.940,11.3054,38.627,76.5251
2026-07-21T16:03:55.949,11.3054,38.5095,76.7209
2026-07-21T16:03:55.958,11.3215,38.2941,75.7811
2026-07-21T16:03:55.967,11.3215,38.4899,75.8986
2026-07-21T16:03:55.986,11.3539,38.9794,76.1531
2026-07-21T16:03:55.986,11.3626,38.1962,76.8776
2026-07-21T16:03:55.990,11.3647,38.6465,76.4272
2026-07-21T16:03:55.999,11.3693,38.2549,76.7601
2026-07-21T16:03:56.015,11.3693,38.1374,75.9769
2026-07-21T16:03:56.031,11.4045,37.9416,76.1923
2026-07-21T16:03:56.047,11.4045,38.4703,76.1727
2026-07-21T16:03:56.047,11.4045,38.7053,76.5251
2026-07-21T16:03:56.058,11.4189,38.3333,76.5251
2026-07-21T16:03:56.063,11.423,38.1766,77.7587
2026-07-21T16:03:56.098,11.4489,38.2745,77.2692
2026-07-21T16:03:56.098,11.4489,38.2745,76.7209
2026-07-21T16:03:56.098,11.4489,37.6479,76.3685
2026-07-21T16:03:56.098,11.4649,37.6283,76.5643
2026-07-21T16:03:56.119,11.4722,38.5682,77.3671
2026-07-21T16:03:56.142,11.4977,39.6843,77.7783
2026-07-21T16:03:56.142,11.4977,38.3528,76.5839
2026-07-21T16:03:56.142,11.4977,37.1388,75.9181
2026-07-21T16:03:56.160,11.5146,37.413,75.879
2026-07-21T16:03:56.168,11.5217,37.5696,75.6048
2026-07-21T16:03:56.177,11.5551,37.3542,75.3699
2026-07-21T16:03:56.191,11.5572,37.413,75.7223
2026-07-21T16:03:56.191,11.5651,39.2144,76.5643
2026-07-21T16:03:56.217,11.567,38.4312,75.3895
2026-07-21T16:03:56.217,11.567,38.2745,75.2915
2026-07-21T16:03:56.238,11.5937,37.6479,75.7811
2026-07-21T16:03:56.246,11.5937,38.2549,75.7615
2026-07-21T16:03:56.246,11.6076,38.0983,75.4874
2026-07-21T16:03:56.259,11.6076,38.0395,74.6062
2026-07-21T16:03:56.261,11.6076,38.3333,75.5265
2026-07-21T16:03:56.270,11.6492,38.8424,75.9377
2026-07-21T16:03:56.287,11.6533,38.9598,75.5265
2026-07-21T16:03:56.287,11.6543,37.9612,75.2328
2026-07-21T16:03:56.301,11.6603,38.0004,75.6048
2026-07-21T16:03:56.317,11.6929,38.157,75.5461
2026-07-21T16:03:56.335,11.6949,38.2941,75.8006
2026-07-21T16:03:56.335,11.6949,38.5095,74.9978
2026-07-21T16:03:56.354,11.7026,38.7444,75.2915
2026-07-21T16:03:56.358,11.7046,38.0787,74.8804
2026-07-21T16:03:56.382,11.7361,37.9612,74.2929
2026-07-21T16:03:56.382,11.7361,37.4521,74.195
2026-07-21T16:03:56.388,11.7416,36.7081,73.8817
2026-07-21T16:03:56.396,11.7498,36.6101,74.195
2026-07-21T16:03:56.412,11.7812,37.0605,73.4118
2026-07-21T16:03:56.424,11.7812,37.2955,73.1377
2026-07-21T16:03:56.428,11.7846,37.5304,73.1768
2026-07-21T16:03:56.435,11.7846,37.3151,73.7055
2026-07-21T16:03:56.443,11.7846,37.3934,73.0593
2026-07-21T16:03:56.465,11.8129,37.2367,72.8244
2026-07-21T16:03:56.465,11.8129,36.7276,72.5894
2026-07-21T16:03:56.478,11.8129,36.8647,72.7265
2026-07-21T16:03:56.489,11.8361,37.0213,72.4132
2026-07-21T16:03:56.506,11.8605,37.0409,72.3349
2026-07-21T16:03:56.506,11.866,37.3346,72.0999
2026-07-21T16:03:56.506,11.8697,36.943,72.002
2026-07-21T16:03:56.528,11.8717,36.9039,72.1586
2026-07-21T16:03:56.544,11.9064,36.6689,71.8258
2026-07-21T16:03:56.544,11.9064,36.6101,71.5908
2026-07-21T16:03:56.554,11.9082,36.7864,71.0621
2026-07-21T16:03:56.565,11.9082,36.6493,70.6509
2026-07-21T16:03:56.589,11.943,36.943,69.946
2026-07-21T16:03:56.595,11.943,36.943,69.4173
2026-07-21T16:03:56.598,11.943,36.3752,69.4369
2026-07-21T16:03:56.602,11.943,37.1192,69.8677
2026-07-21T16:03:56.620,11.9819,37.0018,69.1823
2026-07-21T16:03:56.634,11.9871,36.5122,68.732
2026-07-21T16:03:56.637,11.9912,36.5318,68.967
2026-07-21T16:03:56.637,11.9912,36.9039,68.497
2026-07-21T16:03:56.673,12.0218,36.6297,67.4201
2026-07-21T16:03:56.673,12.0218,36.1206,66.7543
2026-07-21T16:03:56.681,12.0218,35.9052,66.9501
2026-07-21T16:03:56.685,12.0365,37.1388,67.3613
2026-07-21T16:03:56.695,12.0436,36.2577,67.283
2026-07-21T16:03:56.713,12.0745,36.0227,67.8117
2026-07-21T16:03:56.715,12.0799,36.0031,68.3795
2026-07-21T16:03:56.730,12.0869,36.4731,68.0662
2026-07-21T16:03:56.739,12.0909,36.0619,67.5963
2026-07-21T16:03:56.760,12.1207,35.6311,66.5781
2026-07-21T16:03:56.760,12.1207,34.8283,66.9697
2026-07-21T16:03:56.768,12.1248,35.2787,66.9501
2026-07-21T16:03:56.780,12.1298,35.2787,67.2634
2026-07-21T16:03:56.784,12.1359,35.357,67.1068
2026-07-21T16:03:56.808,12.1615,34.9066,67.9096
2026-07-21T16:03:56.808,12.1615,35.4353,67.2243
2026-07-21T16:03:56.818,12.1704,35.357,66.6564
2026-07-21T16:03:56.825,12.1776,34.6129,65.834
2026-07-21T16:03:56.840,12.2071,34.4954,66.7543
2026-07-21T16:03:56.853,12.2099,35.122,67.2634
2026-07-21T16:03:56.861,12.2099,34.7891,66.9697
2026-07-21T16:03:56.871,12.2204,34.3192,67.4984
2026-07-21T16:03:56.871,12.2246,34.3975,68.0075
2026-07-21T16:03:56.888,12.2513,35.357,68.1642
2026-07-21T16:03:56.888,12.2533,35.6899,67.6942
2026-07-21T16:03:56.903,12.2592,34.4367,67.1264
2026-07-21T16:03:56.920,12.2592,34.28,67.283
2026-07-21T16:03:56.941,12.2895,34.2017,67.6355
2026-07-21T16:03:56.941,12.2895,34.515,67.4788
2026-07-21T16:03:56.951,12.2895,34.2605,67.9096
2026-07-21T16:03:56.953,12.3047,34.6912,67.8509
2026-07-21T16:03:56.969,12.3337,34.8479,68.5362
2026-07-21T16:03:56.983,12.3387,34.9458,67.6746
2026-07-21T16:03:56.983,12.3403,34.0451,66.5977
2026-07-21T16:03:56.998,12.3505,34.0451,66.9697
2026-07-21T16:03:57.012,12.3822,34.28,67.4984
2026-07-21T16:03:57.012,12.3822,34.7304,67.3613
2026-07-21T16:03:57.027,12.3822,34.5933,67.1068
2026-07-21T16:03:57.034,12.3982,34.4954,67.2047
2026-07-21T16:03:57.044,12.3982,35.1612,67.6746
2026-07-21T16:03:57.072,12.4299,34.7696,66.1669
2026-07-21T16:03:57.072,12.4299,34.0646,65.4228
2026-07-21T16:03:57.076,12.4299,34.7304,66.1669
2026-07-21T16:03:57.076,12.4408,34.9262,66.6173
2026-07-21T16:03:57.092,12.4512,35.2395,66.4606
2026-07-21T16:03:57.117,12.4773,35.2395,65.5599
2026-07-21T16:03:57.117,12.4773,35.2395,65.2662
2026-07-21T16:03:57.123,12.4773,35.4157,65.5403
2026-07-21T16:03:57.141,12.4947,35.122,64.2676
2026-07-21T16:03:57.147,12.4987,34.6717,63.2494
2026-07-21T16:03:57.165,12.525,34.8479,63.2494
2026-07-21T16:03:57.165,12.525,34.0451,63.4648
2026-07-21T16:03:57.171,12.525,34.5542,63.3473
2026-07-21T16:03:57.187,12.525,34.6521,63.5235
2026-07-21T16:03:57.212,12.5664,34.6717,63.3669
2026-07-21T16:03:57.212,12.5664,34.2017,63.6802
2026-07-21T16:03:57.219,12.5699,34.8479,63.269
2026-07-21T16:03:57.219,12.5721,34.7304,62.7403
2026-07-21T16:03:57.235,12.6066,35.1024,62.7794
2026-07-21T16:03:57.253,12.6066,34.8479,63.406
2026-07-21T16:03:57.260,12.6066,35.2395,63.0732
2026-07-21T16:03:57.266,12.6246,35.2591,63.2102
2026-07-21T16:03:57.266,12.6307,35.5724,63.1319
2026-07-21T16:03:57.300,12.6547,35.1612,63.034
2026-07-21T16:03:57.300,12.6547,35.1024,62.4661
2026-07-21T16:03:57.300,12.668,34.7304,61.6046
2026-07-21T16:03:57.318,12.668,34.4758,61.0368
2026-07-21T16:03:57.326,12.668,33.9863,61.213
2026-07-21T16:03:57.348,12.6989,34.3388,61.3305
2026-07-21T16:03:57.348,12.6989,34.6521,61.0563
2026-07-21T16:03:57.348,12.6989,34.4367,60.7822
2026-07-21T16:03:57.362,12.6989,34.3779,60.9584
2026-07-21T16:03:57.392,12.7411,34.8675,60.2535
2026-07-21T16:03:57.392,12.7411,34.4171,59.3724
2026-07-21T16:03:57.392,12.7452,34.3975,59.7248
2026-07-21T16:03:57.408,12.7763,34.5542,60.3514
2026-07-21T16:03:57.408,12.7784,35.0045,60.2535
2026-07-21T16:03:57.424,12.7784,34.9458,59.8815
2026-07-21T16:03:57.438,12.7784,34.8675,59.9207
2026-07-21T16:03:57.453,12.813,34.2996,59.6074
2026-07-21T16:03:57.468,12.8262,34.5542,59.5682
2026-07-21T16:03:57.470,12.8262,34.4954,59.3136
2026-07-21T16:03:57.472,12.8262,34.6325,59.3724
2026-07-21T16:03:57.490,12.8262,34.4367,60.3123
2026-07-21T16:03:57.507,12.8687,35.0045,60.2339
2026-07-21T16:03:57.507,12.8707,34.9458,60.4297
2026-07-21T16:03:57.520,12.8738,34.887,60.2339
2026-07-21T16:03:57.520,12.8778,34.2213,59.8227
2026-07-21T16:03:57.536,12.9051,34.4171,59.7053
2026-07-21T16:03:57.557,12.9051,34.6325,59.529
2026-07-21T16:03:57.562,12.9163,34.6912,60.0186
2026-07-21T16:03:57.571,12.9212,34.6325,61.1347
2026-07-21T16:03:57.571,12.9212,35.2787,61.2913
2026-07-21T16:03:57.599,12.9533,35.4157,61.1151
2026-07-21T16:03:57.599,12.9533,35.357,61.3305
2026-07-21T16:03:57.615,12.9533,34.4563,60.2535
2026-07-21T16:03:57.615,12.9703,34.143,59.5486
2026-07-21T16:03:57.647,13.0005,34.5933,59.4311
2026-07-21T16:03:57.647,13.0005,34.4171,59.6074
2026-07-21T16:03:57.647,13.0005,34.28,59.3724
2026-07-21T16:03:57.647,13.0005,34.0646,59.3724
2026-07-21T16:03:57.668,13.0163,34.6717,59.0199
2026-07-21T16:03:57.691,13.0453,34.4954,58.5892
2026-07-21T16:03:57.691,13.0453,34.0059,57.943
2026-07-21T16:03:57.694,13.0483,33.7709,58.0996
2026-07-21T16:03:57.710,13.0483,34.5346,58.315
2026-07-21T16:03:57.726,13.0844,34.887,58.6283
2026-07-21T16:03:57.726,13.0844,34.3584,58.8437
2026-07-21T16:03:57.739,13.0904,34.8283,59.5682
2026-07-21T16:03:57.742,13.0904,34.9458,59.4703
2026-07-21T16:03:57.758,13.1207,34.8479,59.2941
2026-07-21T16:03:57.774,13.1278,34.2213,59.4116
2026-07-21T16:03:57.776,13.1325,34.2605,59.2157
2026-07-21T16:03:57.790,13.1365,34.75,59.5682
2026-07-21T16:03:57.795,13.1604,34.7696,59.8423
2026-07-21T16:03:57.814,13.1699,34.5933,60.2927
2026-07-21T16:03:57.814,13.1699,34.9654,60.6647
2026-07-21T16:03:57.830,13.1753,34.3192,59.7248
2026-07-21T16:03:57.854,13.2072,33.9472,58.7458
2026-07-21T16:03:57.854,13.2072,33.4185,57.943
2026-07-21T16:03:57.854,13.2072,33.3402,58.2759
2026-07-21T16:03:57.869,13.2239,33.673,58.8045
2026-07-21T16:03:57.869,13.2315,33.8297,58.8829
2026-07-21T16:03:57.901,13.2637,33.5164,58.785
2026-07-21T16:03:57.901,13.2637,33.3402,58.6871
2026-07-21T16:03:57.901,13.2637,33.7905,58.315
2026-07-21T16:03:57.921,13.2702,33.9863,58.5108
2026-07-21T16:03:57.929,13.2702,33.7318,57.9626
2026-07-21T16:03:57.947,13.3038,33.6926,59.0395
2026-07-21T16:03:57.951,13.3038,34.5542,59.6269
2026-07-21T16:03:57.957,13.3038,34.3192,60.0186
2026-07-21T16:03:57.964,13.321,34.1038,59.7444
2026-07-21T16:03:57.985,13.3504,33.7514,59.9794
2026-07-21T16:03:57.997,13.3504,34.4954,59.9598
2026-07-21T16:03:57.997,13.3504,34.1626,59.6465
2026-07-21T16:03:57.997,13.3504,34.0842,59.1374
2026-07-21T16:03:58.019,13.3504,33.908,60.136
2026-07-21T16:03:58.036,13.3992,34.5933,60.4297
2026-07-21T16:03:58.036,13.3992,34.3779,60.6451
2026-07-21T16:03:58.044,13.3992,34.0451,60.3906
2026-07-21T16:03:58.044,13.412,34.0451,60.8018
2026-07-21T16:03:58.070,13.4426,34.5737,60.5081
2026-07-21T16:03:58.078,13.4459,33.8884,59.9794
2026-07-21T16:03:58.078,13.4459,33.9863,60.0186
2026-07-21T16:03:58.093,13.4459,34.2409,60.8605
2026-07-21T16:03:58.108,13.46,34.2213,60.978
2026-07-21T16:03:58.123,13.4798,34.1038,60.7822
2026-07-21T16:03:58.123,13.4798,34.0255,60.2535
2026-07-21T16:03:58.139,13.4798,33.8297,60.4297
2026-07-21T16:03:58.149,13.4936,33.8688,60.2731
2026-07-21T16:03:58.173,13.5254,33.6535,59.9402
2026-07-21T16:03:58.173,13.5254,33.6535,59.9402
2026-07-21T16:03:58.173,13.5254,33.4772,60.4102
2026-07-21T16:03:58.187,13.5254,33.7709,60.8801
2026-07-21T16:03:58.203,13.5735,34.0255,60.978
2026-07-21T16:03:58.219,13.5735,33.9667,61.0955
2026-07-21T16:03:58.219,13.5735,33.7318,61.6829
2026-07-21T16:03:58.219,13.5735,33.5164,60.8801
2026-07-21T16:03:58.236,13.6155,33.6535,60.2535
2026-07-21T16:03:58.236,13.6175,33.6143,60.2339
2026-07-21T16:03:58.253,13.6195,33.4381,60.6451
2026-07-21T16:03:58.267,13.6291,33.6143,61.1151
2026-07-21T16:03:58.267,13.6331,33.9667,61.1934
2026-07-21T16:03:58.284,13.6557,33.673,61.1347
2026-07-21T16:03:58.299,13.6557,33.2423,60.6843
2026-07-21T16:03:58.309,13.6696,33.2227,59.8619
2026-07-21T16:03:58.321,13.6761,33.0464,59.1766
2026-07-21T16:03:58.327,13.7001,32.6548,59.0199
2026-07-21T16:03:58.349,13.7001,31.8129,58.6675
2026-07-21T16:03:58.349,13.7001,31.6562,58.0801
2026-07-21T16:03:58.349,13.7159,31.1863,57.4731
2026-07-21T16:03:58.370,13.7159,30.9905,57.3556
2026-07-21T16:03:58.384,13.7478,30.7751,57.8451
2026-07-21T16:03:58.394,13.7478,30.7751,57.2185
2026-07-21T16:03:58.394,13.7478,30.873,57.2185
2026-07-21T16:03:58.409,13.7608,30.7359,57.1206
2026-07-21T16:03:58.409,13.7724,30.3835,57.2968
2026-07-21T16:03:58.425,13.7979,30.873,57.4143
2026-07-21T16:03:58.441,13.7979,30.9121,57.4731
2026-07-21T16:03:58.441,13.7979,31.0296,57.3752
2026-07-21T16:03:58.457,13.8112,30.4226,57.2968
2026-07-21T16:03:58.489,13.8463,30.8338,57.1989
2026-07-21T16:03:58.489,13.8463,31.0688,57.336
2026-07-21T16:03:58.489,13.8483,31.1471,56.9444
2026-07-21T16:03:58.491,13.8524,31.01,56.8856
2026-07-21T16:03:58.505,13.8793,31.4212,56.8465
2026-07-21T16:03:58.505,13.8904,31.1471,56.5136
2026-07-21T16:03:58.521,13.8904,31.0884,56.3374
2026-07-21T16:03:58.546,13.8904,30.6968,56.2982
2026-07-21T16:03:58.550,13.8904,30.7163,56.2786
2026-07-21T16:03:58.556,13.9216,30.873,56.4549
2026-07-21T16:03:58.573,13.9216,30.6968,56.2982
2026-07-21T16:03:58.573,13.9378,30.4226,56.4744
2026-07-21T16:03:58.584,13.9433,30.9513,56.7877
2026-07-21T16:03:58.599,13.9762,30.7751,57.0619
2026-07-21T16:03:58.615,13.9851,30.7555,56.7094
2026-07-21T16:03:58.615,13.9878,30.3443,56.0437
2026-07-21T16:03:58.615,13.9943,30.403,56.494
2026-07-21T16:03:58.637,13.9956,31.2646,56.6898
2026-07-21T16:03:58.668,14.0328,30.6968,56.964
2026-07-21T16:03:58.668,14.0328,30.7751,57.0619
2026-07-21T16:03:58.670,14.0328,31.0492,57.6884
2026-07-21T16:03:58.679,14.0328,31.3821,57.3752
2026-07-21T16:03:58.689,14.0436,31.1667,57.2577
2026-07-21T16:03:58.698,14.0487,30.9709,56.7877
2026-07-21T16:03:58.716,14.0822,30.5989,57.4731
2026-07-21T16:03:58.716,14.0822,31.3233,58.0409
2026-07-21T16:03:58.726,14.0882,31.48,58.7066
2026-07-21T16:03:58.737,14.0962,31.3429,58.5696
2026-07-21T16:03:58.742,14.0962,30.9905,59.1374
2026-07-21T16:03:58.758,14.1282,31.6171,58.4521
2026-07-21T16:03:58.768,14.1282,31.108,58.3738
2026-07-21T16:03:58.782,14.1282,31.108,57.9234
2026-07-21T16:03:58.790,14.1437,30.9513,59.0395
2026-07-21T16:03:58.806,14.1757,32.0478,59.4116
2026-07-21T16:03:58.822,14.1757,31.7737,59.3724
2026-07-21T16:03:58.822,14.1757,31.48,58.9808
2026-07-21T16:03:58.822,14.1757,31.3625,59.0983
2026-07-21T16:03:58.837,14.1757,31.9303,58.8241
2026-07-21T16:03:58.853,14.2238,31.4017,58.4717
2026-07-21T16:03:58.867,14.2238,31.4017,58.1192
2026-07-21T16:03:58.869,14.2238,31.0688,58.9808
2026-07-21T16:03:58.869,14.2238,31.5779,59.2353
2026-07-21T16:03:58.885,14.2401,31.4408,58.5696
2026-07-21T16:03:58.901,14.2733,30.9317,58.2563
2026-07-21T16:03:58.908,14.2743,30.873,58.8633
2026-07-21T16:03:58.917,14.2783,31.4017,58.7654
2026-07-21T16:03:58.917,14.2824,30.9709,58.0213
2026-07-21T16:03:58.947,14.315,30.6576,58.0017
2026-07-21T16:03:58.954,14.317,30.2268,58.1975
2026-07-21T16:03:58.954,14.319,30.7555,58.5892
2026-07-21T16:03:58.972,14.319,31.108,58.5304
2026-07-21T16:03:58.978,14.3316,30.8142,59.0591
2026-07-21T16:03:59.005,14.3565,30.7947,59.5095
2026-07-21T16:03:59.005,14.3565,30.7555,59.4703
2026-07-21T16:03:59.011,14.3705,31.2254,58.6479
2026-07-21T16:03:59.023,14.3745,30.9121,58.6675
2026-07-21T16:03:59.037,14.4092,30.7163,59.529
2026-07-21T16:03:59.050,14.4143,31.0688,60.0577
2026-07-21T16:03:59.050,14.4143,31.4212,60.2927
2026-07-21T16:03:59.064,14.4203,31.0492,60.4885
2026-07-21T16:03:59.068,14.4203,30.5205,60.2339
2026-07-21T16:03:59.076,14.4458,30.3639,59.7836
2026-07-21T16:03:59.093,14.4458,30.638,59.4116
2026-07-21T16:03:59.099,14.4458,30.6968,59.7836
2026-07-21T16:03:59.110,14.4665,30.638,60.6256
2026-07-21T16:03:59.120,14.4752,30.9905,61.8591
2026-07-21T16:03:59.130,14.4964,31.4604,61.8004
2026-07-21T16:03:59.139,14.4964,31.3821,61.8004
2026-07-21T16:03:59.139,14.508,30.5989,61.6438
2026-07-21T16:03:59.158,14.5133,30.5401,61.7417
2026-07-21T16:03:59.169,14.5188,30.5597,61.4871
2026-07-21T16:03:59.177,14.5499,30.5793,62.192
2026-07-21T16:03:59.190,14.5539,30.2268,62.3095
2026-07-21T16:03:59.190,14.5574,30.6184,62.9361
2026-07-21T16:03:59.210,14.5637,30.9905,63.3669
2026-07-21T16:03:59.239,14.6028,31.1667,63.3081
2026-07-21T16:03:59.239,14.6028,30.5009,63.269
2026-07-21T16:03:59.239,14.6028,30.403,63.1906
2026-07-21T16:03:59.251,14.6052,30.5401,63.3669
2026-07-21T16:03:59.259,14.6146,30.5597,62.9165
2026-07-21T16:03:59.277,14.6479,30.0702,62.8186
2026-07-21T16:03:59.289,14.6499,30.2856,63.0732
2026-07-21T16:03:59.289,14.6499,30.3247,62.6228
2026-07-21T16:03:59.299,14.657,30.4618,62.192
2026-07-21T16:03:59.308,14.665,30.2072,61.9766
2026-07-21T16:03:59.334,14.6962,29.4828,62.2899
2026-07-21T16:03:59.337,14.6983,29.9135,62.799
2026-07-21T16:03:59.337,14.7003,30.1877,62.6424
2026-07-21T16:03:59.351,14.7079,29.7373,62.7403
2026-07-21T16:03:59.361,14.7159,29.9331,63.3277
2026-07-21T16:03:59.369,14.7475,30.2856,63.1515
2026-07-21T16:03:59.386,14.7475,30.4814,62.3878
2026-07-21T16:03:59.390,14.7557,29.9919,61.7417
2026-07-21T16:03:59.398,14.7557,29.4044,62.4857
2026-07-21T16:03:59.409,14.7635,30.8534,64.0522
2026-07-21T16:03:59.438,14.7958,31.108,64.483
2026-07-21T16:03:59.438,14.7958,30.9317,64.3851
2026-07-21T16:03:59.441,14.7958,30.6968,65.2466
2026-07-21T16:03:59.449,14.8109,31.8716,65.2662
2026-07-21T16:03:59.457,14.812,31.1275,64.4046
2026-07-21T16:03:59.489,14.8443,30.3443,63.269
2026-07-21T16:03:59.489,14.8517,30.1877,64.4242
2026-07-21T16:03:59.489,14.8517,31.715,65.4816
2026-07-21T16:03:59.489,14.8578,31.715,65.5795
2026-07-21T16:03:59.506,14.8659,31.715,65.0704
2026-07-21T16:03:59.520,14.8992,31.1471,65.8732
2026-07-21T16:03:59.538,14.9012,32.0087,65.227
2026-07-21T16:03:59.538,14.9012,31.245,64.3851
2026-07-21T16:03:59.551,14.911,31.1667,63.5823
2026-07-21T16:03:59.559,14.9151,30.873,65.0116
2026-07-21T16:03:59.583,14.9465,32.3024,65.6578
2026-07-21T16:03:59.587,14.9485,31.8912,65.4228
2026-07-21T16:03:59.593,14.9525,32.0087,64.9137
2026-07-21T16:03:59.601,14.955,31.5975,65.3054
2026-07-21T16:03:59.609,14.955,32.5569,65.5991
2026-07-21T16:03:59.614,14.9894,31.5779,64.9137
2026-07-21T16:03:59.634,14.9894,31.2646,64.7571
2026-07-21T16:03:59.640,15.002,31.4604,65.4816
2026-07-21T16:03:59.649,15.0041,31.8716,65.9319
2026-07-21T16:03:59.649,15.0158,31.8129,65.5795
2026-07-21T16:03:59.669,15.0317,30.9121,64.1109
2026-07-21T16:03:59.683,15.0477,31.4408,65.2662
2026-07-21T16:03:59.683,15.0477,32.087,65.8732
2026-07-21T16:03:59.698,15.0477,31.7933,65.3249
2026-07-21T16:03:59.709,15.0827,31.4017,65.3445
2026-07-21T16:03:59.725,15.0827,31.9695,66.069
2026-07-21T16:03:59.725,15.0827,31.7345,66.5585
2026-07-21T16:03:59.741,15.0953,32.0087,65.7949
2026-07-21T16:03:59.741,15.0953,31.8912,65.2075
2026-07-21T16:03:59.776,15.1321,32.1066,64.855
2026-07-21T16:03:59.776,15.1342,31.9695,65.0704
2026-07-21T16:03:59.776,15.1382,32.1457,64.7963
2026-07-21T16:03:59.789,15.1468,31.6758,64.4438
2026-07-21T16:03:59.789,15.1508,31.4212,64.5025
2026-07-21T16:03:59.805,15.1824,31.1667,64.8942
2026-07-21T16:03:59.821,15.1844,31.4408,64.8354
2026-07-21T16:03:59.832,15.1922,31.3038,64.1893
2026-07-21T16:03:59.842,15.1982,31.3233,63.3473
2026-07-21T16:03:59.853,15.2219,30.8534,63.406
2026-07-21T16:03:59.871,15.2219,31.2842,63.3277
2026-07-21T16:03:59.871,15.2219,31.4996,63.8955
2026-07-21T16:03:59.880,15.2219,31.7541,63.8564
2026-07-21T16:03:59.892,15.2376,31.5387,64.1305
2026-07-21T16:03:59.900,15.2536,31.7541,63.9934
2026-07-21T16:03:59.915,15.2696,31.9108,63.2885
2026-07-21T16:03:59.915,15.2696,31.5975,62.2899
2026-07-21T16:03:59.931,15.2775,31.01,62.6228
2026-07-21T16:03:59.938,15.3036,31.3821,63.0536
2026-07-21T16:03:59.947,15.3036,31.5779,62.9557
2026-07-21T16:03:59.947,15.3036,31.1471,62.8186
2026-07-21T16:03:59.963,15.3178,30.9317,62.8186
2026-07-21T16:03:59.980,15.3532,31.48,62.7011
2026-07-21T16:03:59.997,15.3572,31.2842,61.5654
2026-07-21T16:03:59.997,15.3611,30.5989,60.3514
2026-07-21T16:03:59.997,15.3661,30.0702,58.8829
2026-07-21T16:04:00.026,15.3962,30.0898,57.2185
2026-07-21T16:04:00.042,15.4003,29.1499,53.6156
2026-07-21T16:04:00.042,15.4003,27.6617,49.4645
2026-07-21T16:04:00.051,15.4121,25.5862,43.6099
2026-07-21T16:04:00.060,15.4222,22.9232,37.8923
2026-07-21T16:04:00.086,15.4564,19.9273,31.9593
2026-07-21T16:04:00.086,15.4564,15.8154,26.5355
2026-07-21T16:04:00.092,15.4781,12.1342,21.1507
2026-07-21T16:04:00.104,15.4836,9.3537,16.0989
2026-07-21T16:04:00.114,15.4934,6.9257,11.4387
2026-07-21T16:04:00.122,15.5032,4.9481,8.5212
2026-07-21T16:04:00.124,15.5356,3.9299,6.6218
2026-07-21T16:04:00.139,15.5509,4.2432,5.8386
2026-07-21T16:04:00.139,15.5549,4.439,5.1141
2026-07-21T16:04:00.165,15.5668,3.9299,4.0176
2026-07-21T16:04:00.172,15.5668,3.4403,3.3714
2026-07-21T16:04:00.187,15.5786,3.6949,3.5868
2026-07-21T16:04:00.197,15.5826,4.1648,3.5672
2026-07-21T16:04:00.205,15.6146,4.8306,3.5281
2026-07-21T16:04:00.220,15.6244,4.3019,3.6455
2026-07-21T16:04:00.220,15.6298,4.2823,3.6064
2026-07-21T16:04:00.229,15.6305,4.439,3.763
2026-07-21T16:04:00.244,15.6412,4.204,3.2343
2026-07-21T16:04:00.272,15.6412,4.3802,3.5281
2026-07-21T16:04:00.276,15.645,4.439,3.8414
2026-07-21T16:04:00.277,15.645,4.5173,3.8805
2026-07-21T16:04:00.277,15.645,4.5564,3.9393
2026-07-21T16:04:00.292,15.6787,4.3606,3.5085
2026-07-21T16:04:00.308,15.6787,4.3411,3.5868
2026-07-21T16:04:00.308,15.6787,4.4585,3.6455
2026-07-21T16:04:00.324,15.6862,4.7718,3.7239
2026-07-21T16:04:00.335,15.6862,4.8306,4.0763
2026-07-21T16:04:00.339,15.6926,4.8697,4.233
2026-07-21T16:04:00.370,15.7239,5.183,4.2917
2026-07-21T16:04:00.370,15.7239,5.183,4.1155
2026-07-21T16:04:00.370,15.7239,4.5173,3.6064
2026-07-21T16:04:00.380,15.7239,4.7914,4.1938
2026-07-21T16:04:00.386,15.7239,5.3984,4.4092
2026-07-21T16:04:00.402,15.7635,4.9481,3.9784
2026-07-21T16:04:00.402,15.7635,4.5956,3.5868
2026-07-21T16:04:00.418,15.7635,4.8893,4.4484
2026-07-21T16:04:00.418,15.7871,5.3788,4.37
2026-07-21T16:04:00.450,15.7871,5.2222,3.9588
2026-07-21T16:04:00.450,15.7871,4.8306,3.7826
2026-07-21T16:04:00.457,15.7871,4.7327,4.3113
2026-07-21T16:04:00.481,15.8193,5.5551,4.2917
2026-07-21T16:04:00.481,15.8353,4.9089,3.9393
2026-07-21T16:04:00.481,15.8353,5.1047,4.1155
2026-07-21T16:04:00.497,15.8665,5.0851,4.5658
2026-07-21T16:04:00.513,15.8665,5.6921,4.8204
2026-07-21T16:04:00.513,15.8685,5.8292,4.8008
2026-07-21T16:04:00.530,15.8705,5.4963,4.3896
2026-07-21T16:04:00.545,15.8983,5.2809,4.8791
2026-07-21T16:04:00.558,15.8983,6.2404,4.8596
2026-07-21T16:04:00.558,15.8983,5.6334,4.5658
2026-07-21T16:04:00.576,15.9328,5.653,4.5463
2026-07-21T16:04:00.590,15.9328,5.6334,5.4274
2026-07-21T16:04:00.592,15.9348,5.8684,4.5854
2026-07-21T16:04:00.592,15.9388,5.3397,4.6833
2026-07-21T16:04:00.624,15.9614,4.9285,3.6847
2026-07-21T16:04:00.624,15.9614,4.2627,3.9588
2026-07-21T16:04:00.630,15.9614,4.6739,3.626
2026-07-21T16:04:00.642,15.9963,4.3019,3.3714
2026-07-21T16:04:00.655,15.9963,4.4194,3.3518
2026-07-21T16:04:00.655,15.9963,4.3411,3.7043
2026-07-21T16:04:00.655,15.9963,4.7523,3.626
2026-07-21T16:04:00.690,16.0242,4.5173,3.8609
2026-07-21T16:04:00.690,16.0242,4.2236,3.019
2026-07-21T16:04:00.690,16.0242,3.5774,3.2343
2026-07-21T16:04:00.718,16.0662,4.2627,3.156
2026-07-21T16:04:00.718,16.0662,4.0278,3.0581
2026-07-21T16:04:00.718,16.0703,4.1648,2.8427
2026-07-21T16:04:00.756,16.0918,4.2236,3.9001
2026-07-21T16:04:00.756,16.0918,5.0851,3.998
2026-07-21T16:04:00.760,16.0918,4.9285,3.8805
2026-07-21T16:04:00.785,16.1254,4.4585,3.4497
2026-07-21T16:04:00.785,16.1254,3.969,3.6064
2026-07-21T16:04:00.785,16.1254,4.5173,3.5281
2026-07-21T16:04:00.799,16.1594,4.5369,3.4302
2026-07-21T16:04:00.819,16.1614,4.4585,3.4106
2026-07-21T16:04:00.819,16.1614,4.7327,4.3113
2026-07-21T16:04:00.819,16.1655,5.418,4.6833
2026-07-21T16:04:00.849,16.1826,5.8292,4.605
2026-07-21T16:04:00.849,16.1826,5.3201,4.3505
2026-07-21T16:04:00.860,16.1984,4.9285,4.3505
2026-07-21T16:04:00.864,16.2249,5.4376,4.233
2026-07-21T16:04:00.876,16.2249,5.2614,4.2917
2026-07-21T16:04:00.876,16.2278,5.2614,3.8022
2026-07-21T16:04:00.908,16.2551,5.046,4.9575
2026-07-21T16:04:00.916,16.2551,5.9467,4.9966
2026-07-21T16:04:00.918,16.2551,6.4362,4.977
2026-07-21T16:04:00.923,16.2804,5.5746,4.6442
2026-07-21T16:04:00.947,16.2804,5.1634,4.4288
2026-07-21T16:04:00.949,16.2936,5.2418,4.5658
2026-07-21T16:04:00.955,16.3167,5.3397,4.0567
2026-07-21T16:04:00.974,16.3249,4.9676,4.1938
2026-07-21T16:04:00.974,16.3261,5.0068,4.5071
2026-07-21T16:04:00.991,16.3465,5.2222,4.5658
2026-07-21T16:04:01.010,16.3561,5.5942,4.2525
2026-07-21T16:04:01.010,16.3561,5.1439,4.5658
2026-07-21T16:04:01.022,16.3561,4.9285,4.0567
2026-07-21T16:04:01.040,16.3877,5.046,4.4288
2026-07-21T16:04:01.040,16.3877,5.3201,4.1742
2026-07-21T16:04:01.050,16.3877,4.9481,4.0176
2026-07-21T16:04:01.074,16.4215,4.8306,4.0567
2026-07-21T16:04:01.074,16.4215,5.2026,4.7616
2026-07-21T16:04:01.081,16.4235,5.4376,4.4679
2026-07-21T16:04:01.113,16.4548,5.3005,4.1546
2026-07-21T16:04:01.113,16.4569,4.7718,3.9784
2026-07-21T16:04:01.113,16.4569,4.811,4.3113
2026-07-21T16:04:01.119,16.4589,5.1047,4.0763
2026-07-21T16:04:01.146,16.4825,4.8306,3.6651
2026-07-21T16:04:01.146,16.4825,4.4781,3.9588
2026-07-21T16:04:01.150,16.4825,5.046,4.3896
2026-07-21T16:04:01.159,16.5125,5.2809,4.1546
2026-07-21T16:04:01.176,16.5125,4.8893,3.8022
2026-07-21T16:04:01.176,16.5125,4.7327,3.7826
2026-07-21T16:04:01.176,16.5284,4.6348,3.998
2026-07-21T16:04:01.206,16.5463,4.8697,3.8805
2026-07-21T16:04:01.206,16.5463,4.6935,3.5672
2026-07-21T16:04:01.222,16.5611,4.4194,3.8414
2026-07-21T16:04:01.240,16.5857,4.811,3.9393
2026-07-21T16:04:01.240,16.5917,4.8502,3.998
2026-07-21T16:04:01.240,16.5917,4.9676,3.7043
2026-07-21T16:04:01.255,16.6234,4.4585,3.7826
2026-07-21T16:04:01.279,16.6234,4.4977,3.8805
2026-07-21T16:04:01.279,16.6234,4.7523,3.9784
2026-07-21T16:04:01.291,16.6234,4.8306,3.7434
2026-07-21T16:04:01.301,16.6553,4.6543,3.5281
2026-07-21T16:04:01.317,16.6553,4.4977,3.9784
2026-07-21T16:04:01.317,16.6553,5.0264,4.1546
2026-07-21T16:04:01.336,16.6872,4.9089,4.1155
2026-07-21T16:04:01.349,16.6872,4.8893,3.7826
2026-07-21T16:04:01.349,16.6872,4.439,4.2134
2026-07-21T16:04:01.349,16.7033,4.9481,3.9393
2026-07-21T16:04:01.365,16.725,5.0851,3.8609
2026-07-21T16:04:01.381,16.7356,4.7718,3.4693
2026-07-21T16:04:01.381,16.7356,4.3998,4.1938
2026-07-21T16:04:01.398,16.7696,5.0068,4.0959
2026-07-21T16:04:01.419,16.7696,4.6935,3.7826
2026-07-21T16:04:01.419,16.7716,4.6348,3.6064
2026-07-21T16:04:01.429,16.7756,4.5369,4.1546
2026-07-21T16:04:01.460,16.8028,5.0264,3.998
2026-07-21T16:04:01.461,16.8028,4.8893,3.9393
2026-07-21T16:04:01.461,16.8028,4.811,3.626
2026-07-21T16:04:01.469,16.8028,4.5173,4.1351
2026-07-21T16:04:01.479,16.8374,4.9676,4.1155
2026-07-21T16:04:01.496,16.8374,5.0655,4.1351
2026-07-21T16:04:01.496,16.8459,4.9481,3.8414
2026-07-21T16:04:01.517,16.8667,4.6543,4.0372
2026-07-21T16:04:01.531,16.8775,4.9285,4.1155
2026-07-21T16:04:01.531,16.8775,5.0264,4.0763
2026-07-21T16:04:01.541,16.8801,4.8306,3.7826
2026-07-21T16:04:01.541,16.909,4.576,4.0763
2026-07-21T16:04:01.560,16.909,4.8502,4.2134
2026-07-21T16:04:01.560,16.909,5.046,3.9197
2026-07-21T16:04:01.587,16.9413,4.7718,4.0959
2026-07-21T16:04:01.599,16.9413,4.6152,4.0176
2026-07-21T16:04:01.603,16.9413,4.9089,4.2917
2026-07-21T16:04:01.603,16.9491,5.1047,4.1546
2026-07-21T16:04:01.635,16.9748,4.7523,3.9197
2026-07-21T16:04:01.635,16.9748,4.7131,3.9393
2026-07-21T16:04:01.641,16.9748,4.811,4.2917
2026-07-21T16:04:01.668,17.0037,5.1439,3.9197
2026-07-21T16:04:01.668,17.0037,4.811,3.9393
2026-07-21T16:04:01.668,17.0037,4.7327,4.3309
2026-07-21T16:04:01.684,17.0353,4.9676,4.2721
2026-07-21T16:04:01.697,17.0353,5.1047,3.9393
2026-07-21T16:04:01.697,17.0473,4.811,3.998
2026-07-21T16:04:01.697,17.0728,4.7718,4.0176
2026-07-21T16:04:01.729,17.0728,5.1047,4.233
2026-07-21T16:04:01.729,17.0728,5.046,4.0176
2026-07-21T16:04:01.741,17.0728,4.8697,4.0372
2026-07-21T16:04:01.766,17.1159,4.8306,3.9784
2026-07-21T16:04:01.766,17.1179,4.8893,4.0959
2026-07-21T16:04:01.766,17.1179,4.9285,4.0763
2026-07-21T16:04:01.777,17.1539,4.9481,3.9784
2026-07-21T16:04:01.794,17.1559,4.7914,3.8218
2026-07-21T16:04:01.794,17.1559,4.8306,3.998
2026-07-21T16:04:01.811,17.1579,4.9285,4.1742
2026-07-21T16:04:01.826,17.188,5.1243,3.998
2026-07-21T16:04:01.842,17.1954,4.7914,3.8414
2026-07-21T16:04:01.842,17.1954,4.9872,4.4875
2026-07-21T16:04:01.851,17.1954,4.8893,4.1351
2026-07-21T16:04:01.858,17.2319,5.1634,3.9784
2026-07-21T16:04:01.882,17.2339,4.8502,4.1546
2026-07-21T16:04:01.882,17.2339,5.046,4.2134
2026-07-21T16:04:01.889,17.2379,5.183,4.5267
2026-07-21T16:04:01.904,17.2738,5.3397,4.37
2026-07-21T16:04:01.922,17.2738,4.8502,3.9588
2026-07-21T16:04:01.922,17.2738,5.0068,4.37
2026-07-21T16:04:01.931,17.2738,5.2222,4.3896
2026-07-21T16:04:01.941,17.3121,5.2418,4.1938
2026-07-21T16:04:01.951,17.3121,4.9872,4.2917
2026-07-21T16:04:01.951,17.3121,4.9676,4.4484
2026-07-21T16:04:01.967,17.3215,5.3005,4.6442
2026-07-21T16:04:01.983,17.3527,5.2026,4.1351
2026-07-21T16:04:02.006,17.3527,5.0264,4.0567
2026-07-21T16:04:02.006,17.3527,4.9089,4.4875
2026-07-21T16:04:02.014,17.3527,5.3593,4.3896
2026-07-21T16:04:02.015,17.3851,5.183,4.2134
2026-07-21T16:04:02.046,17.399,5.0068,4.0763
2026-07-21T16:04:02.046,17.399,4.9481,4.3896
2026-07-21T16:04:02.046,17.4028,5.1047,4.1546
2026-07-21T16:04:02.046,17.4348,5.046,4.2525
2026-07-21T16:04:02.079,17.4355,5.2614,3.9393
2026-07-21T16:04:02.079,17.4355,4.7523,4.1938
2026-07-21T16:04:02.093,17.4355,5.3005,4.2134
2026-07-21T16:04:02.111,17.4685,4.9089,4.3113
2026-07-21T16:04:02.126,17.4685,4.8697,3.8414
2026-07-21T16:04:02.127,17.4685,4.576,4.0763
2026-07-21T16:04:02.129,17.4794,4.9872,4.1351
2026-07-21T16:04:02.147,17.5142,4.9481,4.1938
2026-07-21T16:04:02.162,17.5162,4.8893,3.763
2026-07-21T16:04:02.162,17.5162,4.576,4.1155
2026-07-21T16:04:02.173,17.5203,4.9089,4.1742
2026-07-21T16:04:02.206,17.5478,5.046,4.0567
2026-07-21T16:04:02.206,17.5478,4.6152,3.8414
2026-07-21T16:04:02.206,17.554,4.5369,4.0959
2026-07-21T16:04:02.214,17.5581,4.8306,4.1546
2026-07-21T16:04:02.241,17.5918,5.0264,3.9588
2026-07-21T16:04:02.241,17.5939,4.7718,3.8022
2026-07-21T16:04:02.241,17.5939,4.6543,3.9001
2026-07-21T16:04:02.250,17.5959,4.811,4.2917
2026-07-21T16:04:02.279,17.6291,5.2809,3.9197
2026-07-21T16:04:02.279,17.6291,4.6739,3.8414
2026-07-21T16:04:02.279,17.6291,4.6935,4.2917
2026-07-21T16:04:02.291,17.6329,4.6543,4.1351
2026-07-21T16:04:02.315,17.6577,5.0655,3.9393
2026-07-21T16:04:02.315,17.6577,4.6739,3.9588
2026-07-21T16:04:02.315,17.6649,4.7523,3.7826
2026-07-21T16:04:02.351,17.7005,4.6543,4.3309
2026-07-21T16:04:02.351,17.7005,5.0068,3.9001
2026-07-21T16:04:02.351,17.7005,4.5956,3.9784
2026-07-21T16:04:02.361,17.703,4.7718,3.8414
2026-07-21T16:04:02.380,17.739,4.4781,4.4484
2026-07-21T16:04:02.380,17.739,5.2418,3.9197
2026-07-21T16:04:02.394,17.739,4.7327,4.1155
2026-07-21T16:04:02.397,17.739,4.6348,3.626
2026-07-21T16:04:02.410,17.7802,4.4585,4.1938
2026-07-21T16:04:02.426,17.7811,5.0264,3.8805
2026-07-21T16:04:02.426,17.7811,4.6543,3.8414
2026-07-21T16:04:02.442,17.7863,4.6739,3.5672
2026-07-21T16:04:02.442,17.8162,4.3998,4.0372
2026-07-21T16:04:02.468,17.8182,4.9481,4.0959
2026-07-21T16:04:02.468,17.8182,4.8697,3.9588
2026-07-21T16:04:02.480,17.8488,4.8502,3.8805
2026-07-21T16:04:02.490,17.8488,4.3802,3.9588
2026-07-21T16:04:02.508,17.8488,5.1243,4.0959
2026-07-21T16:04:02.512,17.8488,5.1243,3.6651
2026-07-21T16:04:02.520,17.8827,4.4585,3.5868
2026-07-21T16:04:02.542,17.8847,4.3606,4.0176
2026-07-21T16:04:02.542,17.8867,4.9676,4.2134
2026-07-21T16:04:02.542,17.913,4.8893,3.9588
2026-07-21T16:04:02.572,17.913,4.7131,3.7239
2026-07-21T16:04:02.572,17.913,4.439,4.1546
2026-07-21T16:04:02.580,17.9233,4.7327,4.0567
2026-07-21T16:04:02.587,17.9531,4.9089,4.0959
2026-07-21T16:04:02.607,17.9551,4.576,3.6064
2026-07-21T16:04:02.607,17.9551,4.3606,3.998
2026-07-21T16:04:02.617,17.985,4.7131,3.8805
2026-07-21T16:04:02.645,17.987,5.0851,3.6847
2026-07-21T16:04:02.645,17.987,4.6935,3.6455
2026-07-21T16:04:02.651,17.991,4.4194,3.6651
2026-07-21T16:04:02.677,18.0186,4.5564,4.0372
2026-07-21T16:04:02.677,18.0186,5.1047,3.8218
2026-07-21T16:04:02.679,18.0186,4.4977,3.4497
2026-07-21T16:04:02.706,18.0502,4.2236,3.763
2026-07-21T16:04:02.706,18.0502,4.8893,3.998
2026-07-21T16:04:02.712,18.0502,4.8697,3.8609
2026-07-21T16:04:02.721,18.0819,4.6935,3.5868
2026-07-21T16:04:02.744,18.0819,4.3215,3.6651
2026-07-21T16:04:02.744,18.0819,4.6348,4.1742
2026-07-21T16:04:02.760,18.1137,5.0851,3.9784
2026-07-21T16:04:02.760,18.1137,4.7327,3.7826
2026-07-21T16:04:02.760,18.1137,4.4781,3.7826
2026-07-21T16:04:02.781,18.1137,4.7718,4.0959
2026-07-21T16:04:02.792,18.1491,4.9481,4.1546
2026-07-21T16:04:02.792,18.1491,4.8502,3.6651
2026-07-21T16:04:02.807,18.1491,4.3411,3.6651
2026-07-21T16:04:02.823,18.1773,4.5956,3.9197
2026-07-21T16:04:02.839,18.1878,4.7523,4.0372
2026-07-21T16:04:02.843,18.1878,4.6935,3.5476
2026-07-21T16:04:02.856,18.2098,4.3802,3.6064
2026-07-21T16:04:02.856,18.2098,4.5564,4.0763
2026-07-21T16:04:02.871,18.2098,4.8306,3.8609
2026-07-21T16:04:02.871,18.2098,4.7718,3.8805
2026-07-21T16:04:02.889,18.2491,4.4194,3.5868
2026-07-21T16:04:02.903,18.2559,4.4977,3.9197
2026-07-21T16:04:02.903,18.2569,4.6935,4.1351
2026-07-21T16:04:02.919,18.2569,4.8893,3.763
2026-07-21T16:04:02.943,18.2879,4.5564,3.763
2026-07-21T16:04:02.943,18.2879,4.5369,4.0176
2026-07-21T16:04:02.950,18.2879,4.9089,3.9393
2026-07-21T16:04:02.965,18.3191,4.9481,3.9001
2026-07-21T16:04:02.965,18.3191,4.5956,3.5281
2026-07-21T16:04:02.981,18.3191,4.3019,4.1938
2026-07-21T16:04:02.981,18.351,5.046,4.0763
2026-07-21T16:04:03.013,18.351,4.8893,3.7434
2026-07-21T16:04:03.013,18.351,4.6152,3.4302
2026-07-21T16:04:03.028,18.3828,4.3019,3.998
2026-07-21T16:04:03.045,18.3828,4.8697,4.0372
2026-07-21T16:04:03.045,18.3828,4.811,4.1351
2026-07-21T16:04:03.053,18.3883,4.6348,3.2735
2026-07-21T16:04:03.076,18.4148,4.2236,4.0567
2026-07-21T16:04:03.076,18.4148,5.046,3.998
2026-07-21T16:04:03.076,18.4148,4.7718,3.8218
2026-07-21T16:04:03.093,18.4496,4.576,3.4302
2026-07-21T16:04:03.108,18.4496,4.2627,4.1351
2026-07-21T16:04:03.108,18.4496,4.8502,3.9393
2026-07-21T16:04:03.124,18.4805,4.6739,3.9588
2026-07-21T16:04:03.141,18.4825,4.6739,3.4497
2026-07-21T16:04:03.141,18.4845,4.2823,3.9393
2026-07-21T16:04:03.171,18.5095,4.8502,3.9001
2026-07-21T16:04:03.171,18.5095,4.7523,3.8805
2026-07-21T16:04:03.171,18.5095,4.5173,3.5281
2026-07-21T16:04:03.187,18.5417,4.3411,3.9393
2026-07-21T16:04:03.203,18.5417,5.046,3.9393
2026-07-21T16:04:03.203,18.5417,4.6935,3.9197
2026-07-21T16:04:03.203,18.5498,4.6739,3.5281
2026-07-21T16:04:03.218,18.5787,4.4977,3.8805
2026-07-21T16:04:03.235,18.5787,4.7523,4.1155
2026-07-21T16:04:03.235,18.5815,4.7718,3.9197
2026-07-21T16:04:03.266,18.6047,4.7131,3.6847
2026-07-21T16:04:03.266,18.6047,4.439,3.8805
2026-07-21T16:04:03.272,18.6047,4.7718,4.0567
2026-07-21T16:04:03.298,18.638,4.8893,3.9001
2026-07-21T16:04:03.298,18.638,4.7523,3.6455
2026-07-21T16:04:03.298,18.638,4.6152,3.9001
2026-07-21T16:04:03.316,18.6733,4.6739,4.1351
2026-07-21T16:04:03.332,18.6743,5.1047,3.9197
2026-07-21T16:04:03.332,18.6753,4.6739,3.9588
2026-07-21T16:04:03.346,18.6942,4.5173,3.8218
2026-07-21T16:04:03.364,18.6942,4.7523,4.1351
2026-07-21T16:04:03.364,18.6942,5.0068,3.8609
2026-07-21T16:04:03.370,18.7099,4.7327,3.6455
2026-07-21T16:04:03.370,18.7379,4.5564,3.9588
2026-07-21T16:04:03.388,18.7379,4.5956,4.1546
2026-07-21T16:04:03.388,18.7419,4.8893,3.8414
2026-07-21T16:04:03.420,18.7678,4.576,4.1742
2026-07-21T16:04:03.420,18.7678,4.5369,3.763
2026-07-21T16:04:03.433,18.7719,4.9872,4.0567
2026-07-21T16:04:03.461,18.8038,4.9089,4.2134
2026-07-21T16:04:03.461,18.8038,4.6935,3.6847
2026-07-21T16:04:03.461,18.8058,4.4194,3.8022
2026-07-21T16:04:03.465,18.8078,4.7718,4.1742
2026-07-21T16:04:03.481,18.8374,4.7718,3.763
2026-07-21T16:04:03.484,18.8374,4.5173,3.8609
2026-07-21T16:04:03.503,18.8433,4.4781,4.0372
2026-07-21T16:04:03.526,18.8716,4.5564,3.9197
2026-07-21T16:04:03.526,18.8736,4.7327,3.8609
2026-07-21T16:04:03.531,18.8756,4.6152,3.8218
2026-07-21T16:04:03.549,18.9032,4.576,3.7826
2026-07-21T16:04:03.562,18.9032,4.6152,3.8805
2026-07-21T16:04:03.562,18.9032,4.6739,4.1155
2026-07-21T16:04:03.571,18.9306,5.1243,3.7239
2026-07-21T16:04:03.595,18.9306,4.439,3.7239
2026-07-21T16:04:03.595,18.9306,4.5369,3.9001
2026-07-21T16:04:03.597,18.9306,4.6739,4.0372
2026-07-21T16:04:03.609,18.9718,4.7327,3.7239
2026-07-21T16:04:03.624,18.9738,4.5369,3.6064
2026-07-21T16:04:03.624,18.9738,4.4781,3.9001
2026-07-21T16:04:03.648,19.0001,4.7914,3.8805
2026-07-21T16:04:03.663,19.0001,4.6543,3.6651
2026-07-21T16:04:03.663,19.0001,4.4194,3.5476
2026-07-21T16:04:03.671,19.0093,4.3802,3.8218
2026-07-21T16:04:03.694,19.0252,4.6543,3.998
2026-07-21T16:04:03.694,19.0252,4.7131,3.6651
2026-07-21T16:04:03.703,19.0411,4.4781,3.763
2026-07-21T16:04:03.713,19.062,4.4977,3.8022
2026-07-21T16:04:03.719,19.0679,4.7914,3.9197
2026-07-21T16:04:03.719,19.0679,4.7327,3.7239
2026-07-21T16:04:03.756,19.091,4.6543,3.5868
2026-07-21T16:04:03.756,19.091,4.3411,3.998
2026-07-21T16:04:03.761,19.091,4.7327,3.9393
2026-07-21T16:04:03.785,19.1203,4.6739,3.8805
2026-07-21T16:04:03.785,19.1203,4.4781,3.7043
2026-07-21T16:04:03.785,19.1306,4.4585,3.9393
2026-07-21T16:04:03.814,19.1535,4.7914,3.9588
2026-07-21T16:04:03.814,19.1535,4.6348,3.626
2026-07-21T16:04:03.824,19.1535,4.439,3.6455
2026-07-21T16:04:03.844,19.1876,4.3802,3.8805
2026-07-21T16:04:03.847,19.1876,4.7327,3.8609
2026-07-21T16:04:03.847,19.1896,4.6543,3.763
2026-07-21T16:04:03.876,19.2174,4.576,3.6847
2026-07-21T16:04:03.879,19.2174,4.576,3.8414
2026-07-21T16:04:03.883,19.2194,4.6935,3.9588
2026-07-21T16:04:03.908,19.2483,4.6543,3.763
2026-07-21T16:04:03.909,19.2483,4.811,3.7826
2026-07-21T16:04:03.911,19.2507,4.4194,3.9588
2026-07-21T16:04:03.933,19.2777,4.6348,3.8414
2026-07-21T16:04:03.933,19.2777,4.6152,3.9001
2026-07-21T16:04:03.944,19.2777,4.5369,3.626
2026-07-21T16:04:03.956,19.3117,4.3411,3.6651
2026-07-21T16:04:03.956,19.3117,4.6152,4.5267
2026-07-21T16:04:03.971,19.3117,4.6348,3.8609
2026-07-21T16:04:03.971,19.3454,4.9285,3.5672
2026-07-21T16:04:04.005,19.3494,4.3998,3.6847
2026-07-21T16:04:04.005,19.3509,4.5564,3.8805
2026-07-21T16:04:04.005,19.3529,4.7131,3.8805
2026-07-21T16:04:04.037,19.3812,4.6543,3.9001
2026-07-21T16:04:04.037,19.3812,4.576,3.7434
2026-07-21T16:04:04.043,19.3832,4.5369,4.233
2026-07-21T16:04:04.058,19.4058,4.811,3.9393
2026-07-21T16:04:04.066,19.4058,4.5956,3.763
2026-07-21T16:04:04.066,19.4058,4.4585,3.5868
2026-07-21T16:04:04.079,19.4058,4.4977,3.9393
2026-07-21T16:04:04.099,19.4446,4.8502,3.8609
2026-07-21T16:04:04.099,19.4446,4.5564,3.626
2026-07-21T16:04:04.113,19.4683,4.6739,3.5476
2026-07-21T16:04:04.130,19.4683,4.3802,3.9588
2026-07-21T16:04:04.130,19.4683,4.811,3.8609
2026-07-21T16:04:04.138,19.4841,4.6152,3.5476
2026-07-21T16:04:04.162,19.4989,4.3606,3.626
2026-07-21T16:04:04.162,19.4989,4.3606,4.0176
2026-07-21T16:04:04.162,19.4989,4.811,3.9001
2026-07-21T16:04:04.192,19.5437,4.5956,3.6455
2026-07-21T16:04:04.192,19.5457,4.7131,3.5281
2026-07-21T16:04:04.192,19.5457,4.3998,3.8609
2026-07-21T16:04:04.208,19.5487,4.8502,3.7826
2026-07-21T16:04:04.230,19.5735,4.6348,3.6651
2026-07-21T16:04:04.230,19.5735,4.4585,3.7239
2026-07-21T16:04:04.244,19.6018,4.3998,4.0372
2026-07-21T16:04:04.247,19.6103,4.9285,3.7826
2026-07-21T16:04:04.267,19.6103,4.6152,3.998
2026-07-21T16:04:04.272,19.6103,4.6543,3.4693
2026-07-21T16:04:04.295,19.6421,4.2432,3.8218
2026-07-21T16:04:04.295,19.6421,4.7523,3.8414
2026-07-21T16:04:04.303,19.6421,4.6348,3.8218
2026-07-21T16:04:04.319,19.6747,4.7914,3.5281
2026-07-21T16:04:04.336,19.6747,4.2236,4.0176
2026-07-21T16:04:04.336,19.6747,4.7914,3.8805
2026-07-21T16:04:04.336,19.6747,4.6348,3.763
2026-07-21T16:04:04.368,19.7104,4.5956,3.4889
2026-07-21T16:04:04.368,19.7104,4.2432,3.8805
2026-07-21T16:04:04.368,19.7104,4.7327,3.9001
2026-07-21T16:04:04.383,19.7459,4.6739,3.998
2026-07-21T16:04:04.404,19.7479,4.5173,3.5476
2026-07-21T16:04:04.404,19.7479,4.204,4.0372
2026-07-21T16:04:04.404,19.7509,4.7131,3.7826
2026-07-21T16:04:04.437,19.771,4.9676,3.8022
2026-07-21T16:04:04.437,19.771,4.7914,3.5085
2026-07-21T16:04:04.439,19.771,4.2627,3.8022
2026-07-21T16:04:04.448,19.8012,4.8502,3.9393
2026-07-21T16:04:04.465,19.8012,4.9285,4.0372
2026-07-21T16:04:04.465,19.8012,4.6348,3.5085
2026-07-21T16:04:04.495,19.832,4.1452,3.8609
2026-07-21T16:04:04.495,19.832,4.7327,4.1938
2026-07-21T16:04:04.495,19.832,4.811,3.7826
2026-07-21T16:04:04.510,19.8634,4.3998,3.7043
2026-07-21T16:04:04.526,19.8634,4.3215,3.6455
2026-07-21T16:04:04.526,19.8634,4.4781,3.9393
2026-07-21T16:04:04.541,19.8953,4.8306,3.6455
2026-07-21T16:04:04.557,19.8953,4.4781,3.6064
2026-07-21T16:04:04.557,19.8953,4.4194,3.5672
2026-07-21T16:04:04.557,19.911,4.3998,3.9784
2026-07-21T16:04:04.589,19.9269,4.7523,3.7434
2026-07-21T16:04:04.589,19.9269,4.4781,3.7239
2026-07-21T16:04:04.605,19.9425,4.4781,3.5672
2026-07-21T16:04:04.620,19.9698,4.3802,3.9393
2026-07-21T16:04:04.620,19.9718,4.7327,3.8022
2026-07-21T16:04:04.620,19.9718,4.4977,3.7434
2026-07-21T16:04:04.649,20.0008,4.5369,3.4106
2026-07-21T16:04:04.652,20.0028,4.5956,3.9784
2026-07-21T16:04:04.652,20.0028,4.7718,3.8022
2026-07-21T16:04:04.678,20.0292,4.4585,3.8022
2026-07-21T16:04:04.691,20.0292,4.4781,3.4302
2026-07-21T16:04:04.694,20.036,4.1844,3.9588
2026-07-21T16:04:04.710,20.0522,4.8502,3.8609
2026-07-21T16:04:04.723,20.0522,4.6152,3.6847
2026-07-21T16:04:04.723,20.0522,4.439,3.5476
2026-07-21T16:04:04.730,20.0682,4.204,4.1351
2026-07-21T16:04:04.746,20.0994,4.7523,3.8022
2026-07-21T16:04:04.746,20.0994,4.811,3.6847
2026-07-21T16:04:04.762,20.1021,4.439,3.391
2026-07-21T16:04:04.762,20.1277,4.2236,3.9784
2026-07-21T16:04:04.777,20.1313,4.7327,4.0372
2026-07-21T16:04:04.796,20.1344,4.6739,3.626
2026-07-21T16:04:04.809,20.1635,4.3019,3.4106
2026-07-21T16:04:04.821,20.1635,4.2823,4.0567
2026-07-21T16:04:04.821,20.1635,4.7914,4.0372
2026-07-21T16:04:04.841,20.1867,4.7914,3.5868
2026-07-21T16:04:04.851,20.1964,4.3802,3.7826
2026-07-21T16:04:04.851,20.1964,4.2627,3.8022
2026-07-21T16:04:04.857,20.2134,4.6543,4.0372
2026-07-21T16:04:04.880,20.227,4.7523,3.5868
2026-07-21T16:04:04.880,20.227,4.3215,3.626
2026-07-21T16:04:04.892,20.227,4.2432,3.7043
2026-07-21T16:04:04.905,20.2588,4.5956,3.9393
2026-07-21T16:04:04.907,20.2588,4.7914,3.5281
2026-07-21T16:04:04.921,20.2588,4.3215,3.5672
2026-07-21T16:04:04.951,20.2907,4.204,3.6651
2026-07-21T16:04:04.951,20.2959,4.4977,3.9588
2026-07-21T16:04:04.952,20.2959,4.7718,3.6651
2026-07-21T16:04:04.952,20.2959,4.439,3.4889
2026-07-21T16:04:04.984,20.3275,4.2627,3.5672
2026-07-21T16:04:04.984,20.3275,4.3998,4.0372
2026-07-21T16:04:04.989,20.3546,4.7718,3.6455
2026-07-21T16:04:05.000,20.3546,4.4194,3.4889
2026-07-21T16:04:05.016,20.3546,4.2236,3.626
2026-07-21T16:04:05.023,20.3546,4.5564,3.9784
2026-07-21T16:04:05.045,20.3857,4.9481,3.8022
2026-07-21T16:04:05.048,20.3857,4.5564,3.4302
2026-07-21T16:04:05.048,20.3936,4.1844,3.6455
2026-07-21T16:04:05.066,20.4193,4.4781,4.1351
2026-07-21T16:04:05.079,20.4193,4.7718,3.7434
2026-07-21T16:04:05.079,20.4266,4.439,3.6455
2026-07-21T16:04:05.092,20.4517,4.1452,3.5476
2026-07-21T16:04:05.113,20.4517,4.576,3.8414
2026-07-21T16:04:05.113,20.4602,4.8697,3.7434
2026-07-21T16:04:05.120,20.466,4.439,3.5281
2026-07-21T16:04:05.145,20.4888,4.1648,3.4497
2026-07-21T16:04:05.145,20.4963,4.2432,3.6064
2026-07-21T16:04:05.154,20.4998,4.1452,3.6455
2026-07-21T16:04:05.160,20.5422,4.2823,3.1364
2026-07-21T16:04:05.182,20.5518,4.2823,4.0372
2026-07-21T16:04:05.182,20.5518,5.1439,7.7379
2026-07-21T16:04:05.193,20.5622,6.2795,14.5324
2026-07-21T16:04:05.206,20.5803,8.0222,22.2668
2026-07-21T16:04:05.232,20.6193,9.0992,29.8838
2026-07-21T16:04:05.232,20.6253,10.0586,36.4825
2026-07-21T16:04:05.232,20.6253,11.4489,42.3175
2026-07-21T16:04:05.245,20.6253,12.7608,47.6044
2026-07-21T16:04:05.256,20.6425,13.8377,52.8128
2026-07-21T16:04:05.256,20.6425,15.2867,58.3738
2026-07-21T16:04:05.274,20.6572,17.421,63.0927
2026-07-21T16:04:05.276,20.6572,18.8308,66.8131
2026-07-21T16:04:05.309,20.6973,20.1231,69.946
2026-07-21T16:04:05.309,20.6973,20.7889,73.3335
2026-07-21T16:04:05.313,20.7078,21.9833,75.1349
2026-07-21T16:04:05.319,20.7119,22.6686,76.8188
2026-07-21T16:04:05.335,20.7119,23.6085,78.2287
2026-07-21T16:04:05.336,20.7119,23.7652,80.0497
2026-07-21T16:04:05.351,20.727,24.5484,80.7937
2026-07-21T16:04:05.369,20.753,24.6659,81.2049
2026-07-21T16:04:05.383,20.753,25.1162,81.2441
2026-07-21T16:04:05.383,20.753,24.9792,82.2427
2026-07-21T16:04:05.399,20.7706,25.8995,82.9476
2026-07-21T16:04:05.424,20.7726,25.4883,83.3197
2026-07-21T16:04:05.425,20.7726,25.4883,83.5938
2026-07-21T16:04:05.425,20.7726,25.7428,84.1616
2026-07-21T16:04:05.437,20.8097,26.2715,84.5532
2026-07-21T16:04:05.447,20.8158,26.4282,84.5728
2026-07-21T16:04:05.447,20.8158,26.1736,83.633
2026-07-21T16:04:05.466,20.8185,25.7624,83.4371
2026-07-21T16:04:05.473,20.8185,25.8995,83.2805
2026-07-21T16:04:05.496,20.8621,25.7232,82.5952
2026-07-21T16:04:05.496,20.8649,25.5666,82.791
2026-07-21T16:04:05.503,20.8649,25.7428,83.8092
2026-07-21T16:04:05.512,20.8649,26.154,84.0246
2026-07-21T16:04:05.512,20.8649,26.154,83.8092
2026-07-21T16:04:05.547,20.8977,26.2715,83.3197
2026-07-21T16:04:05.547,20.8977,25.8211,83.0651
2026-07-21T16:04:05.556,20.9125,26.017,82.7518
2026-07-21T16:04:05.558,20.919,25.8407,82.791
2026-07-21T16:04:05.575,20.9439,25.782,82.9672
2026-07-21T16:04:05.575,20.952,25.9974,83.8875
2026-07-21T16:04:05.591,20.952,26.3694,83.7504
2026-07-21T16:04:05.606,20.9597,26.4869,83.0455
2026-07-21T16:04:05.613,20.9597,26.8393,82.4385
2026-07-21T16:04:05.637,20.9966,26.6435,81.9686
2026-07-21T16:04:05.637,20.9981,26.5652,81.3812
2026-07-21T16:04:05.644,20.9981,26.8002,82.0665
2026-07-21T16:04:05.653,21.0062,27.2897,83.5155
2026-07-21T16:04:05.682,21.0392,27.368,84.24
2026-07-21T16:04:05.682,21.0392,27.8575,84.0441
2026-07-21T16:04:05.682,21.0392,27.9555,82.9868
2026-07-21T16:04:05.698,21.0392,27.8184,82.321
2026-07-21T16:04:05.703,21.0392,27.1135,81.6945
2026-07-21T16:04:05.717,21.0814,27.368,82.8106
2026-07-21T16:04:05.727,21.0814,27.8184,83.9267
2026-07-21T16:04:05.733,21.0889,27.6617,83.8875
2026-07-21T16:04:05.733,21.0929,27.4072,83.4371
2026-07-21T16:04:05.766,21.1186,27.7596,83.5546
2026-07-21T16:04:05.766,21.1186,28.2296,83.4371
2026-07-21T16:04:05.775,21.1186,27.8771,83.0064
2026-07-21T16:04:05.784,21.1346,27.6422,83.0455
2026-07-21T16:04:05.812,21.1665,27.9555,84.4945
2026-07-21T16:04:05.812,21.1676,28.5037,85.2582
2026-07-21T16:04:05.812,21.1676,28.1121,85.3756
2026-07-21T16:04:05.812,21.1676,28.3079,85.3756
2026-07-21T16:04:05.831,21.1823,28.3471,86.1393
2026-07-21T16:04:05.844,21.2147,28.4058,85.6498
2026-07-21T16:04:05.856,21.2147,28.21,85.5323
2026-07-21T16:04:05.861,21.218,28.0925,85.3169
2026-07-21T16:04:05.861,21.22,28.21,85.5127
2026-07-21T16:04:05.887,21.2565,28.3666,85.2777
2026-07-21T16:04:05.902,21.2565,28.1904,86.1784
2026-07-21T16:04:05.902,21.2565,28.3275,86.5505
2026-07-21T16:04:05.914,21.2615,28.3862,87.2554
2026-07-21T16:04:05.923,21.2991,28.0534,85.8456
2026-07-21T16:04:05.943,21.2991,27.8771,85.6693
2026-07-21T16:04:05.943,21.2991,28.2687,86.5701
2026-07-21T16:04:05.955,21.2991,28.2492,87.2162
2026-07-21T16:04:05.964,21.3431,28.8757,87.1379
2026-07-21T16:04:05.987,21.3468,28.6016,87.0008
2026-07-21T16:04:05.987,21.3468,28.5429,86.2176
2026-07-21T16:04:05.993,21.3524,27.8771,86.6288
2026-07-21T16:04:06.003,21.3581,28.3666,86.5701
2026-07-21T16:04:06.033,21.3882,28.2492,86.6092
2026-07-21T16:04:06.033,21.3882,28.582,86.9617
2026-07-21T16:04:06.035,21.3882,28.6995,87.9211
2026-07-21T16:04:06.042,21.3882,29.3065,88.019
2026-07-21T16:04:06.054,21.4285,29.3457,87.9211
2026-07-21T16:04:06.071,21.4305,29.1695,87.9603
2026-07-21T16:04:06.075,21.4305,28.7778,88.0386
2026-07-21T16:04:06.082,21.437,29.2674,87.7449
2026-07-21T16:04:06.093,21.4445,29.2086,87.3925
2026-07-21T16:04:06.114,21.4676,28.9541,87.3337
2026-07-21T16:04:06.114,21.4676,28.8562,87.5491
2026-07-21T16:04:06.124,21.4833,29.1499,87.6274
2026-07-21T16:04:06.131,21.4894,29.189,86.9617
2026-07-21T16:04:06.161,21.5178,28.9737,87.0596
2026-07-21T16:04:06.161,21.5178,28.3666,86.5701
2026-07-21T16:04:06.161,21.5178,28.1904,86.6092
2026-07-21T16:04:06.161,21.5321,28.9149,86.5113
2026-07-21T16:04:06.187,21.5321,28.3862,86.9029
2026-07-21T16:04:06.211,21.5716,28.445,86.3351
2026-07-21T16:04:06.211,21.5716,28.6408,86.1001
2026-07-21T16:04:06.211,21.5736,28.8757,85.7281
2026-07-21T16:04:06.211,21.5792,28.8366,85.6106
2026-07-21T16:04:06.226,21.5792,28.582,84.8274
2026-07-21T16:04:06.258,21.6143,28.3471,85.219
2026-07-21T16:04:06.261,21.6163,28.8757,85.1015
2026-07-21T16:04:06.263,21.6183,28.4841,85.1798
2026-07-21T16:04:06.273,21.6273,28.2296,84.5924
2026-07-21T16:04:06.289,21.6591,28.21,84.0637
2026-07-21T16:04:06.305,21.6611,28.445,83.5938
2026-07-21T16:04:06.305,21.6616,28.7191,83.2609
2026-07-21T16:04:06.312,21.6656,27.5443,83.0259
2026-07-21T16:04:06.321,21.6717,27.6226,84.1029
2026-07-21T16:04:06.337,21.7008,28.3079,84.4358
2026-07-21T16:04:06.349,21.7008,28.2492,83.8092
2026-07-21T16:04:06.355,21.7076,27.8967,82.9085
2026-07-21T16:04:06.365,21.7076,27.8184,82.7322
2026-07-21T16:04:06.387,21.7425,28.1513,82.791
2026-07-21T16:04:06.388,21.7445,28.1513,82.556
2026-07-21T16:04:06.394,21.7465,27.6226,83.0455
2026-07-21T16:04:06.401,21.7546,27.975,83.6721
2026-07-21T16:04:06.431,21.7865,28.1513,83.9658
2026-07-21T16:04:06.432,21.7865,28.4058,83.4176
2026-07-21T16:04:06.434,21.7865,27.7401,82.6931
2026-07-21T16:04:06.444,21.7865,27.5443,82.7127
2026-07-21T16:04:06.458,21.8218,27.9359,83.163
2026-07-21T16:04:06.469,21.8218,27.9359,83.4176
2026-07-21T16:04:06.469,21.8218,27.5247,83.8483
2026-07-21T16:04:06.480,21.8375,27.1331,84.3966
2026-07-21T16:04:06.480,21.8375,27.7596,84.0246
2026-07-21T16:04:06.515,21.8747,27.6226,83.4371
2026-07-21T16:04:06.515,21.8747,27.8184,82.5756
2026-07-21T16:04:06.529,21.8818,27.368,83.398
2026-07-21T16:04:06.531,21.8858,27.7792,83.9462
2026-07-21T16:04:06.559,21.9132,27.8967,83.6721
2026-07-21T16:04:06.559,21.9132,27.7009,83.3588
2026-07-21T16:04:06.559,21.9132,27.0939,83.6525
2026-07-21T16:04:06.574,21.9132,27.6617,83.4371
2026-07-21T16:04:06.583,21.9533,27.975,82.8889
2026-07-21T16:04:06.607,21.9611,27.838,82.4973
2026-07-21T16:04:06.607,21.9611,26.761,82.6343
2026-07-21T16:04:06.607,21.9611,27.2897,82.4385
2026-07-21T16:04:06.623,21.9611,27.4072,82.7322
2026-07-21T16:04:06.647,22.002,27.3093,82.8889
2026-07-21T16:04:06.647,22.002,27.0939,83.6134
2026-07-21T16:04:06.655,22.0088,27.4072,83.9267
2026-07-21T16:04:06.655,22.0088,27.4855,83.535
2026-07-21T16:04:06.671,22.0468,26.8785,82.5168
2026-07-21T16:04:06.686,22.0509,26.2911,82.1448
2026-07-21T16:04:06.686,22.0509,26.5652,82.7714
2026-07-21T16:04:06.702,22.0585,26.8002,82.8106
2026-07-21T16:04:06.702,22.0585,26.5456,83.2413
2026-07-21T16:04:06.718,22.0876,26.3107,83.5742
2026-07-21T16:04:06.738,22.0954,26.5456,83.8092
2026-07-21T16:04:06.744,22.0954,26.7023,83.0847
2026-07-21T16:04:06.752,22.1036,26.2519,82.7322
2026-07-21T16:04:06.766,22.1356,26.2519,82.9672
2026-07-21T16:04:06.781,22.1356,26.3302,83.9462
2026-07-21T16:04:06.781,22.1356,26.5261,83.2413
2026-07-21T16:04:06.796,22.1453,26.4477,83.0064
2026-07-21T16:04:06.797,22.1534,26.2323,83.2022
2026-07-21T16:04:06.822,22.1832,26.761,83.3392
2026-07-21T16:04:06.822,22.1832,26.3302,82.5168
2026-07-21T16:04:06.829,22.1904,25.9582,82.0273
2026-07-21T16:04:06.847,22.1993,26.017,82.1644
2026-07-21T16:04:06.850,22.2214,26.5065,82.7518
2026-07-21T16:04:06.863,22.2214,26.5261,83.2609
2026-07-21T16:04:06.863,22.231,26.761,82.9868
2026-07-21T16:04:06.884,22.231,26.3498,83.0064
2026-07-21T16:04:06.893,22.231,26.389,82.928
2026-07-21T16:04:06.896,22.2741,26.0953,82.3994
2026-07-21T16:04:06.915,22.2741,26.1344,82.0273
2026-07-21T16:04:06.915,22.2788,26.0561,82.2819
2026-07-21T16:04:06.925,22.2788,26.2715,82.9476
2026-07-21T16:04:06.964,22.3107,26.5261,83.1434
2026-07-21T16:04:06.964,22.3107,26.6044,83.0651
2026-07-21T16:04:06.964,22.3107,26.2323,82.928
2026-07-21T16:04:06.972,22.3107,26.4477,82.3994
2026-07-21T16:04:06.988,22.3482,26.154,81.5182
2026-07-21T16:04:07.004,22.3539,25.8995,81.1462
2026-07-21T16:04:07.004,22.3539,26.0365,81.9294
2026-07-21T16:04:07.004,22.3587,26.4869,82.9868
2026-07-21T16:04:07.020,22.3901,26.9373,82.8693
2026-07-21T16:04:07.042,22.3901,26.4673,82.5364
2026-07-21T16:04:07.042,22.3952,26.3107,82.6148
2026-07-21T16:04:07.052,22.4033,26.2715,82.1448
2026-07-21T16:04:07.077,22.4219,26.2128,81.577
2026-07-21T16:04:07.077,22.4219,26.0757,81.577
2026-07-21T16:04:07.084,22.4377,26.2128,81.5574
2026-07-21T16:04:07.097,22.4462,26.154,82.1057
2026-07-21T16:04:07.099,22.4483,26.389,81.8511
2026-07-21T16:04:07.115,22.4741,26.1344,81.8119
2026-07-21T16:04:07.115,22.4741,26.0561,81.1266
2026-07-21T16:04:07.138,22.4816,25.3904,80.8916
2026-07-21T16:04:07.144,22.5086,25.8211,80.2651
2026-07-21T16:04:07.164,22.5145,25.7037,80.1672
2026-07-21T16:04:07.168,22.5175,25.4491,79.6189
2026-07-21T16:04:07.175,22.5215,25.1162,80.5784
2026-07-21T16:04:07.202,22.5545,25.8995,80.8133
2026-07-21T16:04:07.202,22.5545,25.5862,80.5196
2026-07-21T16:04:07.208,22.5566,25.175,79.9518
2026-07-21T16:04:07.216,22.5566,24.8225,79.9713
2026-07-21T16:04:07.230,22.5893,25.5079,79.1098
2026-07-21T16:04:07.243,22.5924,25.6253,79.2469
2026-07-21T16:04:07.246,22.5962,25.1554,79.5406
2026-07-21T16:04:07.250,22.6012,25.0771,80.2063
2026-07-21T16:04:07.269,22.6247,25.4883,80.6567
2026-07-21T16:04:07.277,22.6302,25.4883,79.9909
2026-07-21T16:04:07.284,22.6302,25.1358,79.3448
2026-07-21T16:04:07.295,22.6302,24.9596,78.7573
2026-07-21T16:04:07.311,22.6698,25.2729,78.5224
2026-07-21T16:04:07.311,22.6698,25.3708,78.4636
2026-07-21T16:04:07.324,22.6758,24.9988,78.9336
2026-07-21T16:04:07.338,22.7074,24.8225,78.9336
2026-07-21T16:04:07.359,22.7094,25.1358,79.3252
2026-07-21T16:04:07.359,22.7094,25.547,78.9531
2026-07-21T16:04:07.367,22.7094,25.0575,78.5028
2026-07-21T16:04:07.369,22.7094,24.7246,78.3266
2026-07-21T16:04:07.398,22.7476,25.2533,78.3853
2026-07-21T16:04:07.398,22.7476,25.5274,78.4245
2026-07-21T16:04:07.403,22.7516,25.3316,78.2874
2026-07-21T16:04:07.403,22.7547,24.9596,78.6399
2026-07-21T16:04:07.433,22.7849,25.3512,78.9923
2026-07-21T16:04:07.437,22.7864,25.6841,78.8161
2026-07-21T16:04:07.443,22.7884,25.175,78.072
2026-07-21T16:04:07.454,22.8244,24.7442,77.8762
2026-07-21T16:04:07.473,22.8292,25.2925,78.072
2026-07-21T16:04:07.473,22.8292,25.5274,77.8175
2026-07-21T16:04:07.482,22.8347,24.8225,77.4063
2026-07-21T16:04:07.498,22.8661,24.8617,77.8175
2026-07-21T16:04:07.516,22.8661,25.1554,78.8357
2026-07-21T16:04:07.516,22.8661,25.3708,79.893
2026-07-21T16:04:07.527,22.8661,25.2337,79.3252
2026-07-21T16:04:07.528,22.882,24.9009,79.6581
2026-07-21T16:04:07.557,22.9139,25.175,80.3825
2026-07-21T16:04:07.557,22.9139,25.3904,80.4217
2026-07-21T16:04:07.560,22.9139,25.3512,80.4021
2026-07-21T16:04:07.576,22.9139,25.0967,80.5196
2026-07-21T16:04:07.591,22.9616,24.8421,80.4217
2026-07-21T16:04:07.591,22.9616,25.1946,80.3434
2026-07-21T16:04:07.599,22.9616,25.0771,79.756
2026-07-21T16:04:07.607,22.9616,24.6659,79.7168
2026-07-21T16:04:07.623,22.9774,24.5484,80.9112
2026-07-21T16:04:07.651,23.0086,25.0967,80.9895
2026-07-21T16:04:07.651,23.0086,25.0575,80.7546
2026-07-21T16:04:07.655,23.0086,25.0379,80.0888
2026-07-21T16:04:07.668,23.0086,24.8225,80.363
2026-07-21T16:04:07.683,23.0505,25.1946,79.1881
2026-07-21T16:04:07.696,23.0551,25.1162,79.0119
2026-07-21T16:04:07.696,23.0568,24.9009,79.4231
2026-07-21T16:04:07.702,23.0568,24.6267,80.4804
2026-07-21T16:04:07.702,23.0568,25.2925,80.5979
2026-07-21T16:04:07.718,23.1037,25.2533,80.3238
2026-07-21T16:04:07.737,23.1037,25.0771,79.2273
2026-07-21T16:04:07.746,23.1097,25.0183,79.893
2026-07-21T16:04:07.750,23.1138,25.1946,79.286
2026-07-21T16:04:07.772,23.1552,25.0575,79.9126
2026-07-21T16:04:07.783,23.1552,25.312,80.6763
2026-07-21T16:04:07.783,23.1552,25.0771,81.6357
2026-07-21T16:04:07.797,23.1552,25.5274,81.6749
2026-07-21T16:04:07.807,23.1674,25.6253,80.97
2026-07-21T16:04:07.816,23.1674,25.4687,80.4609
2026-07-21T16:04:07.845,23.2063,25.2337,80.6175
2026-07-21T16:04:07.845,23.2063,24.9596,81.0287
2026-07-21T16:04:07.845,23.2101,25.5079,81.7728
2026-07-21T16:04:07.849,23.215,25.41,82.1644
2026-07-21T16:04:07.861,23.215,25.1554,82.321
2026-07-21T16:04:07.895,23.2553,25.4883,82.3602
2026-07-21T16:04:07.895,23.2553,25.9778,82.4973
2026-07-21T16:04:07.895,23.2553,25.41,82.0861
2026-07-21T16:04:07.909,23.2623,24.7834,82.0469
2026-07-21T16:04:07.909,23.2623,25.0379,82.7127
2026-07-21T16:04:07.926,23.3002,25.4687,81.9686
2026-07-21T16:04:07.940,23.3043,25.175,81.577
2026-07-21T16:04:07.949,23.3088,25.0967,81.3224
2026-07-21T16:04:07.956,23.3103,25.3512,81.8903
2026-07-21T16:04:07.956,23.3103,25.4491,81.6357
2026-07-21T16:04:07.972,23.3421,25.1358,81.1658
2026-07-21T16:04:07.990,23.3555,24.5876,80.6763
2026-07-21T16:04:07.998,23.3581,24.9204,81.1462
2026-07-21T16:04:08.004,23.3581,25.1358,80.7742
2026-07-21T16:04:08.013,23.3895,24.8225,80.1476
2026-07-21T16:04:08.036,23.3895,24.5288,80.363
2026-07-21T16:04:08.036,23.3895,24.5484,80.5196
2026-07-21T16:04:08.036,23.407,24.7442,80.5196
2026-07-21T16:04:08.052,23.407,24.4113,80.2259
2026-07-21T16:04:08.083,23.445,24.2547,79.7168
2026-07-21T16:04:08.083,23.445,24.3722,80.4217
2026-07-21T16:04:08.083,23.445,24.7246,80.5
2026-07-21T16:04:08.083,23.4559,24.6659,80.6567
2026-07-21T16:04:08.101,23.4559,24.4113,79.9909
2026-07-21T16:04:08.115,23.4859,24.5876,79.8734
2026-07-21T16:04:08.131,23.4859,24.333,79.6385
2026-07-21T16:04:08.131,23.4859,24.3526,79.6189
2026-07-21T16:04:08.139,23.5008,24.3134,80.0301
2026-07-21T16:04:08.149,23.5072,24.4701,80.735
2026-07-21T16:04:08.179,23.5331,24.6463,81.0287
2026-07-21T16:04:08.179,23.5331,24.8421,80.735
2026-07-21T16:04:08.179,23.5331,24.705,80.3042
2026-07-21T16:04:08.194,23.5478,24.5092,80.5588
2026-07-21T16:04:08.201,23.5559,24.7638,80.7154
2026-07-21T16:04:08.227,23.5964,24.6855,80.0497
2026-07-21T16:04:08.227,23.5976,24.3526,79.4231
2026-07-21T16:04:08.227,23.5976,24.1176,79.7168
2026-07-21T16:04:08.241,23.5976,24.4701,79.756
2026-07-21T16:04:08.249,23.6119,24.2547,79.1294
2026-07-21T16:04:08.274,23.6455,23.9806,78.7378
2026-07-21T16:04:08.274,23.6455,23.8239,78.072
2026-07-21T16:04:08.289,23.6455,23.8435,77.4846
2026-07-21T16:04:08.291,23.6455,23.8239,76.5447
2026-07-21T16:04:08.306,23.6591,23.6085,76.7601
2026-07-21T16:04:08.334,23.7163,23.4323,77.0734
2026-07-21T16:04:08.334,23.7163,23.7064,77.6804
2026-07-21T16:04:08.339,23.7183,23.8435,77.6021
2026-07-21T16:04:08.339,23.7224,23.491,77.3867
2026-07-21T16:04:08.357,23.7224,23.6085,77.23
2026-07-21T16:04:08.402,23.7601,23.4519,77.1909
2026-07-21T16:04:08.402,23.7621,23.6281,76.3685
2026-07-21T16:04:08.402,23.7621,23.3344,76.9951
2026-07-21T16:04:08.402,23.7641,23.5889,77.2888
2026-07-21T16:04:08.410,23.7682,23.5889,77.4454
2026-07-21T16:04:08.416,23.7699,23.7847,77.6217
2026-07-21T16:04:08.416,23.8016,23.3931,76.9951
2026-07-21T16:04:08.450,23.8016,23.1582,76.1923
2026-07-21T16:04:08.450,23.8016,23.1777,75.9573
2026-07-21T16:04:08.454,23.8079,23.5302,75.1153
2026-07-21T16:04:08.463,23.8177,22.9036,74.5671
2026-07-21T16:04:08.490,23.8502,22.4533,74.1559
2026-07-21T16:04:08.490,23.8514,22.7274,74.7041
2026-07-21T16:04:08.495,23.8534,22.8449,74.8804
2026-07-21T16:04:08.501,23.8605,22.7861,74.3125
2026-07-21T16:04:08.538,23.8913,21.905,73.7838
2026-07-21T16:04:08.538,23.8913,21.8854,73.451
2026-07-21T16:04:08.538,23.8933,22.1791,73.5489
2026-07-21T16:04:08.547,23.8978,22.5707,73.4118
2026-07-21T16:04:08.560,23.9018,21.905,73.6468
2026-07-21T16:04:08.574,23.9322,22.0421,74.2538
2026-07-21T16:04:08.574,23.9322,22.2966,74.5866
2026-07-21T16:04:08.589,23.9342,22.0029,74.4692
2026-07-21T16:04:08.593,23.9382,22.0616,74.5083
2026-07-21T16:04:08.612,23.9607,21.8071,74.7433
2026-07-21T16:04:08.612,23.9607,22.5316,74.8608
2026-07-21T16:04:08.626,23.9757,22.1008,75.2132
2026-07-21T16:04:08.634,23.9829,21.8267,75.6048
2026-07-21T16:04:08.654,24.0089,21.7288,75.8594
2026-07-21T16:04:08.654,24.0089,21.6504,75.1153
2026-07-21T16:04:08.654,24.0089,19.9078,73.216
2026-07-21T16:04:08.674,24.0238,19.3008,72.139
2026-07-21T16:04:08.698,24.0555,18.9875,72.0607
2026-07-21T16:04:08.698,24.057,19.614,72.4719
2026-07-21T16:04:08.702,24.058,19.6532,73.3531
2026-07-21T16:04:08.702,24.058,19.1637,73.1768
2026-07-21T16:04:08.731,24.0979,19.3008,73.8622
2026-07-21T16:04:08.743,24.1,20.0252,73.6859
2026-07-21T16:04:08.743,24.102,19.8686,73.1181
2026-07-21T16:04:08.752,24.103,19.3008,72.0803
2026-07-21T16:04:08.765,24.1347,19.1245,72.5698
2026-07-21T16:04:08.776,24.1347,20.456,73.9013
2026-07-21T16:04:08.785,24.1347,20.6518,74.5083
2026-07-21T16:04:08.796,24.1347,20.319,74.1754
2026-07-21T16:04:08.803,24.1549,20.0644,74.4887
2026-07-21T16:04:08.828,24.1824,20.8085,74.3713
2026-07-21T16:04:08.828,24.1844,20.7889,74.5083
2026-07-21T16:04:08.828,24.1885,20.9455,74.3713
2026-07-21T16:04:08.848,24.1933,20.6127,75.2915
2026-07-21T16:04:08.867,24.2151,21.4155,75.7027
2026-07-21T16:04:08.867,24.2151,21.5134,76.1335
2026-07-21T16:04:08.876,24.2151,21.3372,76.3097
2026-07-21T16:04:08.886,24.2297,21.2588,76.7014
2026-07-21T16:04:08.892,24.2613,21.5721,76.5839
2026-07-21T16:04:08.909,24.262,21.7484,76.1139
2026-07-21T16:04:08.909,24.264,21.3763,75.9965
2026-07-21T16:04:08.923,24.2722,21.3959,76.6426
2026-07-21T16:04:08.951,24.2933,22.0225,77.4454
2026-07-21T16:04:08.952,24.2933,22.1791,77.4063
2026-07-21T16:04:08.953,24.2933,21.8267,77.5238
2026-07-21T16:04:08.968,24.3098,21.7679,77.8762
2026-07-21T16:04:08.987,24.3409,21.9833,77.9154
2026-07-21T16:04:08.987,24.3409,21.8071,76.7993
2026-07-21T16:04:08.987,24.3409,21.3959,76.4664
2026-07-21T16:04:09.003,24.3409,21.5525,76.623
2026-07-21T16:04:09.020,24.3794,21.7875,77.4846
2026-07-21T16:04:09.020,24.3815,21.9246,77.5238
2026-07-21T16:04:09.034,24.386,21.4742,77.6217
2026-07-21T16:04:09.034,24.388,21.5917,77.5042
2026-07-21T16:04:09.051,24.4198,21.5525,77.6021
2026-07-21T16:04:09.066,24.4208,22.1008,76.7993
2026-07-21T16:04:09.078,24.4208,21.905,77.0538
2026-07-21T16:04:09.082,24.4359,21.7679,77.4063
2026-07-21T16:04:09.107,24.4629,21.8854,78.6203
2026-07-21T16:04:09.107,24.4629,22.3945,78.679
2026-07-21T16:04:09.114,24.4679,21.9833,79.1294
2026-07-21T16:04:09.128,24.4679,22.0812,78.6594
2026-07-21T16:04:09.140,24.4996,22.0225,78.444
2026-07-21T16:04:09.151,24.4996,22.2966,77.5238
2026-07-21T16:04:09.154,24.4996,22.0812,77.3671
2026-07-21T16:04:09.161,24.5162,21.9637,77.23
2026-07-21T16:04:09.180,24.5445,21.4938,78.1503
2026-07-21T16:04:09.193,24.5465,21.8463,78.3853
2026-07-21T16:04:09.193,24.5475,21.7484,77.9741
2026-07-21T16:04:09.204,24.5572,21.5917,77.5825
2026-07-21T16:04:09.234,24.5808,21.6113,78.2482
2026-07-21T16:04:09.234,24.5808,22.6295,78.2874
2026-07-21T16:04:09.238,24.5808,22.3358,78.3853
2026-07-21T16:04:09.251,24.5994,22.2183,79.2273
2026-07-21T16:04:09.257,24.6034,21.905,80.128
2026-07-21T16:04:09.274,24.6277,22.3358,79.7755
2026-07-21T16:04:09.274,24.6277,22.0616,78.7965
2026-07-21T16:04:09.274,24.6372,21.8854,78.2091
2026-07-21T16:04:09.293,24.6392,21.7092,78.1699
2026-07-21T16:04:09.321,24.6699,22.1595,78.2678
2026-07-21T16:04:09.321,24.6699,22.277,78.542
2026-07-21T16:04:09.321,24.6766,22.0225,78.6399
2026-07-21T16:04:09.337,24.6766,21.7875,79.2469
2026-07-21T16:04:09.337,24.7112,22.1987,79.1294
2026-07-21T16:04:09.352,24.7112,22.1008,78.1503
2026-07-21T16:04:09.363,24.7112,21.6896,77.8958
2026-07-21T16:04:09.370,24.7229,21.1218,77.1517
2026-07-21T16:04:09.389,24.7543,20.7106,77.0342
2026-07-21T16:04:09.399,24.7563,20.691,76.8384
2026-07-21T16:04:09.405,24.7594,20.319,76.7209
2026-07-21T16:04:09.416,24.7688,19.9861,76.4664
2026-07-21T16:04:09.443,24.7985,20.4364,77.1517
2026-07-21T16:04:09.443,24.7985,20.8476,76.7014
2026-07-21T16:04:09.448,24.7985,20.5539,76.016
2026-07-21T16:04:09.461,24.8116,20.1427,75.5265
2026-07-21T16:04:09.466,24.8177,21.1609,76.2902
2026-07-21T16:04:09.472,24.8453,21.1609,76.0552
2026-07-21T16:04:09.486,24.8453,20.8476,75.2524
2026-07-21T16:04:09.492,24.8453,20.4756,75.7027
2026-07-21T16:04:09.508,24.8576,20.9847,75.4286
2026-07-21T16:04:09.534,24.8801,20.7693,74.8216
2026-07-21T16:04:09.534,24.8801,20.691,74.4692
2026-07-21T16:04:09.534,24.8801,20.6714,75.0174
2026-07-21T16:04:09.539,24.8952,20.8476,75.7223
2026-07-21T16:04:09.555,24.9245,21.3763,76.1139
2026-07-21T16:04:09.559,24.9245,20.6518,75.5853
2026-07-21T16:04:09.574,24.9245,20.3777,75.6636
2026-07-21T16:04:09.586,24.9245,20.8672,75.3699
2026-07-21T16:04:09.602,24.9578,21.1022,75.2132
2026-07-21T16:04:09.618,24.9722,20.8281,74.8412
2026-07-21T16:04:09.618,24.9722,20.3777,75.7027
2026-07-21T16:04:09.618,24.9722,20.9455,76.016
2026-07-21T16:04:09.636,24.9858,21.0826,76.1923
2026-07-21T16:04:09.651,25.0145,20.7302,75.6048
2026-07-21T16:04:09.651,25.0145,20.3777,75.0174
2026-07-21T16:04:09.666,25.0201,20.691,74.6062
2026-07-21T16:04:09.666,25.0201,21.0434,74.4887
2026-07-21T16:04:09.698,25.0517,21.1413,74.5083
2026-07-21T16:04:09.698,25.0517,20.6518,75.2328
2026-07-21T16:04:09.708,25.0578,20.7497,76.1139
2026-07-21T16:04:09.714,25.0676,20.7889,76.0356
2026-07-21T16:04:09.732,25.0996,20.691,75.037
2026-07-21T16:04:09.742,25.0996,20.4364,73.9209
2026-07-21T16:04:09.742,25.0996,20.3777,73.7251
2026-07-21T16:04:09.751,25.0996,20.6518,74.0971
2026-07-21T16:04:09.761,25.1328,20.7106,74.1559
2026-07-21T16:04:09.786,25.1328,20.4169,74.5083
2026-07-21T16:04:09.786,25.1328,20.6518,74.8999
2026-07-21T16:04:09.793,25.1473,20.5343,74.4496
2026-07-21T16:04:09.806,25.1473,20.5539,73.4705
2026-07-21T16:04:09.826,25.1802,20.2015,72.7656
2026-07-21T16:04:09.826,25.1802,20.2602,72.9614
2026-07-21T16:04:09.826,25.1802,20.5931,73.1181
2026-07-21T16:04:09.841,25.195,20.6322,72.4132
2026-07-21T16:04:09.857,25.2266,20.0448,71.6495
2026-07-21T16:04:09.874,25.2266,20.0448,71.3558
2026-07-21T16:04:09.874,25.2266,19.9861,69.5935
2026-07-21T16:04:09.889,25.2426,19.6728,67.2047
2026-07-21T16:04:09.889,25.2759,18.7525,63.5431
2026-07-21T16:04:09.907,25.278,17.793,60.0773
2026-07-21T16:04:09.907,25.278,17.8909,58.0801
2026-07-21T16:04:09.920,25.2842,18.0084,57.3164
2026-07-21T16:04:09.936,25.2923,17.7539,57.5905
2026-07-21T16:04:09.953,25.3262,17.4993,59.0591
2026-07-21T16:04:09.966,25.3291,18.2042,59.8032
2026-07-21T16:04:09.966,25.3291,18.2826,59.999
2026-07-21T16:04:09.978,25.3291,18.3609,59.764
2026-07-21T16:04:09.988,25.3372,18.263,60.7039
2026-07-21T16:04:09.999,25.3626,19.1245,62.192
2026-07-21T16:04:10.016,25.3692,19.5945,64.0522
2026-07-21T16:04:10.016,25.3692,19.6336,65.6774
2026-07-21T16:04:10.023,25.3692,19.5945,67.9096
2026-07-21T16:04:10.045,25.4008,20.1427,68.125
2026-07-21T16:04:10.056,25.414,20.1036,67.0676
2026-07-21T16:04:10.056,25.414,19.849,65.3837
2026-07-21T16:04:10.063,25.4165,19.4574,64.2872
2026-07-21T16:04:10.076,25.4165,19.4378,62.4857
2026-07-21T16:04:10.079,25.4572,18.9483,60.5668
2026-07-21T16:04:10.094,25.4572,18.028,57.1402
2026-07-21T16:04:10.094,25.4607,16.6769,53.9094
2026-07-21T16:04:10.110,25.4642,16.1874,49.6212
2026-07-21T16:04:10.127,25.4958,14.9147,45.2742
2026-07-21T16:04:10.142,25.5116,14.2098,42.435
2026-07-21T16:04:10.142,25.5144,14.151,43.5511
2026-07-21T16:04:10.158,25.5144,15.1105,45.0393
2026-07-21T16:04:10.158,25.5144,14.9734,45.4309
2026-07-21T16:04:10.189,25.5469,14.8168,45.0393
2026-07-21T16:04:10.189,25.5469,14.7384,43.8057
2026-07-21T16:04:10.189,25.5588,14.4056,42.0826
2026-07-21T16:04:10.208,25.5749,14.0923,39.4
2026-07-21T16:04:10.208,25.5749,13.172,36.2475
2026-07-21T16:04:10.237,25.6147,12.0755,32.9188
2026-07-21T16:04:10.240,25.6238,11.2531,28.8851
2026-07-21T16:04:10.240,25.6238,9.9803,23.7746
2026-07-21T16:04:10.268,25.6391,8.1201,18.0374
2026-07-21T16:04:10.268,25.6391,6.6907,12.5548
2026-07-21T16:04:10.268,25.6546,5.046,9.324
2026-07-21T16:04:10.284,25.6591,4.9089,6.6218
2026-07-21T16:04:10.308,25.7064,4.6348,5.1924
2026-07-21T16:04:10.308,25.7085,4.7523,5.2512
2026-07-21T16:04:10.317,25.7256,4.8893,5.4861
2026-07-21T16:04:10.317,25.7261,5.2418,5.1728
2026-07-21T16:04:10.333,25.7392,4.9285,4.8987
2026-07-21T16:04:10.333,25.7412,5.0655,4.8204
2026-07-21T16:04:10.353,25.7492,5.4572,5.212
2026-07-21T16:04:10.391,25.7928,5.9271,5.2316
2026-07-21T16:04:10.394,25.7928,5.7117,4.8987
2026-07-21T16:04:10.400,25.7959,5.6921,4.7421
2026-07-21T16:04:10.400,25.7979,5.7704,5.2512
2026-07-21T16:04:10.420,25.8019,6.2012,5.0749
