165.86609 152.47192 126.589966 137.86926 154.08325 101.61438 44.51294 36.657715 
70.495605 0.60424805 -91.8457 -104.937744 -103.829956 -100.20447 -86.8103 -64.75525 
3299.8992 3299.8992 3299.8992 3299.8992 3299.8992 3299.8992 3299.8992 3299.8992 
3299.8992 3299.8992 3299.8992 3299.8992 3299.8992 3299.8992 3299.8992 3299.8992 
3149.7437 3165.3533 3180.8623 3196.2708 3211.5784 3226.7852 3241.8914 3256.897 
3299.8992 3299.8992 3299.8992 3299.8992 3299.8992 3299.8992 3299.8992 3299.8992 
3088.5132 3105.2307 3121.9482 3138.565 3154.8796 3171.2952 3187.509 3203.421 
414.917 1098.0194 2606.2224 3299.8992 3299.8992 3299.8992 3299.8992 3299.8992 

7.1502686 -33.535767 -84.191895 -120.7489 -78.35083 -26.687622 21.350098 45.721436 42.90161 13.595581 -6.5460205 -26.989746 -51.461792 -94.56482 -108.462524 -103.22571 -70.999146 -19.23523 32.025146 47.03064 27.694702 23.565674 24.77417 30.715942 23.867798 -3.5247803 -34.84497 -32.025146 -12.588501 -34.542847 -41.189575 -8.358765 19.335938 57.20215 78.652954 18.933105 -97.787476 -167.276 -136.05652 -86.91101 -38.47046 1.0070801 8.963013 -8.963013 1.2084961 23.76709 60.424805 75.93384 92.85278 122.46094 108.86536 82.27844 38.36975 -25.076294 -90.83862 -123.2666 -156.39954 -153.98254 -120.84961 -68.28003 -0.20141602 54.281616 90.234375 109.67102 101.312256 66.56799 58.309937 42.800903 11.279297 -15.811157 -47.332764 -43.50586 -1.3092041 18.22815 6.5460205 -15.206909 -26.28479 -34.34143 -35.95276 0.80566406 81.57349 120.44678 132.53174 94.16199 21.24939 -15.106201 -19.335938 -6.9488525 -7.6538086 -52.56958 -78.45154 -56.799316 -32.93152 -21.75293 -27.79541 -24.069214 0.40283203 1.6113281 -37.564087 -82.47986 -117.82837 -92.65137 -61.834717 -44.110107 -59.61914 -61.73401 -33.33435 13.192749 73.71826 119.84253 146.83228 156.80237 153.98254 83.38623 2.2155762 -59.014893 -55.490112 -35.751343 -4.2297363 17.422485 -8.761597 25.579834 23.968506 24.975586 -22.055054 -25.680542 2.4169922 26.989746 40.081787 40.686035 24.975586 -3.5247803 -48.339844 -73.61755 -55.490112 -17.825317 8.157349 51.461792 88.42163 123.87085 165.76538 192.75513 174.42627 124.87793 63.043213 -49.44763 -138.87634 -162.84485 -176.33972 -210.0769 -204.33655 -157.50732 -89.52942 -17.422485 0.40283203 -33.032227 -92.248535 -114.505005 -111.18164 -82.88269 -57.70569 -29.910278 -3.5247803 0.40283203 0.80566406 0.9063721 -3.9276123 -19.134521 -7.6538086 10.070801 6.1431885 -10.372925 -14.300537 -17.623901 4.7332764 29.104614 47.43347 25.177002 -5.1361084 -23.162842 -21.853638 -8.056641 28.29895 53.67737 56.497192 40.38391 49.649048 74.12109 87.31384 76.135254 48.94409 22.457886 11.682129 30.615234 -11.380005 -33.9386 -10.876465 -1.9134521 -3.7261963 -3.4240723 
-74.82605 -93.96057 -101.412964 -99.801636 -107.55615 -94.86694 -78.25012 -63.848877 -34.643555 -10.171509 14.703369 22.155762 26.989746 19.335938 17.019653 -24.472046 -51.965332 -0.10070801 39.578247 54.0802 58.410645 73.31543 66.970825 66.16516 67.57507 52.468872 53.375244 78.149414 93.0542 114.70642 127.49634 99.70093 69.38782 59.1156 56.69861 35.147095 -1.6113281 -18.73169 -40.081787 -91.44287 -150.15564 -164.45618 -161.83777 -149.14856 -127.79846 -99.09668 -84.2926 -85.09827 -83.99048 -77.041626 -70.495605 -48.138428 -45.01648 -59.21631 -56.295776 -44.210815 -37.86621 -20.947266 5.4382324 27.593994 55.389404 70.19348 75.32959 79.86145 63.949585 51.663208 46.124268 32.730103 19.940186 6.2438965 0.70495605 12.387085 10.574341 25.177002 43.707275 63.043213 75.73242 74.020386 41.39099 32.226562 71.90552 95.67261 99.90234 74.32251 -11.279297 -45.41931 -60.827637 -37.36267 30.413818 67.57507 53.07312 31.420898 14.804077 5.6396484 -13.394165 -9.265137 9.365845 2.6184082 -22.659302 -49.749756 -71.40198 -64.151 -53.979492 -44.815063 -44.41223 -25.579834 17.825317 57.403564 87.91809 132.22961 154.08325 165.56396 164.25476 120.7489 24.975586 -83.78906 -125.88501 -122.66235 -79.45862 -58.71277 -106.54907 -122.66235 -123.16589 -81.47278 -31.118774 3.2226562 9.164429 13.192749 36.557007 73.013306 92.248535 61.029053 39.678955 46.224976 46.5271 48.94409 48.94409 44.311523 10.775757 13.696289 45.41931 90.13367 128.40271 125.68359 118.33191 85.80322 33.132935 3.8269043 -27.090454 -69.488525 -58.309937 -41.4917 -10.473633 19.940186 18.127441 -8.258057 -35.650635 -86.40747 -110.77881 -85.80322 -56.396484 -29.708862 -49.749756 -48.94409 -49.54834 -53.17383 -95.5719 -132.22961 -118.2312 -62.74109 -40.081787 -69.38782 -63.446045 -38.269043 -6.2438965 0.9063721 6.3446045 0.9063721 -38.067627 -73.71826 -78.45154 -59.921265 -40.48462 -24.27063 -40.38391 -85.702515 -72.9126 -21.350098 0.80566406 20.141602 18.933105 24.472046 25.680542 26.083374 -3.8269043 -6.7474365 5.1361084 16.415405 26.184082 43.304443 
3299.8992 3299.8992 3299.8992 3299.8992 3299.8992 3299.6978 3283.9873 3267.3706 3269.284 3286.3037 3299.8992 -3280.3618 -3263.9465 -3247.8333 -3231.72 -3215.9087 -3200.1982 -3184.5886 -3169.1802 -3153.8726 -3138.6658 -3124.063 -3108.6548 -3094.4548 -3079.651 -3065.048 -3050.5461 -2977.0293 -501.32446 2683.5662 3299.8992 3299.8992 3299.8992 3299.8992 3299.8992 3299.8992 3299.8992 3299.8992 3299.8992 3299.8992 3299.8992 3299.8992 3299.8992 3299.8992 3299.8992 3299.3958 3283.5845 3265.9607 3270.996 3288.0156 3299.8992 -3278.7505 -3262.3352 -3246.121 -3230.1086 -3214.3982 -3198.587 -3182.9773 -3167.5688 -3152.362 -3137.155 -3121.8474 -3107.3455 -3092.34 -3077.6367 -3063.3362 -3049.0356 -2857.489 -257.8125 2813.4795 3299.8992 3299.8992 3299.8992 3299.8992 3299.8992 3299.8992 3299.8992 3299.8992 3299.8992 3299.8992 3299.8992 3299.8992 3299.8992 3299.8992 3299.8992 3298.993 3283.2825 3204.9316 3273.5137 3290.4326 -3292.8496 -3276.4343 -3260.0188 -3243.9055 -3227.7922 -3212.0818 -3196.2708 -3180.7617 -3165.2527 -3150.0457 -3134.9395 -3120.236 -3105.0293 -3090.628 -3076.126 -3061.5234 -3046.9207 -2754.666 64.151 3159.915 3299.8992 3299.8992 3299.8992 3299.8992 3299.8992 3299.8992 3299.8992 3299.8992 3299.8992 3299.8992 3299.8992 3299.8992 3299.8992 3299.8992 3299.8992 3297.7844 3282.1746 2989.517 3274.0173 3291.1377 -3292.3462 -3275.6287 -3259.4146 -3243.3013 -3227.2888 -3211.377 -3195.767 -3180.1575 -3164.8499 -3149.4414 -3134.3352 -3119.7327 -3105.0293 -3089.8223 -3075.6226 -3060.9192 -3043.1946 -2029.1656 828.12195 3299.8992 3299.8992 3299.8992 3299.8992 3299.8992 3299.8992 3299.8992 3299.8992 3299.8992 3299.8992 3299.8992 3299.8992 3299.8992 3299.8992 3299.8992 3299.8992 3292.044 3276.4343 2257.8735 3271.1975 3288.217 3299.8992 -3278.65 -3262.3352 -3246.121 -3230.2092 -3214.2974 -3198.6877 -3182.9773 -3167.5688 -3152.362 -3137.2559 -3122.4517 -3107.3455 -3092.8435 -3078.0396 -3063.6382 -2851.4465 -2439.8528 -737.0819 2079.9224 3299.8992 3299.8992 3299.8992 3299.8992 3299.8992 3299.8992 3299.8992 3299.8992 3299.8992 3299.8992 
3299.8992 3299.8992 3299.8992 3299.8992 3290.332 3275.2258 3259.616 3241.388 3247.3296 3263.3423 3279.0527 3294.5618 -3290.0298 -3274.823 -3259.8174 -3244.812 -3230.0078 -3215.3044 -3200.702 -3186.4014 -3172.1008 -3157.6995 -3143.7012 -3129.8035 -3116.0063 -3102.5115 -3088.6138 -2335.3179 -41.89453 2378.9246 3299.8992 3299.8992 3299.8992 3299.8992 3299.8992 3299.8992 3299.8992 3299.8992 3299.8992 3299.8992 3299.8992 3299.8992 3299.8992 3299.8992 3292.9504 3277.9448 3262.4358 3228.4973 3251.6602 3267.7734 3283.383 3298.892 -3285.8 -3270.5933 -3255.487 -3240.7837 -3225.9795 -3211.377 -3196.6736 -3182.2722 -3168.0725 -3153.6711 -3139.7734 -3125.8757 -3112.0789 -3098.584 -3084.7869 -2153.2378 469.90356 2885.9893 3299.8992 3299.8992 3299.8992 3299.8992 3299.8992 3299.8992 3299.8992 3299.8992 3299.8992 3299.8992 3299.8992 3299.8992 3299.8992 3299.8992 3291.742 3276.6357 3261.2273 2949.939 3252.9692 3268.982 3284.5916 3299.8992 -3284.6924 -3269.3848 -3254.2786 -3239.4744 -3224.6704 -3210.0676 -3195.5657 -3181.1646 -3166.864 -3152.4626 -3138.565 -3124.6672 -3110.8704 -3097.3755 -3083.6792 -1965.6189 608.17566 3021.5422 3299.8992 3299.8992 3299.8992 3299.8992 3299.8992 3299.8992 3299.8992 3299.8992 3299.8992 3299.8992 3299.8992 3299.8992 3299.8992 3299.8992 3291.0369 3275.83 3260.321 2690.213 3253.5735 3269.4854 3285.2966 3299.8992 -3283.9873 -3268.7805 -3253.775 -3238.87 -3224.1667 -3209.4634 -3194.9614 -3180.5603 -3166.2598 -3151.8584 -3138.0615 -3124.1638 -3110.4675 -3096.8718 -3083.1755 -1871.0541 757.3242 3170.691 3299.8992 3299.8992 3299.8992 3299.8992 3299.8992 3299.8992 3299.8992 3299.8992 3299.8992 3299.8992 3299.8992 3299.8992 3299.8992 3299.8992 3290.1306 3274.9236 3259.314 2094.4243 3255.3862 3271.399 3287.0085 3299.8992 -3282.1746 -3266.9678 -3251.9622 -3237.1582 -3222.354 -3207.852 -3193.2495 -3178.8481 -3164.6484 -3150.247 -3136.4502 -3122.5525 -3108.7554 -3094.757 -3081.4636 -1364.7949 1159.7534 3299.8992 3299.8992 3299.8992 3299.8992 3299.8992 3299.8992 3299.8992 3299.8992 3299.8992 3299.8992 3299.8992 
3271.8018 3286.7065 3299.8992 -3283.6853 -3268.881 -3254.48 -3240.3809 -3093.1458 3299.8992 3299.8992 3299.8992 3299.8992 3299.8992 3298.6907 3283.6853 3269.0825 3254.2786 3239.4744 3224.6704 3209.8662 3195.1628 3180.4595 3165.6555 3151.1536 3137.155 3122.754 2991.3298 1379.2969 -357.61414 -1656.8481 -2971.591 3131.4148 3147.1252 3162.8357 3178.3447 3193.753 3209.0605 3224.2676 3239.4744 3254.48 3269.4854 3284.3901 3298.993 -3286.3037 -3272.0032 -3257.5012 -3242.697 -2937.2498 3299.8992 3299.8992 3299.8992 3299.8992 3299.8992 3294.058 3279.4556 3264.6514 3250.0488 3235.0432 3220.2393 3205.435 3190.8325 3176.0283 3161.7278 3147.2258 3132.8247 3118.5242 2906.0303 1176.2695 -486.01685 -1739.7308 -3096.6704 3129.8035 3145.514 3161.1235 3176.7334 3192.1416 3207.4492 3222.6562 3237.6616 3252.7678 3267.6726 3282.6782 3297.6836 -3287.7136 -3273.2117 -3258.8103 -3243.9055 -2596.9573 3299.8992 3299.8992 3299.8992 3299.8992 3299.8992 3290.5334 3275.83 3260.8245 3246.0205 3231.2163 3216.4124 3201.8096 3187.1062 3172.4028 3158.0017 3143.4998 3129.602 3115.2007 2640.7654 852.594 -809.28955 -2058.3708 3192.8467 3132.9253 3148.6357 3164.2456 3179.7546 3195.1628 3210.4705 3225.6775 3240.7837 3255.789 3270.8953 3285.5986 3299.8992 -3285.1958 -3270.291 -3255.789 -3241.7908 -2220.4102 3299.8992 3299.8992 3299.8992 3299.8992 3299.8992 3291.1377 3276.4343 3261.6301 3246.9268 3232.1228 3217.3186 3202.5146 3187.9119 3173.3093 3158.4045 3144.2046 3129.602 3115.3015 2721.936 969.21387 -684.4116 -1990.3931 3273.0103 3131.1125 3146.9238 3162.5334 3178.0425 3193.451 3208.7585 3223.9653 3239.0715 3254.1777 3269.0825 3283.8867 3298.892 -3286.4043 -3271.701 -3257.199 -3243.2007 -1894.2169 3299.8992 3299.8992 3299.8992 3299.8992 3299.8992 3288.1165 3273.413 3258.609 3243.9055 3229.1016 3214.2974 3199.594 3184.8906 3170.288 3155.5847 3141.0828 3127.0842 3112.1794 2550.531 621.0663 -983.1116 -2258.377 3140.982 3133.9324 3149.7437 3165.2527 3180.7617 3196.17 3211.377 3226.5837 3241.69 3256.6956 
3299.8992 3299.8992 3299.8992 3299.8992 3299.8992 3299.8992 3299.8992 3299.8992 -1008.7921 -3196.3713 -3180.7617 -3165.3533 -3150.0457 -3134.9395 -3120.0347 -3105.2307 -3090.5273 -3076.0254 -3061.5234 -3047.223 -3033.023 -3019.0247 -3004.8247 -2991.1284 -2977.4321 -2963.8367 -2950.1404 -2906.1309 -1697.0306 -22.860718 1182.8156 2527.066 3299.8992 3299.8992 3299.8992 3299.8992 3299.8992 3299.8992 3299.8992 3299.8992 3299.8992 3299.8992 3299.8992 3299.8992 3299.8992 3299.8992 3299.8992 3299.8992 -1471.4447 -3191.1345 -3175.525 -3160.1165 -3144.8088 -3129.904 -3114.9993 -3100.0945 -3085.492 -3070.8892 -3056.6895 -3042.288 -3028.189 -3014.0898 -2999.8901 -2986.1938 -2972.5981 -2959.0027 -2945.407 -2715.4907 -1481.5155 174.32556 1485.7452 2948.6296 3299.8992 3299.8992 3299.8992 3299.8992 3299.8992 3299.8992 3299.8992 3299.8992 3299.8992 3299.8992 3299.8992 3299.8992 3299.8992 3299.8992 3299.8992 3299.8992 -1887.1674 -3190.933 -3175.2227 -3159.8145 -3144.6074 -3129.602 -3114.6973 -3099.893 -3085.2905 -3070.7886 -3056.3872 -3041.986 -3027.887 -3013.7878 -3000.1921 -2986.093 -2972.2961 -2958.5999 -2945.105 -2699.6794 -1235.2844 487.12463 1623.2117 3008.7524 3299.8992 3299.8992 3299.8992 3299.8992 3299.8992 3299.8992 3299.8992 3299.8992 3299.8992 3299.8992 3299.8992 3299.8992 3299.8992 3299.8992 3299.8992 3299.8992 -2654.965 -3190.933 -3175.3235 -3160.0159 -3144.8088 -3129.7026 -3114.7979 -3100.0945 -3085.391 -3070.7886 -3056.488 -3042.1875 -3028.0884 -3013.9893 -3000.3936 -2986.2944 -2972.3967 -2958.8013 -2945.2056 -2566.04 -1119.0674 553.79333 1852.9266 3095.3613 3299.8992 3299.8992 3299.8992 3299.8992 3299.8992 3299.8992 3299.8992 3299.8992 3299.8992 3299.8992 3299.8992 3299.8992 3299.8992 3299.8992 3299.8992 3291.641 -2972.1953 -3192.041 -3176.4312 -3161.023 -3145.9167 -3130.8105 -3115.9058 -3101.2024 -3086.499 -3071.997 -3057.5957 -3043.2952 -3029.0955 -3015.097 -3000.9978 -2987.3015 -2973.6052 -2959.909 -2946.515 -2790.216 -1515.7562 261.84082 1636.3037 2994.5525 3299.8992 3299.8992 3299.8992 3299.8992 3299.8992 3299.8992 3299.8992 3299.8992 
3219.3328 3235.3455 3251.4587 3266.9678 3282.4768 3298.0864 -3286.4043 -3037.7563 2245.1843 3299.8992 3296.7773 3281.6711 3266.565 3251.358 3236.2517 3220.944 3205.6365 3190.2283 3174.8198 3159.613 3144.104 3128.897 3113.9922 3099.0874 3084.1826 3065.9546 2543.7834 830.1361 -34.94568 -981.60095 -1900.763 -2759.198 3093.2463 3102.713 3119.5312 3135.9465 3152.4626 3168.8782 3184.9915 3201.1047 3217.1172 3232.9285 3249.0417 3264.7522 3280.2612 3295.7703 -3288.7207 -2842.6848 2605.719 3299.8992 3292.6482 3277.6428 3262.4358 3247.229 3232.2234 3216.9158 3201.6082 3186.2 3170.8923 3155.3833 3140.1763 3125.07 3109.6619 3095.059 3080.5571 3062.5305 2547.9126 803.5492 -146.42944 -1123.2971 -2115.7744 -2935.739 3085.5925 3102.411 3119.0276 3135.3423 3152.0598 3168.274 3184.3872 3200.601 3216.513 3232.5256 3247.9338 3264.047 3279.657 3295.3674 -3289.224 -2638.147 2782.965 3299.8992 3290.8354 3275.6287 3260.5225 3245.3154 3230.2092 3215.0024 3199.6948 3184.3872 3168.8782 3153.5706 3138.3635 3123.2573 3107.6477 3093.2463 3078.3416 3060.4155 2480.0354 684.3109 -236.76453 -1197.821 -2149.6123 -2920.6328 3085.2905 3102.2095 3118.927 3135.443 3151.7578 3168.173 3184.3872 3200.3997 3200.3997 3200.3997 3200.3997 3200.3997 3200.3997 3200.3997 3200.3997 3200.3997 3200.3997 3200.3997 3200.3997 3200.3997 3200.3997 3200.3997 3200.3997 3200.3997 3200.3997 3200.3997 3200.3997 3200.3997 3136.2488 3121.1426 3105.7341 3091.1316 3076.5288 3057.6965 2392.218 577.66113 -322.36633 -1163.5803 -2024.4324 -2737.5457 3150.247 3099.4902 3116.0063 3132.8247 3149.1394 3165.454 3181.7688 3197.7812 3213.693 3229.7058 3245.2148 3261.3281 3276.9377 3292.6482 -3291.9434 -2065.924 3299.8992 3298.4893 3283.786 3268.6797 3253.473 3238.4673 3223.1597 3208.0535 3192.6453 3177.4382 3162.03 3146.6216 3131.5154 3116.51 3101.5044 3086.5996 3071.6948 2987.1 2016.3757 281.8817 -645.3369 -1598.0347 -2498.1628 -3208.0535 3090.4265 3107.3455 3123.8616 3140.3777 3156.7932 3173.007 3189.2212 3205.2336 
3299.8992 3299.8992 3299.8992 3299.8992 3299.8992 3299.8992 3299.8992 2603.302 -183.79211 -2125.4424 -3158.908 -3143.8018 -3128.9978 -3114.2944 -3099.591 -3085.2905 -3070.99 -3056.79 -3042.7917 -3028.6926 -3014.795 -3000.9978 -2921.338 -2534.4177 -2096.338 -1652.417 -1341.7328 -860.5499 -460.94055 -78.25012 331.9336 493.87207 735.7727 1463.5895 2916.806 3299.8992 3299.8992 3299.8992 3299.8992 3299.8992 3299.8992 3299.8992 3299.8992 3299.8992 3299.8992 3299.8992 3299.8992 2962.5273 700.92773 -1012.82043 -2303.2927 -2896.161 -2907.2388 -2963.2324 -2977.7344 -2890.6218 -2804.013 -2678.2288 -2599.475 -2516.4917 -2448.715 -2319.5068 -1894.4183 -1384.6344 -998.4192 -604.8523 -389.9414 59.21631 313.2019 680.484 816.037 934.1675 1076.1658 1643.5547 2865.8477 3299.8992 3299.8992 3299.8992 3299.8992 3299.8992 3299.8992 3299.8992 3299.8992 3299.8992 3299.8992 3299.8992 3287.6128 1508.3038 -1461.0718 -2638.5498 -2818.0115 -2992.035 -3144.2046 -3140.1763 -3125.6743 -3111.2732 -3096.9727 -3082.7727 -3068.6736 -3054.4739 -3040.5762 -3026.6785 -3012.9822 -2998.5808 -2501.2847 -1882.9376 -1547.58 -966.49475 -481.7871 27.896118 527.50854 764.17236 1003.15247 1866.2201 3299.8992 3299.8992 3299.8992 3299.8992 3299.8992 3299.8992 3299.8992 3299.8992 3299.8992 3299.8992 3299.8992 3299.8992 3299.8992 2284.7625 -321.7621 -1999.7589 -3183.783 -3168.4753 -3153.8726 -3138.9678 -3124.1638 -3109.6619 -3095.2605 -3081.0608 -3066.7603 -3052.8625 -3038.7634 -3021.643 -2442.7734 -1912.6465 -1560.7727 -1304.4708 -985.32715 -564.26697 -157.10449 204.9408 692.16614 741.7145 995.9015 1900.058 3299.8992 3299.8992 3299.8992 3299.8992 3299.8992 3299.8992 3299.8992 3299.8992 3299.8992 3299.8992 3299.8992 3299.8992 3299.8992 1912.2437 -764.3738 -2465.332 -3195.3643 -3180.258 -3165.3533 -3150.5493 -3135.9465 -3121.4446 -3107.0435 -3092.642 -3078.6438 -3064.5447 -3050.4456 -3036.447 -2753.7598 -2164.4165 -1869.7449 -1552.6154 -1285.8398 -935.27527 -633.9569 -272.31445 307.46155 596.2921 869.61365 1783.3374 3160.2173 3299.8992 3299.8992 3299.8992 3299.8992 3299.8992 

-10.372925 -12.387085 -10.070801 -0.10070801 6.9488525 36.85913 72.509766 73.21472 22.76001 0.40283203 15.811157 39.175415 52.368164 52.468872 80.4657 96.17615 86.91101 42.599487 -6.2438965 -14.401245 43.707275 72.71118 50.152588 -65.05737 -143.20679 -142.40112 -97.08252 -86.00464 -103.326416 -117.42554 -72.20764 -20.544434 35.549927 82.58057 97.08252 98.794556 113.59863 116.015625 90.03296 28.701782 -46.627808 -75.73242 -48.94409 -48.54126 -71.40198 -64.956665 -68.28003 -81.170654 -79.76074 -85.702515 -77.645874 -45.117188 -21.75293 -10.171509 17.120361 52.166748 95.16907 141.99829 176.44043 177.64893 160.83069 125.079346 76.7395 -5.4382324 -97.283936 -191.34521 -191.84875 -131.72607 -104.837036 -100.00305 -70.495605 -23.968506 12.185669 33.535767 26.586914 28.500366 23.867798 6.4453125 -14.501953 -36.557007 -36.557007 -36.557007 -36.557007 -36.557007 -36.557007 -36.557007 -36.557007 -36.557007 -36.557007 -36.557007 -36.557007 -36.557007 -36.557007 -36.557007 -36.557007 -36.557007 -36.557007 -36.557007 -36.557007 -36.557007 -64.85596 -65.86304 -63.24463 -50.354004 -65.56091 -47.735596 -11.883545 26.989746 61.6333 75.83313 78.85437 54.483032 13.998413 -4.0283203 -7.3516846 5.3375244 14.804077 38.87329 50.454712 65.25879 72.006226 51.461792 13.696289 5.2368164 17.825317 6.2438965 -21.551514 -38.47046 -34.039307 -23.968506 -13.394165 -2.8198242 -9.063721 -5.2368164 7.6538086 9.365845 11.883545 10.372925 0.50354004 -8.056641 9.466553 42.297363 71.60339 68.28003 44.714355 39.175415 58.007812 64.85596 46.325684 5.2368164 -45.620728 -79.2572 -101.21155 -98.59314 -75.128174 -37.96692 -23.666382 -16.21399 -20.947266 -20.443726 -14.401245 -24.472046 -41.290283 -45.01648 -32.226562 -15.609741 -10.473633 -11.077881 -6.3446045 0 10.574341 31.924438 51.965332 50.857544 58.61206 53.979492 55.792236 43.807983 39.98108 53.07312 47.735596 37.060547 24.169922 6.8481445 -40.786743 -64.151 -79.45862 -83.99048 -81.87561 -37.161255 17.019653 63.24463 83.78906 76.23596 33.43506 43.90869 76.135254 103.02429 104.434204 111.483765 116.922 124.27368 115.91492 73.71826 9.063721 -11.077881 -8.258057 9.466553 13.595581 -40.182495 -107.05261 -128.60413 -138.87634 -148.24219 -119.13757 -106.64978 -145.72449 -163.34839 -175.63477 -133.2367 
35.44922 15.911865 -20.040894 -29.30603 -40.38391 -20.343018 6.3446045 14.300537 8.358765 5.7403564 18.832397 24.77417 28.097534 30.514526 40.585327 35.247803 26.687622 12.185669 14.904785 27.090454 52.06604 39.47754 20.74585 -2.4169922 -21.75293 -43.90869 -36.758423 -40.081787 -61.23047 -49.649048 -14.300537 5.1361084 11.480713 23.968506 4.3304443 -7.5531006 6.8481445 31.018066 58.914185 59.921265 54.18091 38.974 23.565674 14.904785 9.768677 11.077881 -17.72461 -55.69153 -73.61755 -66.76941 -42.49878 5.1361084 40.786743 60.72693 83.28552 96.47827 106.24695 111.28235 109.469604 109.57031 128.2013 115.41138 106.04553 94.56482 99.70093 45.01648 -15.710449 -53.17383 -87.61597 -64.75525 -33.032227 -20.24231 7.6538086 19.73877 12.689209 9.970093 20.443726 43.00232 64.05029 41.693115 66.26587 91.44287 116.11633 118.029785 98.39172 76.33667 27.191162 -44.41223 -98.19031 -116.519165 -120.14465 -103.125 -104.63562 -130.01404 -112.08801 -90.737915 -61.12976 -36.154175 -10.574341 -4.4311523 -9.063721 -1.7120361 -8.660889 -24.069214 -33.233643 19.033813 65.3595 90.13367 83.08411 88.220215 88.11951 35.549927 -57.000732 -165.86609 -228.9093 -271.00525 -222.96753 -158.11157 -122.36023 -87.11243 -63.848877 -60.62622 -55.288696 -54.281616 -24.069214 -30.31311 -45.52002 -43.40515 -21.551514 -15.509033 -9.365845 -12.588501 -28.500366 -14.099121 5.3375244 23.364258 -0.10070801 3.4240723 24.77417 38.47046 39.678955 53.07312 58.813477 62.74109 47.43347 50.152588 56.295776 55.08728 53.67737 53.778076 53.878784 37.36267 28.399658 41.189575 49.850464 81.06995 72.006226 49.0448 42.196655 32.226562 15.710449 -34.44214 -100.10376 -112.994385 -85.09827 -31.82373 -7.3516846 15.609741 15.811157 1.0070801 -7.1502686 17.523193 39.779663 40.585327 34.744263 13.394165 -0.30212402 3.0212402 13.394165 17.422485 24.77417 17.926025 3.9276123 -5.1361084 -6.8481445 -3.2226562 -1.4099121 -5.8410645 24.169922 31.82373 14.703369 10.977173 29.80957 22.76001 2.7191162 2.2155762 4.5318604 -6.3446045 -11.984253 -9.970093 -14.703369 -22.25647 -12.084961 -9.970093 -9.164429 23.162842 31.32019 46.02356 52.56958 68.17932 98.69385 121.051025 111.8866 82.177734 77.545166 34.039307 -5.4382324 -43.00232 -107.85828 -124.67651 
3299.8992 3299.8992 3299.8992 3299.8992 3299.8992 3299.8992 3290.332 2008.7219 3286.6057 3299.8992 -3279.8584 -3263.4429 -3247.229 -3231.1157 -3215.2039 -3199.3926 -3183.783 -3168.274 -3152.9663 -3137.86 -3122.8545 -3108.3525 -3093.045 -3078.9458 -3064.3433 -3049.8413 -3035.44 -2130.5786 1006.57654 3299.8992 3299.8992 3299.8992 3299.8992 3299.8992 3299.8992 3299.8992 3299.8992 3299.8992 3299.8992 3299.8992 3299.8992 3299.8992 3299.8992 3299.8992 3299.8992 3299.8992 3284.1887 1298.7305 3282.8796 3299.7986 -3283.484 -3267.1692 -3250.8545 -3234.8418 -3218.93 -3203.018 -3187.4084 -3171.8994 -3156.5918 -3141.3848 -3126.3794 -3111.1724 -3096.8718 -3081.7656 -3067.2637 -3052.8625 -3038.7634 -1959.1736 1243.039 3299.8992 3299.8992 3299.8992 3299.8992 3299.8992 3299.8992 3299.8992 3299.8992 3299.8992 3299.8992 3299.8992 3299.8992 3299.8992 3299.8992 3299.8992 3299.8992 3295.2666 3279.3547 412.80212 3280.7646 3297.6836 -3285.5986 -3269.284 -3252.9692 -3236.856 -3220.944 -3205.133 -3189.5232 -3174.0142 -3158.7065 -3143.399 -3128.3936 -3113.7908 -3098.584 -3084.384 -3069.6807 -3055.1787 -3040.7776 -1862.796 1160.3577 3299.8992 3299.8992 3299.8992 3299.8992 3299.8992 3299.8992 3299.8992 3299.8992 3299.8992 3299.8992 3299.8992 3299.8992 3299.8992 3299.8992 3299.8992 3299.8992 3293.2524 3277.0386 -545.7367 3280.966 3297.6836 -3285.5986 -3269.1833 -3252.8687 -3236.7554 -3220.8435 -3205.133 -3189.5232 -3174.0142 -3158.7065 -3143.399 -3128.3936 -3112.985 -3098.6846 -3083.5784 -3069.1772 -3054.8767 -3040.6768 -1856.3507 1170.5292 3299.8992 3299.8992 3299.8992 3299.8992 3299.8992 3299.8992 3299.8992 3299.8992 3299.8992 3299.8992 3299.8992 3299.8992 3299.8992 3299.8992 3299.8992 3299.8992 3293.4539 3277.4414 -1420.1843 3283.383 3299.8992 -3283.1816 -3266.7664 -3250.5522 -3234.5398 -3218.527 -3202.716 -3187.1062 -3171.698 -3156.3904 -3141.0828 -3126.0771 -3111.4746 -3096.3684 -3082.1685 -3067.566 -3052.9631 -3038.562 -1404.776 1682.6294 3299.8992 3299.8992 3299.8992 3299.8992 3299.8992 3299.8992 3299.8992 3299.8992 3299.8992 3299.8992 3299.8992 3299.8992 3299.8992 3299.8992 3299.8992 3299.8992 3290.4326 3274.3193 -2591.9219 3283.081 3299.8992 -3283.5845 -3267.0684 -3250.955 -3234.8418 -3218.8293 -3203.119 -3187.6099 -3172.1008 -3156.6924 -3141.5862 
3299.8992 3299.8992 3299.8992 3299.8992 3287.0085 3272.3052 3256.3933 1756.6498 3253.775 3269.5862 3285.3972 3299.8992 -3283.8867 -3268.7805 -3253.6743 -3238.87 -3224.0662 -3209.4634 -3194.9614 -3180.5603 -3166.3604 -3152.362 -3138.0615 -3124.1638 -3110.4675 -3096.469 -3083.075 -1356.0333 1139.914 3299.8992 3299.8992 3299.8992 3299.8992 3299.8992 3299.8992 3299.8992 3299.8992 3299.8992 3299.8992 3299.8992 3299.8992 3299.8992 3299.8992 3299.8992 3285.3972 3270.6938 3254.782 895.3949 3254.8828 3270.7947 3286.4043 3299.8992 -3282.8796 -3267.7734 -3252.7678 -3237.863 -3223.059 -3208.4563 -3193.9543 -3179.5532 -3165.3533 -3151.4556 -3137.155 -3123.2573 -3109.4604 -3095.5627 -3082.1685 -1170.1263 1464.798 3299.8992 3299.8992 3299.8992 3299.8992 3299.8992 3299.8992 3299.8992 3299.8992 3299.8992 3299.8992 3299.8992 3299.8992 3299.8992 3299.8992 3298.0864 3283.081 3268.4783 3252.365 150.9613 3254.8828 3270.6938 3286.3037 3299.8992 -3282.8796 -3267.6726 -3252.6672 -3237.863 -3223.059 -3208.5571 -3194.0552 -3179.6538 -3165.3533 -3151.5564 -3137.0544 -3123.3582 -3109.4604 -3095.5627 -3082.2693 -1316.6565 1286.142 3299.8992 3299.8992 3299.8992 3299.8992 3299.8992 3299.8992 3299.8992 3299.8992 3299.8992 3299.8992 3299.8992 3299.8992 3299.8992 3299.8992 3299.8992 3285.0952 3270.3918 3254.1777 -656.2134 3258.9111 3274.823 3290.332 3299.8992 -3278.952 -3263.8457 -3248.8403 -3234.0361 -3219.2322 -3204.7302 -3190.3289 -3175.9277 -3161.7278 -3147.83 -3133.6304 -3119.6318 -3105.835 -3092.0378 -3078.6438 -1200.0366 1421.0907 3299.8992 3299.8992 3299.8992 3299.8992 3299.8992 3299.8992 3299.8992 3299.8992 3299.8992 3299.8992 3299.8992 3299.8992 3299.8992 3299.8992 3299.8992 3287.0085 3272.2046 3255.9905 -1415.0482 3262.738 3278.3477 3293.9575 3299.8992 -3275.4272 -3260.2202 -3245.3154 -3230.5115 -3215.808 -3201.2053 -3186.7034 -3172.3022 -3158.3037 -3144.406 -3130.1055 -3116.3086 -3102.5115 -3089.218 -2893.1396 -370.00122 2173.3794 3299.8992 3299.8992 3299.8992 3299.8992 3299.8992 3299.8992 3299.8992 3299.8992 3299.8992 3299.8992 3299.8992 3299.8992 3299.8992 3299.8992 3296.7773 3281.9731 3266.7664 3251.056 -2260.9954 3259.9182 3275.7292 3291.339 3299.8992 -3278.1462 -3262.9395 -3248.0347 -3233.13 -3218.527 -3203.9246 -3189.4226 -3175.122 
3271.701 3286.5051 3299.8992 -3284.1887 -3269.5862 -3254.8828 -3240.985 -1444.9585 3299.8992 3299.8992 3299.8992 3299.8992 3299.8992 3288.1165 3273.3123 3258.609 3243.9055 3229.1016 3214.2974 3199.4934 3184.8906 3170.3887 3155.484 3141.2842 3126.6814 3111.3738 2511.4563 536.57227 -1122.7936 -2355.258 3119.7327 3135.5437 3151.2542 3166.7632 3182.4736 3197.882 3212.9883 3228.195 3243.0999 3258.307 3273.2117 3288.0156 3299.8992 -3282.1746 -3267.7734 -3253.2715 -3238.7695 -1071.4325 3299.8992 3299.8992 3299.8992 3299.8992 3299.8992 3288.0156 3273.3123 3258.5083 3243.704 3228.9001 3214.096 3199.3926 3184.6892 3170.1873 3155.7861 3141.2842 3127.3865 3110.1653 2389.2974 465.3717 -1194.397 -2412.3596 3121.8474 3137.6587 3153.4697 3168.9788 3184.4878 3199.7954 3215.103 3230.31 3245.3154 3260.4216 3275.3264 3290.1306 3299.8992 -3280.4626 -3266.2627 -3251.8616 -3237.0574 -29.406738 3299.8992 3299.8992 3299.8992 3299.8992 3299.8992 3285.8 3270.996 3256.2927 3241.5894 3226.6846 3212.0818 3197.3784 3182.776 3168.173 3153.772 3139.1692 3124.8687 3060.5164 2520.822 871.225 -602.83813 -1796.6309 -3070.99 3299.8992 3141.3848 3157.0952 3172.6042 3188.0127 3203.421 3218.628 3233.7341 3248.7395 3263.8457 3278.7505 3293.6553 -3291.5405 -3276.7363 -3262.1338 -3221.2463 -631.5399 3299.8992 3299.8992 3299.8992 3299.8992 3293.3533 3278.65 3264.047 3249.2432 3234.5398 3219.7356 3204.9316 3190.3289 3175.6255 3161.1235 3146.4202 3132.1196 3117.819 3099.7925 1967.0288 165.66467 -1182.7148 -2373.6877 3114.9993 3131.012 3146.6216 3162.2314 3177.6396 3193.048 3208.3557 3223.5625 3238.568 3253.5735 3268.6797 3283.484 3298.4893 -3287.0085 -3272.1038 -3257.6018 -3243.704 789.34937 3299.8992 3299.8992 3299.8992 3299.8992 3291.339 3276.8372 3261.8315 3247.229 3232.5256 3217.7214 3203.119 3188.4155 3173.7122 3159.3108 3144.6074 3130.1055 3116.3086 3098.886 2183.853 260.73303 -1344.5526 -2616.7969 3114.4958 3130.4077 3146.0173 3161.7278 3177.2368 3192.5444 3207.7515 3222.9583 3238.0645 3253.07 3267.9749 3282.9802 3297.4822 -3287.7136 -3273.413 -3258.9111 -3244.2078 1113.327 3299.8992 3299.8992 3299.8992 3299.8992 3288.8213 3274.2188 3259.5154 3244.812 3230.0078 3215.2039 3200.702 3185.9985 
3299.8992 3299.8992 3299.8992 3299.8992 3299.8992 3299.8992 3299.8992 3104.727 -3201.9104 -3185.9985 -3170.4895 -3155.081 -3139.9749 -3124.9695 -3109.9639 -3095.2605 -3080.7585 -3066.156 -3051.7546 -3037.555 -3023.4558 -3009.3567 -2995.3582 -2981.6619 -2967.9656 -2954.4707 -2940.8752 -2493.5303 -1049.5789 558.2245 1704.7852 3067.868 3299.8992 3299.8992 3299.8992 3299.8992 3299.8992 3299.8992 3299.8992 3299.8992 3299.8992 3299.8992 3299.8992 3299.8992 3299.8992 3299.8992 3299.8992 2883.3708 -3200.0977 -3184.2864 -3168.576 -3153.2683 -3138.162 -3123.056 -3108.252 -3093.4478 -3078.9458 -3064.4438 -3050.1433 -3035.8428 -3021.7437 -3007.7454 -2994.049 -2979.95 -2966.2537 -2952.658 -2939.264 -2281.2378 -777.3651 843.22815 2079.5195 3299.8992 3299.8992 3299.8992 3299.8992 3299.8992 3299.8992 3299.8992 3299.8992 3299.8992 3299.8992 3299.8992 3299.8992 3299.8992 3299.8992 3299.8992 3299.8992 2440.8599 -3201.3062 -3185.3943 -3169.7844 -3154.5776 -3139.3706 -3124.3652 -3109.4604 -3094.757 -3080.1543 -3065.7532 -3051.3518 -3037.0513 -3023.053 -3008.853 -2995.3582 -2981.3599 -2967.5627 -2953.9673 -2940.4724 -2216.3818 -623.7854 1072.7417 2365.4297 3299.8992 3299.8992 3299.8992 3299.8992 3299.8992 3299.8992 3299.8992 3299.8992 3299.8992 3299.8992 3299.8992 3299.8992 3299.8992 3299.8992 3299.8992 3299.8992 2177.1057 -3204.8308 -3188.8184 -3173.41 -3158.0017 -3142.8955 -3127.89 -3112.8845 -3098.1812 -3083.5784 -3069.0764 -3054.6753 -3040.3748 -3026.2756 -3012.277 -2998.2788 -2984.4817 -2970.8862 -2957.2905 -2943.7957 -2053.6377 -494.57703 1160.3577 2306.012 3299.8992 3299.8992 3299.8992 3299.8992 3299.8992 3299.8992 3299.8992 3299.8992 3299.8992 3299.8992 3299.8992 3299.8992 3299.8992 3299.8992 3299.8992 3299.8992 1749.6002 -3206.1401 -3190.3289 -3174.9207 -3159.5122 -3144.3054 -3129.4006 -3114.4958 -3099.6917 -3085.089 -3070.5872 -3056.2866 -3042.0867 -3027.887 -3013.7878 -2999.6887 -2985.9924 -2972.2961 -2958.7004 -2945.105 -2194.8303 -697.1008 875.2533 2064.6147 3299.8992 3299.8992 3299.8992 3299.8992 3299.8992 3299.8992 3299.8992 3299.8992 3299.8992 3299.8992 3299.8992 3299.8992 3299.8992 3299.8992 3299.8992 3299.8992 1245.3552 -3201.4067 -3185.5957 -3170.0867 -3154.6782 -3139.572 -3124.6672 -3109.8633 -3095.16 -3080.4565 -3066.0552 -3051.654 -3037.454 
3221.1455 3237.0574 3252.4658 3268.579 3284.2896 3299.8992 -3284.793 -1779.8126 3299.8992 3299.8992 3289.1235 3274.118 3258.9111 3243.704 3228.598 3213.2903 3198.0835 3182.675 3167.166 3151.7578 3136.6516 3121.4446 3106.7412 3091.635 3076.831 3056.3872 2233.5022 419.34814 -385.40955 -1328.0365 -2393.4265 -3180.661 3090.4265 3107.2449 3123.8616 3140.4785 3156.7932 3173.007 3189.3218 3205.3345 3221.2463 3237.0574 3253.1707 3268.881 3284.2896 3299.8992 -3284.6924 -874.64905 3299.8992 3299.0935 3284.1887 3269.284 3254.0771 3238.971 3223.8647 3208.6577 3193.451 3178.0425 3162.7349 3147.3267 3132.1196 3117.1143 3102.31 3087.1033 3072.5005 2907.843 2401.7852 769.9127 -227.90222 -973.645 -1764.9078 -2655.8716 3280.8655 3095.3613 3112.0789 3128.6956 3145.111 3161.5264 3177.6396 3193.753 3209.8662 3225.778 3241.7908 3257.4004 3273.0103 3288.6199 -3067.465 -1174.1547 3299.8992 3291.339 3276.4343 3261.5295 3246.4233 3231.4177 3216.4124 3201.2053 3185.8977 3170.4895 3155.081 3139.7734 3124.4658 3109.561 3093.9514 3079.4495 3057.9985 2390.3044 1191.3757 -403.03345 -1088.7543 -1835.202 -2501.587 -3078.7444 3096.167 3112.8845 3129.5012 3146.1182 3162.332 3178.5461 3194.76 3210.6719 3226.5837 3242.4956 3258.0046 3274.118 3289.627 3299.8992 -3279.5562 -504.84924 3299.8992 3299.8992 3287.4114 3272.406 3257.0984 3242.0928 3226.7852 3211.5784 3196.0693 3180.7617 3165.3533 3149.945 3134.738 3119.7327 3104.828 3089.923 3075.119 3054.2725 2047.4945 223.8739 -576.9562 -1421.7957 -2313.3635 -3031.1096 3090.8293 3107.6477 3124.3652 3140.8813 3157.196 3173.41 3189.624 3205.6365 3221.6492 3237.4602 3253.07 3269.0825 3284.793 3299.8992 -3284.491 -380.8777 3299.8992 3296.7773 3281.8726 3266.867 3251.6602 3236.554 3221.4478 3206.1401 3190.8325 3175.424 3160.0159 3144.7083 3129.5012 3114.4958 3098.886 3084.5854 3066.9617 2811.6667 1566.6138 -234.75037 -1017.6544 -1796.933 -2600.9856 3284.2896 3097.9797 3114.5964 3131.1125 3147.7295 3163.9434 3180.1575 3196.3713 3212.384 3228.296 3244.107 3259.5154 3275.5278 3291.0369 3299.8992 -3277.9448 81.7749 3299.8992 3299.8992 3286.1023 3270.8953 3255.5876 3240.5823 3225.3752 3210.0676 3194.6594 3179.3518 3164.0442 3148.7366 
3299.8992 3299.8992 3299.8992 3299.8992 3299.8992 3299.8992 3299.8992 1823.2178 -819.6625 -2560.199 -3189.3218 -3174.115 -3159.3108 -3144.5068 -3130.005 -3115.402 -3101.001 -3086.7004 -3072.5005 -3058.5022 -3044.403 -3030.5054 -2733.6182 -2183.0474 -1790.7898 -1514.2456 -1272.1436 -957.83386 -740.9088 -410.38513 115.31067 330.02014 743.82935 1824.9298 3263.5437 3299.8992 3299.8992 3299.8992 3299.8992 3299.8992 3299.8992 3299.8992 3299.8992 3299.8992 3299.8992 3299.8992 3299.8992 1595.3156 -1019.26575 -2772.1892 -3178.4453 -3163.44 -3148.5352 -3133.9324 -3119.3298 -3104.828 -3090.5273 -3076.3274 -3062.0269 -3048.0286 -3034.03 -3020.1323 -2791.0217 -2279.828 -1903.6835 -1543.9545 -1150.2869 -665.88135 -392.66052 -97.48535 282.08313 475.84534 863.0676 2031.5826 3299.8992 3299.8992 3299.8992 3299.8992 3299.8992 3299.8992 3299.8992 3299.8992 3299.8992 3299.8992 3299.8992 3299.8992 3299.8992 1318.6707 -1162.9761 -2830.2979 -3172.5037 -3157.5989 -3142.7947 -3127.9907 -3113.4888 -3099.0874 -3084.6863 -3070.4863 -3056.2866 -3042.288 -3028.3904 -3014.392 -2641.2688 -2297.653 -1899.4537 -1450.3967 -919.2627 -311.38916 -58.20923 214.10522 722.37854 878.47595 1280.9052 2439.9536 3299.8992 3299.8992 3299.8992 3299.8992 3299.8992 3299.8992 3299.8992 3299.8992 3299.8992 3299.8992 3299.8992 3299.8992 3299.8992 1131.958 -1287.6526 -3030.606 -3178.949 -3163.9434 -3149.1394 -3134.436 -3119.8333 -3105.4321 -3091.0308 -3076.7302 -3062.732 -3048.6328 -3034.6343 -3020.8374 -2742.682 -2257.8735 -1796.5302 -1237.8021 -831.2439 -400.81787 -61.834717 323.0713 665.78064 683.1024 981.80237 2166.0278 3299.8992 3299.8992 3299.8992 3299.8992 3299.8992 3299.8992 3299.8992 3299.8992 3299.8992 3299.8992 3299.8992 3299.8992 3282.5774 904.76074 -1426.5289 -2984.1797 -3180.5603 -3165.454 -3150.7507 -3136.0474 -3121.4446 -3107.0435 -3092.642 -3078.4424 -3064.2424 -3050.1433 -3036.2456 -3022.2473 -2950.5432 -2358.3801 -2045.0775 -1547.1771 -1093.8904 -636.77673 -340.7959 -60.62622 317.33093 432.4402 979.8889 2273.886 3299.8992 3299.8992 3299.8992 3299.8992 3299.8992 3299.8992 3299.8992 3299.8992 3299.8992 3299.8992 3299.8992 3299.8992 3228.7993 685.7208 -1581.2164 -3183.2793 -3168.6768 -3153.6711 -3138.9678 -3124.2644 -3109.6619 -3095.2605 -3080.8594 -3066.7603 -3052.5603 -3038.6626 

-94.262695 -77.545166 -52.871704 -10.876465 -0.10070801 -16.415405 -2.5177002 18.026733 30.413818 16.616821 -5.4382324 8.157349 28.701782 46.124268 32.528687 20.141602 31.32019 38.671875 29.003906 28.29895 29.80957 35.147095 47.232056 63.74817 70.89844 61.6333 31.924438 36.758423 38.47046 12.890625 -22.860718 -29.406738 -6.4453125 3.1219482 -14.401245 -21.652222 -37.36267 -0.9063721 -7.6538086 -29.708862 -35.247803 -12.084961 8.157349 15.206909 18.429565 23.968506 49.0448 63.24463 41.39099 -23.76709 -67.07153 -83.48694 -79.660034 -63.949585 -71.09985 -50.756836 -34.542847 -32.93152 -42.90161 -21.853638 -7.1502686 -0.20141602 11.984253 8.056641 7.1502686 13.998413 0.80566406 -6.3446045 -3.5247803 3.0212402 -8.963013 -5.3375244 -8.459473 -25.881958 -30.212402 -19.134521 0.9063721 43.40515 65.963745 77.948 72.81189 61.12976 67.8772 50.857544 25.579834 -0.30212402 -8.862305 -8.560181 -20.443726 -39.37683 -27.79541 -5.4382324 24.27063 40.88745 49.649048 41.189575 17.321777 19.436646 0.40283203 -29.910278 -50.656128 -46.728516 -31.118774 1.8127441 53.274536 82.58057 102.11792 113.69934 83.38623 47.735596 35.95276 9.768677 -47.03064 -76.84021 -47.634888 -2.2155762 17.523193 13.092041 -0.30212402 -16.113281 12.387085 -11.077881 -66.26587 -84.09119 -36.4563 -15.206909 2.4169922 -11.480713 7.1502686 24.069214 21.954346 7.5531006 20.947266 54.382324 89.93225 113.497925 112.490845 104.03137 73.516846 43.00232 -20.141602 -27.392578 -12.387085 -26.083374 -68.984985 -130.21545 -144.21387 -92.14783 -43.606567 -46.224976 -46.728516 -41.793823 -61.935425 -103.427124 -75.73242 -41.4917 -13.796997 0.20141602 -0.40283203 4.0283203 3.4240723 15.106201 13.293457 0 -30.615234 -51.5625 -65.05737 -66.467285 -49.44763 -29.406738 -9.970093 -7.0495605 16.818237 27.493286 27.29187 21.954346 15.106201 13.494873 29.507446 52.972412 57.60498 61.6333 66.87012 59.21631 38.974 22.155762 -18.026733 -38.168335 -25.177002 -17.22107 2.2155762 -4.1290283 -17.120361 -32.629395 -36.657715 -36.657715 -27.896118 -42.700195 -48.03772 -38.571167 
-117.42554 -95.47119 -46.829224 -9.063721 1.6113281 1.4099121 -34.643555 -74.82605 -90.234375 -73.013306 -48.44055 -34.643555 -7.6538086 29.104614 73.516846 73.41614 114.70642 97.283936 57.302856 37.261963 28.80249 32.93152 57.302856 73.61755 59.921265 29.406738 9.667969 -12.588501 -46.42639 -74.92676 -92.65137 -96.276855 -101.71509 -129.81262 -135.65369 -119.33899 -104.03137 -58.914185 -37.765503 -36.35559 -24.572754 -16.616821 -11.682129 0.80566406 11.077881 26.889038 53.17383 44.613647 38.974 18.127441 -19.436646 -35.34851 -25.076294 -6.3446045 9.265137 25.378418 34.240723 28.29895 21.148682 5.3375244 -0.9063721 14.401245 25.177002 30.917358 32.226562 17.120361 -0.9063721 -15.005493 3.9276123 28.399658 28.903198 22.155762 23.162842 2.7191162 -9.667969 -15.005493 -15.408325 -15.307617 -12.890625 -3.8269043 5.3375244 14.199829 4.9346924 -6.8481445 -21.24939 -49.749756 -69.1864 -56.69861 -47.93701 -26.889038 -14.602661 4.1290283 28.29895 27.29187 18.530273 21.047974 26.385498 15.106201 4.7332764 1.5106201 -8.761597 -42.095947 -50.55542 -41.592407 -23.26355 -9.768677 15.206909 38.974 43.103027 36.657715 49.145508 62.438965 72.71118 79.156494 82.9834 84.2926 72.20764 33.535767 -7.0495605 -0.40283203 -0.40283203 -0.40283203 -0.40283203 -0.40283203 -0.40283203 -0.40283203 -0.40283203 -0.40283203 -0.40283203 -0.40283203 -0.40283203 -0.40283203 -0.40283203 -0.40283203 -0.40283203 -0.40283203 -0.40283203 -0.40283203 -0.40283203 -0.40283203 -105.13916 -107.55615 -97.38464 -59.61914 -30.514526 -30.31311 -38.47046 -11.883545 16.314697 18.73169 6.8481445 -20.040894 -101.11084 -203.83301 -149.7528 -58.71277 -12.689209 17.72461 35.44922 53.17383 46.829224 43.707275 47.332764 43.707275 40.88745 31.219482 13.394165 -16.918945 -53.17383 -80.163574 -84.79614 -78.75366 -46.92993 -11.984253 1.2084961 18.22815 6.3446045 -7.9559326 2.7191162 14.904785 32.42798 31.32019 19.537354 21.853638 14.099121 18.73169 10.171509 4.0283203 -9.466553 -21.24939 -26.687622 -31.219482 -31.82373 -6.8481445 26.586914 63.64746 98.0896 100.20447 79.156494 62.13684 
-3126.48 -3111.8774 -3096.7712 -3082.4707 -3067.868 -3053.2654 -3038.9648 -1138.4033 1999.1547 3299.8992 3299.8992 3299.8992 3299.8992 3299.8992 3299.8992 3299.8992 3299.8992 3299.8992 3299.8992 3299.8992 3299.8992 3299.8992 3299.8992 3299.8992 3299.8992 3287.3108 3270.8953 3264.6514 3281.8726 3298.59 -3284.793 -3268.3777 -3252.1636 -3235.9497 -3220.1384 -3204.3274 -3188.7175 -3173.2085 -3157.901 -3142.7947 -3127.6885 -3112.4817 -3098.1812 -3082.974 -3068.4722 -3054.1716 -3040.0725 -917.24854 2171.1638 3299.8992 3299.8992 3299.8992 3299.8992 3299.8992 3299.8992 3299.8992 3299.8992 3299.8992 3299.8992 3299.8992 3299.8992 3299.8992 3299.8992 3299.8992 3299.8992 3284.5916 3268.3777 3264.3494 3281.5703 3298.2878 -3285.0952 -3268.6797 -3252.365 -3236.3525 -3220.4407 -3204.6294 -3189.1204 -3173.6113 -3158.3037 -3142.996 -3127.9907 -3113.388 -3098.1812 -3083.9812 -3069.2778 -3054.8767 -3040.3748 -1082.0068 2067.2332 3299.8992 3299.8992 3299.8992 3299.8992 3299.8992 3299.8992 3299.8992 3299.8992 3299.8992 3299.8992 3299.8992 3299.8992 3299.8992 3299.8992 3299.8992 3299.8992 3285.1958 3268.881 3267.572 3284.6924 3299.8992 -3281.9731 -3265.5579 -3249.3438 -3233.3313 -3217.4194 -3201.709 -3186.099 -3170.59 -3155.2825 -3140.1763 -3125.171 -3110.568 -3095.8647 -3080.8594 -3066.2566 -3052.057 -3036.3464 -651.88293 2526.663 3299.8992 3299.8992 3299.8992 3299.8992 3299.8992 3299.8992 3299.8992 3299.8992 3299.8992 3299.8992 3299.8992 3299.8992 3299.8992 3299.8992 3299.8992 3299.8992 3283.6853 3266.867 3268.0754 3285.1958 3299.8992 -3281.5703 -3265.155 -3248.941 -3232.9285 -3217.0166 -3201.2053 -3185.5957 -3170.1873 -3154.9805 -3139.7734 -3124.768 -3109.561 -3094.757 -3080.4565 -3065.9546 -3051.4526 -3011.8743 -398.8037 2671.3806 3299.8992 3299.8992 3299.8992 3299.8992 3299.8992 3299.8992 3299.8992 3299.8992 3299.8992 3299.8992 3299.8992 3299.8992 3299.8992 3299.8992 3299.8992 3298.892 3282.4768 3265.6584 3269.4854 3286.4043 3299.8992 -3280.2612 -3263.9465 -3247.7324 -3231.72 -3215.808 -3200.0977 -3184.4878 -3168.9788 -3153.772 -3138.565 
-3160.8215 -3146.521 -3132.7239 -3118.8262 -3105.0293 -3091.635 -2858.0933 -394.67468 2171.1638 3299.8992 3299.8992 3299.8992 3299.8992 3299.8992 3299.8992 3299.8992 3299.8992 3299.8992 3299.8992 3299.8992 3299.8992 3299.8992 3299.8992 3294.3604 3279.5562 3264.45 3248.538 3248.236 3260.2202 3275.9307 3291.5405 3299.8992 -3277.8442 -3262.738 -3247.7324 -3232.9285 -3218.3257 -3203.6223 -3189.1204 -3174.8198 -3160.7207 -3146.4202 -3132.5225 -3118.7256 -3105.0293 -3091.4336 -2793.6401 -299.80774 2297.0488 3299.8992 3299.8992 3299.8992 3299.8992 3299.8992 3299.8992 3299.8992 3299.8992 3299.8992 3299.8992 3299.8992 3299.8992 3299.8992 3299.8992 3293.3533 3278.549 3263.3423 3247.4304 3244.4092 3260.623 3276.4343 3291.8425 3299.8992 -3277.4414 -3262.3352 -3247.4304 -3232.5256 -3217.8223 -3203.3203 -3188.919 -3174.5178 -3160.3179 -3145.9167 -3132.2205 -3118.222 -3104.5256 -3091.2322 -2944.6013 -792.3706 1504.5776 3299.8992 3299.8992 3299.8992 3299.8992 3299.8992 3299.8992 3299.8992 3299.8992 3299.8992 3299.8992 3299.8992 3299.8992 3299.8992 3299.8992 3299.8992 3285.498 3270.291 3254.1777 3253.2715 3269.3848 3285.1958 3299.8992 -3284.0881 -3268.881 -3253.8757 -3238.87 -3224.1667 -3209.4634 -3194.9614 -3180.661 -3166.2598 -3152.1606 -3137.86 -3124.063 -3110.4675 -3096.5698 -3083.2764 -2722.238 -511.6974 2113.6597 3299.8992 3299.8992 3299.8992 3299.8992 3299.8992 3299.8992 3299.8992 3299.8992 3299.8992 3299.8992 3299.8992 3299.8992 3299.8992 3299.8992 3299.8992 3287.8142 3272.5066 3256.0913 3258.206 3274.118 3289.9292 3299.8992 -3279.2542 -3264.148 -3249.1423 -3234.137 -3219.5342 -3204.9316 -3190.4297 -3176.0283 -3161.8286 -3147.6287 -3133.3281 -3119.7327 -3106.0364 -3092.2393 -3078.4424 -2226.3518 281.07605 2713.5771 3299.8992 3299.8992 3299.8992 3299.8992 3299.8992 3299.8992 3299.8992 3299.8992 3299.8992 3299.8992 3299.8992 3299.8992 3299.8992 3299.8992 3299.1943 3284.2896 3268.982 3251.056 3255.789 3271.8018 3287.5122 3299.8992 -3281.6711 -3266.464 -3251.4587 -3236.6545 -3221.8506 -3207.1472 -3192.7458 -3178.244 -3164.0442 
3171.3958 3156.7932 3142.4927 3128.2927 3113.9922 3094.6562 1887.8723 33.132935 -1424.9176 -2569.9675 3114.9993 3130.9111 3146.521 3162.1306 3177.539 3192.8467 3208.1543 3223.5625 3238.6687 3253.473 3268.3777 3283.1816 3298.1873 -3287.21 -3272.3052 -3257.8032 -3243.9055 1384.8358 3299.8992 3299.8992 3299.8992 3299.8992 3288.8213 3274.118 3259.4146 3244.812 3229.9072 3215.2039 3200.5005 3185.797 3171.2952 3156.7932 3142.0898 3127.588 3113.7908 3091.635 1669.6381 -241.3971 -1778.7048 -2874.5085 3120.1355 3135.9465 3151.657 3167.2668 3182.675 3197.9827 3213.1897 3228.3965 3243.402 3258.4075 3273.413 3288.217 3299.8992 -3282.376 -3268.2769 -3253.775 -3239.0715 2018.2892 3299.8992 3299.8992 3299.8992 3299.8992 3290.4326 3275.7292 3260.9253 3246.222 3231.5186 3216.6138 3201.9104 3187.3076 3172.705 3158.2031 3143.9026 3129.8035 3115.2007 3070.6877 1704.1809 -161.0321 -1633.8867 -2777.7283 3120.1355 3135.846 3151.5564 3167.0654 3182.5745 3197.9827 3213.1897 3228.4973 3243.6035 3258.4075 3273.3123 3288.217 3299.8992 -3282.376 -3267.4712 -3253.07 -3238.971 2755.371 3299.8992 3299.8992 3299.8992 3299.8992 3288.4185 3273.816 3258.9111 3244.3083 3229.5044 3214.7002 3200.1982 3185.3943 3170.7915 3156.189 3141.687 3127.2856 3113.1865 3021.1394 1456.2378 -353.88794 -1925.0336 -3098.9868 3123.2573 3138.9678 3154.6782 3170.1873 3185.5957 3200.9033 3216.11 3231.3171 3246.4233 3261.3281 3276.3335 3291.0369 3299.8992 -3279.657 -3265.457 -3251.056 -3164.2456 3246.8262 3299.8992 3299.8992 3299.8992 3299.8992 3288.7207 3274.0173 3259.2131 3244.5098 3229.7058 3215.0024 3200.299 3185.6963 3171.0938 3156.491 3142.2913 3128.1921 3113.4888 2921.5393 1296.4142 -586.52344 -1976.7975 -3117.6177 3125.7751 3141.5862 3157.0952 3172.705 3188.1133 3203.421 3218.628 3233.7341 3248.8403 3263.8457 3278.65 3293.4539 -3291.5405 -3276.9377 -3262.6372 -3248.236 -3014.1907 3299.8992 3299.8992 3299.8992 3299.8992 3299.8992 3289.7278 3275.0244 3260.321 3245.6177 3230.8135 3216.0095 3201.3062 3186.6028 
-3023.355 -3009.2559 -2995.761 -2981.6619 -2967.9656 -2954.2693 -2940.7744 -1829.9652 -317.23022 1350.0916 2489.9048 3299.8992 3299.8992 3299.8992 3299.8992 3299.8992 3299.8992 3299.8992 3299.8992 3299.8992 3299.8992 3299.8992 3299.8992 3299.8992 3299.8992 3299.8992 3299.8992 689.84985 -3202.6152 -3186.7034 -3171.2952 -3156.0881 -3140.8813 -3125.9766 -3111.0718 -3096.3684 -3081.665 -3067.3645 -3052.9631 -3038.6626 -3024.6643 -3010.4644 -2996.466 -2982.8704 -2969.275 -2955.6792 -2942.1843 -2034.3018 -518.84766 1163.5803 2444.7876 3299.8992 3299.8992 3299.8992 3299.8992 3299.8992 3299.8992 3299.8992 3299.8992 3299.8992 3299.8992 3299.8992 3299.8992 3299.8992 3299.8992 3299.8992 3299.8992 261.84082 -3199.3926 -3183.5815 -3168.173 -3152.765 -3137.6587 -3122.8545 -3107.9497 -3093.1458 -3078.6438 -3064.1418 -3049.942 -3035.7422 -3021.5422 -3007.544 -2993.4448 -2979.849 -2966.2537 -2952.658 -2938.861 -1731.1707 -189.8346 1309.7076 2463.4185 3299.8992 3299.8992 3299.8992 3299.8992 3299.8992 3299.8992 3299.8992 3299.8992 3299.8992 3299.8992 3299.8992 3299.8992 3299.8992 3299.8992 3299.8992 3299.8992 123.16589 -3199.4934 -3183.6821 -3168.173 -3152.8655 -3137.86 -3122.754 -3107.9497 -3093.3472 -3078.8452 -3064.3433 -3049.8413 -3035.7422 -3021.643 -3007.6445 -2994.049 -2979.95 -2966.2537 -2952.5574 -2936.9475 -1489.5721 116.72058 1898.5474 2846.6125 3299.8992 3299.8992 3299.8992 3299.8992 3299.8992 3299.8992 3299.8992 3299.8992 3299.8992 3299.8992 3299.8992 3299.8992 3299.8992 3299.8992 3299.8992 3299.8992 -812.91504 -3202.4138 -3186.6028 -3171.1943 -3155.8867 -3140.68 -3125.7751 -3110.971 -3096.3684 -3081.5642 -3067.163 -3052.8625 -3038.6626 -3024.5635 -3010.4644 -2996.869 -2982.9712 -2969.0735 -2955.4778 -2858.1938 -1435.6934 137.1643 1848.8983 2999.588 3299.8992 3299.8992 3299.8992 3299.8992 3299.8992 3299.8992 3299.8992 3299.8992 3299.8992 3299.8992 3299.8992 3299.8992 3299.8992 3299.8992 3299.8992 3299.8992 -1328.4393 -3204.0251 -3188.214 -3172.8057 -3157.498 -3142.3918 -3127.487 -3112.5823 -3097.879 -3083.377 -3068.875 -3054.4739 -3040.274 
3133.3281 3118.3228 3103.418 3088.5132 3073.5076 2933.2214 1722.2076 -65.15808 -877.16675 -1728.9551 -2717.505 3233.13 3099.3896 3116.0063 3132.6233 3149.0386 3165.3533 3181.668 3197.7812 3213.8945 3229.7058 3245.4163 3261.5295 3277.1392 3292.5476 -3291.9434 -3276.535 390.34424 3299.8992 3299.8992 3285.6995 3270.4924 3255.3862 3240.28 3224.9724 3209.7656 3194.458 3178.949 3163.5405 3148.233 3132.9253 3117.819 3103.0151 3088.211 3071.4934 2803.2073 1492.4927 -213.19885 -892.27295 -1751.6144 -2707.736 3220.7427 3101.4038 3118.0205 3134.738 3151.0527 3167.3674 3183.6821 3199.6948 3215.7073 3231.6191 3247.531 3263.4429 3279.1533 3294.461 -3290.0298 -3274.5208 952.49634 3299.8992 3299.8992 3284.793 3269.6868 3254.48 3239.4744 3224.2676 3208.8591 3193.5515 3178.0425 3162.6343 3147.3267 3132.019 3117.0134 3102.2095 3087.3047 3069.4792 2626.062 1288.9618 -559.7351 -1261.4685 -2077.304 -2926.3733 3091.9373 3108.6548 3125.2715 3141.8884 3158.3037 3174.417 3190.631 3206.7444 3222.7568 3238.568 3254.48 3270.4924 3285.901 3299.8992 -3283.1816 -3219.5342 1134.1736 3299.8992 3299.8992 3290.332 3275.125 3259.9182 3244.812 3229.5044 3214.2974 3198.6877 3183.2793 3167.871 3152.5635 3137.2559 3122.1497 3107.3455 3092.4407 3074.817 2657.6843 1300.1404 -334.14917 -1028.4302 -1850.3082 -2736.74 3245.0134 3108.7554 3125.473 3142.1904 3158.4045 3174.7192 3190.933 3207.0464 3222.9583 3238.971 3254.6814 3270.0896 3286.3037 3299.8992 -3282.9802 -3010.263 1721.0999 3299.8992 3299.8992 3287.5122 3272.406 3257.0984 3242.0928 3226.6846 3211.377 3195.868 3180.359 3164.9504 3149.7437 3134.436 3119.4304 3103.9214 3089.5203 3071.292 2539.9565 1101.7456 -522.67456 -1226.5228 -2016.6779 -2804.2144 3155.484 3110.669 3127.6885 3143.9026 3160.4187 3176.834 3192.7458 3208.8591 3224.9724 3240.6829 3256.5947 3272.0032 3287.915 3299.8992 -3281.067 -2877.4292 1923.2208 3299.8992 3299.8992 3287.915 3272.708 3257.6018 3242.4956 3227.0874 3211.8804 3196.3713 3181.0637 3165.5547 3150.1465 
-3024.6643 -3010.7666 -2750.2349 -2293.4233 -1828.3539 -1280.603 -774.9481 -246.83533 23.968506 252.27356 504.3457 567.2882 1016.74805 2298.5596 3196.875 3299.8992 3299.8992 3299.8992 3299.8992 3299.8992 3299.8992 3299.8992 3299.8992 3299.8992 3299.8992 3299.8992 3167.166 592.96875 -1663.3942 -3076.4282 -3166.9646 -3152.0598 -3137.2559 -3122.5525 -3107.9497 -3093.6492 -3079.4495 -3065.149 -3051.1504 -3037.0513 -3023.2544 -3009.2559 -2668.158 -2253.543 -1881.7291 -1363.385 -893.985 -275.73853 24.371338 433.14514 827.3163 954.7119 1415.6525 2755.4717 3299.8992 3299.8992 3299.8992 3299.8992 3299.8992 3299.8992 3299.8992 3299.8992 3299.8992 3299.8992 3299.8992 3299.8992 3150.9521 552.9877 -1620.2911 -3184.9915 -3173.5107 -3158.606 -3143.8018 -3129.1992 -3114.4958 -3100.0945 -3085.794 -3071.4934 -3057.495 -3043.4966 -3029.4983 -3015.7012 -2607.6323 -2068.1396 -1617.2699 -1353.6163 -939.2029 -728.0182 -438.68408 -94.86694 325.18616 521.8689 1107.5867 2545.5962 3299.8992 3299.8992 3299.8992 3299.8992 3299.8992 3299.8992 3299.8992 3299.8992 3299.8992 3299.8992 3299.8992 3299.8992 2950.4424 353.4851 -1701.5625 -3181.8694 -3166.6626 -3151.657 -3136.853 -3122.1497 -3107.6477 -3093.1458 -3078.9458 -3064.746 -3050.647 -3036.6484 -3022.7507 -2993.9482 -2578.3264 -2173.6816 -1869.7449 -1423.1049 -983.1116 -550.06714 -293.86597 61.6333 311.48987 462.55188 1145.3522 2647.6135 3299.8992 3299.8992 3299.8992 3299.8992 3299.8992 3299.8992 3299.8992 3299.8992 3299.8992 3299.8992 3299.8992 3299.8992 2804.4158 128.302 -1950.3113 -3173.2085 -3158.0017 -3143.097 -3128.2927 -3113.4888 -3099.0874 -3084.8877 -3070.5872 -3056.3872 -3042.389 -3028.3904 -3014.5935 -3000.6958 -2586.0808 -2256.0608 -1846.7834 -1332.8705 -822.7844 -363.05237 -103.930664 205.54504 537.68005 723.98987 1426.0254 2981.8633 3299.8992 3299.8992 3299.8992 3299.8992 3299.8992 3299.8992 3299.8992 3299.8992 3299.8992 3299.8992 3299.8992 3299.8992 2571.9817 -199.80469 -2089.9932 -3170.1873 -3154.9805 -3140.0757 -3125.2715 -3110.669 -3096.167 -3081.8665 -3067.566 -3053.366 -3039.3677 -3025.47 

-18.73169 10.171509 0.40283203 -6.1431885 -10.372925 -14.099121 2.7191162 31.723022 86.206055 129.6112 101.312256 81.7749 68.58215 55.490112 34.84497 33.737183 23.666382 40.98816 92.85278 135.35156 136.86218 85.90393 62.13684 -10.473633 -66.06445 -74.42322 -79.96216 -96.57898 -103.125 -79.559326 -13.494873 -36.154175 -125.38147 -176.33972 -174.52698 -149.45068 -110.980225 -65.05737 -33.032227 -32.528687 -18.832397 -3.1219482 -11.380005 -24.77417 -34.542847 -22.558594 3.9276123 31.723022 53.979492 53.778076 47.53418 35.44922 28.399658 34.542847 48.03772 80.667114 88.92517 79.45862 78.652954 85.60181 113.09509 133.74023 133.63953 138.2721 128.2013 58.511353 -21.148682 -12.185669 4.1290283 -16.818237 -26.687622 1.7120361 37.664795 17.120361 -56.295776 -76.638794 -51.159668 -8.761597 16.616821 33.43506 49.850464 34.240723 10.675049 -9.365845 -2.1148682 -42.700195 -97.88818 -110.980225 -72.10693 -33.132935 -14.300537 0.40283203 -24.975586 -22.860718 17.926025 1.5106201 -38.772583 -91.14075 -103.52783 -77.34375 -91.64429 -122.25952 -144.91882 -134.44519 -106.8512 -96.07544 -64.65454 -28.701782 -4.0283203 -1.1077881 -5.4382324 -2.2155762 -11.782837 -4.8339844 -2.0141602 10.574341 34.643555 36.95984 44.714355 40.48462 38.87329 45.01648 35.44922 23.464966 27.29187 27.392578 37.261963 38.47046 31.723022 28.399658 4.8339844 -5.5389404 8.056641 15.509033 13.192749 3.1219482 0 23.364258 49.649048 66.6687 36.154175 5.6396484 -0.10070801 -8.258057 0.40283203 12.689209 4.1290283 8.862305 30.413818 58.309937 84.191895 93.55774 98.99597 106.24695 76.94092 26.486206 -28.701782 -69.79065 -72.81189 -67.57507 -52.56958 -50.354004 -56.19507 -71.7041 -72.71118 -72.40906 -61.23047 -24.874878 14.199829 25.579834 29.608154 6.0424805 -30.81665 -29.104614 -10.775757 2.7191162 3.6254883 -8.560181 -9.164429 -8.459473 -14.703369 -6.1431885 -11.883545 0.10070801 -5.7403564 -12.789917 -21.652222 -15.206909 -1.1077881 -3.1219482 -18.530273 -18.73169 -19.335938 6.7474365 29.205322 32.83081 35.751343 33.43506 28.500366 30.917358 
63.546753 76.538086 85.40039 84.695435 74.32251 54.281616 55.389404 80.36499 114.90784 116.31775 95.37048 86.50818 63.446045 42.196655 41.189575 43.103027 -5.5389404 -47.836304 -60.12268 -64.151 -62.438965 -57.70569 -51.763916 -25.579834 20.141602 45.41931 10.675049 1.3092041 0.30212402 -3.5247803 -2.1148682 -28.601074 -106.04553 -173.82202 -210.88257 -216.42151 -186.00769 -163.75122 -113.1958 -53.375244 -13.092041 4.4311523 3.1219482 -5.5389404 -20.040894 -28.198242 -27.090454 -38.974 -33.83789 -22.055054 -23.26355 -6.3446045 15.509033 32.629395 19.134521 -8.056641 -38.772583 -56.295776 -48.94409 -32.025146 -17.926025 -5.6396484 15.106201 41.290283 56.497192 51.159668 19.73877 7.5531006 -2.5177002 7.3516846 35.650635 66.26587 80.96924 90.93933 83.08411 87.81738 69.79065 -15.307617 -79.055786 -53.17383 15.408325 59.61914 101.61438 138.67493 217.12646 254.99268 247.33887 209.06982 175.53406 109.06677 65.86304 83.688354 99.70093 72.006226 42.095947 -8.862305 -32.025146 -39.779663 -50.152588 -66.76941 -101.21155 -165.36255 -199.09973 -208.56628 -217.32788 -213.8031 -197.4884 -175.93689 -172.51282 -176.33972 -170.19653 -169.29016 -195.87708 -200.10681 -163.14697 -91.44287 -31.118774 6.0424805 20.947266 30.81665 24.169922 20.141602 9.063721 8.660889 23.364258 22.457886 25.177002 36.053467 41.39099 51.763916 37.765503 8.459473 19.335938 22.659302 9.667969 -6.2438965 -12.286377 2.4169922 19.537354 21.24939 6.6467285 -9.466553 10.574341 40.182495 41.088867 21.75293 29.205322 38.168335 42.49878 37.86621 46.42639 68.88428 92.14783 124.67651 125.38147 95.87402 62.841797 63.949585 94.86694 114.001465 94.766235 69.79065 18.832397 -41.99524 -90.13367 -136.56006 -164.85901 -166.57104 -117.12341 -98.69385 -75.4303 -55.59082 -29.406738 -10.574341 -4.1290283 -7.6538086 -15.609741 -27.896118 -29.205322 -27.090454 -29.708862 -30.715942 -19.335938 -26.083374 -22.25647 -23.968506 -26.184082 -10.272217 -1.1077881 -0.10070801 10.372925 15.509033 19.73877 39.276123 40.786743 52.267456 65.86304 67.57507 62.942505 44.613647 
-3123.6602 -3109.0576 -3094.4548 -3079.248 -3064.8467 -3050.5461 -2998.4802 -566.8854 2516.2903 3299.8992 3299.8992 3299.8992 3299.8992 3299.8992 3299.8992 3299.8992 3299.8992 3299.8992 3299.8992 3299.8992 3299.8992 3299.8992 3299.8992 3299.8992 3299.8992 3284.3901 3257.4004 3273.413 3290.4326 -3292.8496 -3276.3335 -3260.0188 -3243.805 -3227.7922 -3211.9812 -3196.2708 -3180.661 -3165.2527 -3150.0457 -3134.9395 -3119.934 -3104.727 -3090.4265 -3075.3203 -3060.9192 -3046.7192 -2807.0342 -116.11633 2884.378 3299.8992 3299.8992 3299.8992 3299.8992 3299.8992 3299.8992 3299.8992 3299.8992 3299.8992 3299.8992 3299.8992 3299.8992 3299.8992 3299.8992 3299.8992 3299.8992 3283.8867 3118.4233 3275.2258 3292.1448 -3291.1377 -3274.5208 -3258.307 -3242.0928 -3226.181 -3210.269 -3194.6594 -3179.0496 -3163.6414 -3148.4343 -3133.2275 -3118.4233 -3103.8208 -3088.7146 -3074.5146 -3060.0127 -3045.6116 -2698.471 124.575806 3210.269 3299.8992 3299.8992 3299.8992 3299.8992 3299.8992 3299.8992 3299.8992 3299.8992 3299.8992 3299.8992 3299.8992 3299.8992 3299.8992 3299.8992 3299.8992 3299.1943 3282.6782 2679.84 3276.535 3293.4539 -3289.8284 -3273.413 -3257.0984 -3240.8843 -3225.0732 -3209.1614 -3193.5515 -3177.942 -3162.6343 -3147.3267 -3132.321 -3117.3157 -3102.1086 -3087.808 -3072.702 -3058.4014 -3044.2017 -2485.7756 470.5078 3299.8992 3299.8992 3299.8992 3299.8992 3299.8992 3299.8992 3299.8992 3299.8992 3299.8992 3299.8992 3299.8992 3299.8992 3299.8992 3299.8992 3299.8992 3299.8992 3297.1802 3280.5632 2200.9734 3276.535 3293.4539 -3289.9292 -3273.5137 -3257.199 -3240.985 -3225.0732 -3209.1614 -3193.6523 -3178.0425 -3162.7349 -3147.4272 -3132.321 -3117.3157 -3102.2095 -3087.506 -3073.3062 -3058.905 -3044.403 -2590.4114 334.04846 3299.8992 3299.8992 3299.8992 3299.8992 3299.8992 3299.8992 3299.8992 3299.8992 3299.8992 3299.8992 3299.8992 3299.8992 3299.8992 3299.8992 3299.8992 3299.8992 3298.2878 3281.7717 1543.9545 3280.2612 3297.0793 -3286.3037 -3269.7876 -3253.473 -3237.4602 -3221.4478 -3205.6365 -3190.0269 -3174.5178 -3159.1094 -3143.9026 -3128.7964 
-3149.945 -3135.6445 -3121.9482 -3108.0505 -3094.3542 -3080.658 -2153.6406 252.8778 2589.102 3299.8992 3299.8992 3299.8992 3299.8992 3299.8992 3299.8992 3299.8992 3299.8992 3299.8992 3299.8992 3299.8992 3299.8992 3299.8992 3299.8992 3297.2808 3282.4768 3267.6726 3073.1047 3257.5012 3273.413 3289.1235 3299.8992 -3280.0598 -3264.8528 -3249.948 -3234.9426 -3220.2393 -3205.6365 -3191.1345 -3176.834 -3162.4329 -3148.4343 -3134.6375 -3120.4375 -3106.6406 -3092.9443 -3079.248 -2156.1584 520.3583 2961.621 3299.8992 3299.8992 3299.8992 3299.8992 3299.8992 3299.8992 3299.8992 3299.8992 3299.8992 3299.8992 3299.8992 3299.8992 3299.8992 3299.8992 3296.2737 3281.369 3266.464 2821.0327 3258.1055 3274.118 3289.7278 3299.8992 -3279.4556 -3264.2485 -3249.2432 -3234.5398 -3219.7356 -3205.133 -3190.631 -3176.2297 -3161.9292 -3147.83 -3134.1338 -3119.934 -3106.137 -3092.5415 -3078.7444 -1703.7781 728.62244 3088.3118 3299.8992 3299.8992 3299.8992 3299.8992 3299.8992 3299.8992 3299.8992 3299.8992 3299.8992 3299.8992 3299.8992 3299.8992 3299.8992 3299.8992 3293.5547 3278.65 3263.745 2392.4194 3257.7026 3273.6145 3289.224 3299.8992 -3279.959 -3264.7522 -3249.7466 -3234.8418 -3220.2393 -3205.6365 -3191.2354 -3176.834 -3162.4329 -3148.3337 -3134.5366 -3120.4375 -3106.5398 -3093.045 -3079.248 -1753.125 790.55786 3166.2598 3299.8992 3299.8992 3299.8992 3299.8992 3299.8992 3299.8992 3299.8992 3299.8992 3299.8992 3299.8992 3299.8992 3299.8992 3299.8992 3299.8992 3292.749 3277.8442 3262.5366 1954.4403 3258.7097 3274.7222 3290.2312 3299.8992 -3278.952 -3263.8457 -3248.941 -3234.0361 -3219.3328 -3204.6294 -3190.1274 -3175.9277 -3161.6272 -3147.528 -3133.2275 -3119.5312 -3105.835 -3092.1387 -3078.8452 -1843.6615 597.90344 2932.9192 3299.8992 3299.8992 3299.8992 3299.8992 3299.8992 3299.8992 3299.8992 3299.8992 3299.8992 3299.8992 3299.8992 3299.8992 3299.8992 3299.8992 3295.468 3280.5632 3265.155 1213.4308 3263.8457 3279.7576 3295.2666 -3289.325 -3274.0173 -3258.9111 -3243.9055 -3229.2021 -3214.4988 -3199.8962 -3185.3943 -3171.0938 -3156.8938 
3172.1008 3157.3975 3143.1975 3128.7964 3114.7979 2810.1562 1072.8424 -710.7971 -2209.03 -3292.2454 3130.7097 3146.521 3162.03 3177.539 3192.9473 3208.3557 3223.462 3238.568 3253.5735 3268.579 3283.484 3298.1873 -3287.21 -3272.6074 -3258.206 -3243.5027 -2645.297 3299.8992 3299.8992 3299.8992 3299.8992 3299.8992 3291.339 3276.6357 3261.8315 3247.1282 3232.3242 3217.52 3202.716 3188.1133 3173.6113 3159.0088 3144.3054 3130.005 3115.503 2758.7952 992.98096 -800.62866 -2241.5588 3254.8828 3132.6233 3148.3337 3163.9434 3179.5532 3194.8608 3210.1685 3225.3752 3240.3809 3255.487 3270.3918 3285.2966 3299.8992 -3284.9944 -3270.1904 -3256.192 -3241.69 -2370.1628 3299.8992 3299.8992 3299.8992 3299.8992 3299.8992 3291.5405 3276.8372 3262.1338 3247.229 3232.5256 3217.6208 3202.9175 3188.3147 3173.7122 3159.1094 3144.8088 3130.6091 3116.51 2679.135 877.9724 -860.1471 -2217.691 3278.8513 3134.3352 3150.0457 3165.756 3181.2651 3196.6736 3211.9812 3227.0874 3242.2942 3257.2998 3272.3052 3287.21 3299.8992 -3283.5845 -3268.982 -3254.48 -3239.978 -2125.7446 3299.8992 3299.8992 3299.8992 3299.8992 3299.8992 3291.9434 3277.24 3262.4358 3247.6318 3232.727 3217.9229 3203.2195 3188.617 3174.0142 3159.4116 3144.9097 3130.5083 3116.1072 2522.3328 613.31177 -1087.9486 -2562.2131 3123.3582 3139.27 3155.081 3170.59 3185.9985 3201.4067 3216.7144 3231.8206 3246.9268 3261.9324 3276.9377 3291.641 3299.8992 -3278.7505 -3263.9465 -3249.8474 -3235.3455 -1561.7798 3299.8992 3299.8992 3299.8992 3299.8992 3299.8992 3293.5547 3278.7505 3263.9465 3249.0417 3234.439 3219.5342 3204.6294 3190.0269 3175.424 3160.7207 3146.6216 3132.1196 3117.1143 2495.8464 710.7971 -835.0708 -2183.551 -3196.5728 3137.155 3152.8655 3168.4753 3183.9844 3199.292 3214.5996 3229.8064 3244.9126 3259.9182 3274.9236 3289.7278 3299.8992 -3280.966 -3266.464 -3252.063 -3237.6616 -1218.5669 3299.8992 3299.8992 3299.8992 3299.8992 3299.8992 3290.332 3275.5278 3260.7239 3245.9197 3231.1157 3216.3115 3201.6082 3186.8042 
-3026.0742 -3012.0757 -2998.0774 -2984.381 -2970.7854 -2957.19 -2638.8518 -1197.3175 291.24756 1586.1511 2845.2026 3299.8992 3299.8992 3299.8992 3299.8992 3299.8992 3299.8992 3299.8992 3299.8992 3299.8992 3299.8992 3299.8992 3299.8992 3299.8992 3299.8992 3299.8992 3299.8992 -1493.6005 -3205.133 -3189.4226 -3174.0142 -3158.7065 -3143.6003 -3128.595 -3113.7908 -3099.0874 -3084.4849 -3069.983 -3055.5815 -3041.4824 -3027.2827 -3013.2842 -2999.0845 -2985.4888 -2971.8933 -2958.2976 -2539.6545 -929.7363 599.9176 2251.0254 3292.3462 3299.8992 3299.8992 3299.8992 3299.8992 3299.8992 3299.8992 3299.8992 3299.8992 3299.8992 3299.8992 3299.8992 3299.8992 3299.8992 3299.8992 3299.8992 3299.8992 -2131.3843 -3210.974 -3195.1628 -3179.8552 -3164.5476 -3149.4414 -3134.436 -3119.5312 -3104.9285 -3090.1245 -3075.7231 -3061.4226 -3047.223 -3033.023 -3018.8232 -3005.2275 -2991.1284 -2977.4321 -2963.7358 -2774.2034 -1542.4438 32.025146 1714.9567 2851.0437 3299.8992 3299.8992 3299.8992 3299.8992 3299.8992 3299.8992 3299.8992 3299.8992 3299.8992 3299.8992 3299.8992 3299.8992 3299.8992 3299.8992 3299.8992 3299.8992 -2621.228 -3204.0251 -3188.3147 -3173.007 -3157.8003 -3142.694 -3127.7893 -3112.985 -3098.2817 -3083.6792 -3069.1772 -3054.8767 -3040.5762 -3026.477 -3012.378 -2998.883 -2984.8845 -2970.9868 -2957.492 -2616.7969 -972.2351 656.8176 2173.4802 3195.3643 3299.8992 3299.8992 3299.8992 3299.8992 3299.8992 3299.8992 3299.8992 3299.8992 3299.8992 3299.8992 3299.8992 3299.8992 3299.8992 3299.8992 3299.8992 3136.5508 -3218.527 -3204.428 -3188.7175 -3173.3093 -3158.1023 -3142.996 -3127.9907 -3113.2874 -3098.584 -3083.9812 -3069.58 -3055.1787 -3040.979 -3026.88 -3012.7808 -2998.7822 -2985.086 -2971.3896 -2957.7942 -2435.7239 -896.7041 543.0176 2056.4575 3114.5964 3299.8992 3299.8992 3299.8992 3299.8992 3299.8992 3299.8992 3299.8992 3299.8992 3299.8992 3299.8992 3299.8992 3299.8992 3299.8992 3299.8992 3299.8992 2940.0696 -3218.8293 -3202.6152 -3187.1062 -3171.7986 -3156.491 -3141.3848 -3126.48 -3111.676 -3096.9727 -3082.5713 -3067.9688 -3053.6682 -3039.4683 
3134.8389 3119.934 3104.5256 3089.8223 3071.3928 2406.9214 918.75916 -756.51855 -1431.4636 -2182.6445 -3001.602 3100.0945 3116.812 3133.429 3150.0457 3166.3604 3182.675 3198.7883 3214.9016 3230.612 3246.7253 3262.4358 3277.8442 3293.6553 -3290.7349 -3275.5278 -2544.8914 2397.9583 3299.8992 3299.8992 3290.4326 3275.3264 3260.2202 3245.0134 3229.605 3214.2974 3198.7883 3183.3801 3167.871 3152.5635 3137.2559 3122.2502 3107.3455 3092.2393 3073.407 2393.0237 960.6537 -614.9231 -1275.9705 -2158.5754 -3032.4187 3101.001 3117.92 3134.436 3150.9521 3167.3674 3183.5815 3199.594 3215.808 3231.72 3247.531 3263.2415 3278.7505 3294.6624 -3289.8284 -3274.5208 -2301.178 2744.998 3299.8992 3299.8992 3289.7278 3274.4202 3259.2131 3244.0063 3228.7993 3213.391 3197.7812 3182.373 3166.9646 3151.5564 3136.3494 3121.344 3106.4392 3091.5344 3072.9033 2475.9062 980.09033 -748.0591 -1432.5714 -2279.6265 -3095.9656 3102.008 3118.8262 3135.443 3151.8584 3168.173 3184.4878 3200.601 3216.6138 3232.6262 3248.4375 3264.2485 3280.2612 3295.5688 -3289.0227 -3273.6145 -2131.6863 2928.6895 3299.8992 3299.8992 3289.224 3274.0173 3258.8103 3243.6035 3228.296 3212.8875 3197.3784 3181.8694 3166.5618 3151.0527 3135.9465 3120.8403 3106.0364 3091.0308 3071.5942 2304.0984 894.0857 -521.5668 -1198.9288 -1940.8447 -2732.0068 3096.8718 3113.6902 3130.2063 3146.823 3163.1377 3179.5532 3195.767 3211.679 3227.6917 3243.5027 3259.314 3274.6216 3290.7349 3299.8992 -3278.247 -1781.2225 3299.8992 3299.8992 3296.878 3281.9731 3267.0684 3251.7607 3236.554 3221.347 3206.0393 3190.5303 3175.122 3159.7136 3144.406 3129.1992 3114.1936 3099.2888 3084.384 3025.47 2017.1814 570.20874 -964.07776 -1508.3038 -2129.2693 -2939.9688 3099.2888 3116.0063 3132.6233 3149.24 3165.5547 3181.8694 3197.882 3213.9954 3229.9072 3245.7183 3261.6301 3276.9377 3292.8496 -3291.4397 -3276.132 -1413.3362 3299.8992 3299.8992 3296.878 3282.074 3266.867 3251.8616 3236.6545 3221.2463 3205.9387 3190.5303 3174.9207 3159.5122 3144.3054 
-3011.5723 -2978.4392 -2495.9473 -1975.9918 -1491.687 -991.57104 -465.1703 -183.28857 102.923584 367.98706 702.33765 876.3611 1564.801 3087.0024 3299.8992 3299.8992 3299.8992 3299.8992 3299.8992 3299.8992 3299.8992 3299.8992 3299.8992 3299.8992 3299.8992 3299.8992 2499.17 -155.09033 -2024.0295 -3178.5461 -3163.339 -3148.3337 -3133.6304 -3118.927 -3104.425 -3089.923 -3075.7231 -3061.624 -3047.525 -3033.5266 -3019.629 -3005.8318 -2580.2397 -2087.1733 -1545.3644 -1188.6566 -721.17004 -329.21448 -166.97388 66.16516 478.9673 665.78064 1566.5131 3009.961 3299.8992 3299.8992 3299.8992 3299.8992 3299.8992 3299.8992 3299.8992 3299.8992 3299.8992 3299.8992 3299.8992 3299.8992 2074.3835 -625.69885 -2505.7158 -3171.1943 -3155.9875 -3141.1833 -3126.48 -3111.978 -3097.3755 -3083.1755 -3068.9758 -3054.776 -3040.6768 -3026.88 -3012.8813 -2917.4102 -2329.1748 -1952.0233 -1655.3375 -1293.9972 -820.66956 -448.15063 -210.27832 88.62305 455.50232 517.63916 1513.5406 3044.705 3299.8992 3299.8992 3299.8992 3299.8992 3299.8992 3299.8992 3299.8992 3299.8992 3299.8992 3299.8992 3299.8992 3299.8992 1967.0288 -774.9481 -2607.3303 -3162.5334 -3147.4272 -3132.5225 -3117.7185 -3103.3171 -3089.0166 -3074.6155 -3060.4155 -3046.3164 -3032.318 -3018.521 -3004.6233 -2982.266 -2412.0574 -2001.2695 -1668.8324 -1198.7274 -687.8357 -312.59766 151.76697 454.99878 730.3345 961.66077 1821.405 3299.8992 3299.8992 3299.8992 3299.8992 3299.8992 3299.8992 3299.8992 3299.8992 3299.8992 3299.8992 3299.8992 3299.8992 3299.8992 1649.0936 -962.56714 -2823.3489 -3160.922 -3145.9167 -3130.9111 -3116.4092 -3101.8066 -3087.4053 -3073.0042 -3058.905 -3044.806 -3030.8074 -3016.9097 -3003.012 -2747.7173 -2281.0364 -1980.0201 -1533.6823 -1036.789 -495.98694 -253.58276 45.822144 444.22302 916.34216 1230.3497 2223.0286 3299.8992 3299.8992 3299.8992 3299.8992 3299.8992 3299.8992 3299.8992 3299.8992 3299.8992 3299.8992 3299.8992 3299.8992 3299.8992 1642.9504 -871.8292 -2626.062 -3168.3745 -3153.2683 -3138.263 -3123.5596 -3108.9568 -3094.5557 -3080.4565 -3066.156 -3051.956 -3037.9578 -3024.06 

24.673462 19.436646 14.904785 49.749756 20.544434 10.675049 28.500366 87.213135 138.57422 154.98962 153.27759 116.41846 80.56641 53.67737 32.730103 24.975586 1.5106201 -48.843384 -75.4303 -72.10693 -64.85596 -65.76233 -52.56958 -68.78357 -104.837036 -104.63562 -100.00305 -93.35632 -67.37366 -41.4917 -10.775757 35.650635 72.006226 109.06677 130.11475 150.35706 180.97229 205.64575 180.87158 91.04004 -24.77417 -58.511353 -25.076294 1.7120361 -45.52002 -152.67334 -177.74963 -174.62769 -153.78113 -140.18555 -110.37598 -56.69861 13.394165 22.558594 16.21399 -41.4917 -111.68518 -196.07849 -242.807 -229.41284 -229.41284 -229.41284 -229.41284 -229.41284 -229.41284 -229.41284 -229.41284 -229.41284 -229.41284 -229.41284 -229.41284 -229.41284 -229.41284 -229.41284 -229.41284 -229.41284 -229.41284 -229.41284 -229.41284 -229.41284 28.399658 41.793823 54.483032 57.504272 59.61914 60.827637 74.72534 75.73242 48.239136 20.343018 1.6113281 -2.8198242 4.5318604 -3.4240723 8.157349 25.378418 34.84497 41.39099 56.69861 99.70093 111.483765 94.46411 43.304443 -24.169922 -40.081787 -47.836304 -45.217896 -44.210815 -32.42798 -14.703369 -0.10070801 15.005493 -3.2226562 -29.104614 -65.76233 -73.81897 -59.921265 -49.54834 -39.074707 -2.0141602 17.623901 3.4240723 -8.358765 -8.358765 -42.297363 -61.834717 -58.309937 -49.95117 -40.38391 -29.406738 -8.761597 34.140015 71.40198 84.191895 96.57898 121.45386 90.33508 55.490112 33.33435 15.609741 15.609741 15.609741 15.609741 15.609741 15.609741 15.609741 15.609741 15.609741 15.609741 15.609741 15.609741 15.609741 15.609741 15.609741 15.609741 15.609741 15.609741 15.609741 15.609741 15.609741 23.867798 8.963013 1.1077881 16.516113 11.279297 21.148682 30.111694 24.673462 32.226562 25.881958 30.715942 21.853638 17.321777 13.696289 18.127441 29.205322 23.364258 6.6467285 -5.3375244 11.682129 23.464966 22.457886 -13.796997 -34.744263 -32.83081 -18.429565 -11.883545 7.2509766 16.918945 -17.019653 -46.627808 -57.806396 -57.10144 -25.78125 -6.9488525 8.560181 -1.6113281 -1.5106201 13.595581 2.4169922 -25.881958 -22.055054 -2.9205322 18.026733 46.627808 58.511353 18.22815 -11.782837 13.998413 30.31311 48.742676 80.36499 58.61206 -28.198242 -85.5011 -60.928345 0.10070801 90.83862 139.78271 166.77246 
35.549927 30.615234 13.092041 2.2155762 6.9488525 18.832397 20.846558 33.9386 61.12976 95.37048 125.079346 125.88501 118.43262 106.64978 104.13208 105.6427 104.23279 82.177734 35.046387 -42.095947 -96.67969 -111.68518 -99.49951 -93.35632 -53.07312 -37.46338 -45.41931 -36.4563 -28.097534 -29.910278 -7.5531006 19.638062 34.240723 61.532593 88.52234 103.125 111.68518 92.248535 50.656128 -1.6113281 -59.518433 -54.281616 -22.961426 5.6396484 40.182495 57.20215 68.481445 51.461792 60.324097 67.67578 62.841797 82.177734 105.944824 112.490845 102.01721 59.71985 -9.365845 -52.770996 -115.91492 -161.23352 -133.43811 -132.43103 -176.44043 -240.2893 -284.2987 -308.0658 -260.3302 -186.1084 -128.80554 -88.0188 -45.620728 -26.28479 -12.991333 0.80566406 4.1290283 4.6325684 17.321777 27.493286 33.636475 25.378418 18.630981 42.800903 60.72693 66.56799 48.44055 56.900024 67.17224 56.295776 35.34851 -12.991333 -84.59473 -110.57739 -72.40906 -39.678955 -16.415405 24.77417 37.96692 48.138428 63.546753 55.08728 30.010986 9.063721 -36.85913 -99.298096 -84.39331 -81.37207 -80.86853 -59.518433 -40.182495 -23.76709 -16.113281 -7.3516846 -3.1219482 -6.7474365 -1.6113281 9.466553 16.71753 22.659302 23.062134 28.29895 27.996826 26.083374 23.062134 45.41931 33.032227 29.104614 34.744263 57.806396 93.15491 128.90625 135.04944 130.51758 125.98572 101.61438 74.020386 36.85913 9.164429 -5.4382324 21.652222 50.253296 71.20056 59.21631 52.166748 37.86621 16.012573 -21.652222 -62.338257 -94.66553 -110.476685 -113.09509 -132.0282 -143.3075 -135.35156 -95.47119 -83.688354 -75.027466 -73.71826 -54.18091 -31.622314 -25.982666 -23.867798 -10.775757 2.2155762 24.673462 35.95276 64.55383 98.19031 77.84729 76.638794 86.91101 89.730835 74.2218 61.431885 37.261963 -15.005493 -60.525513 -74.72534 -58.007812 -48.339844 -28.198242 -37.765503 -60.021973 -61.431885 -63.043213 -43.90869 -37.765503 -37.86621 -27.694702 -20.040894 -9.063721 -2.8198242 -4.4311523 8.358765 40.686035 63.848877 69.38782 84.09119 92.85278 114.505005 112.89368 108.56323 93.35632 75.93384 52.166748 40.182495 68.17932 98.49243 118.2312 146.83228 153.27759 138.67493 118.533325 71.502686 -29.003906 -75.128174 -50.05188 -42.095947 -31.924438 -28.29895 -8.660889 
-3113.8916 -3099.4902 -3084.8877 -3069.882 -3055.481 -3041.281 -2352.1362 554.2969 3299.8992 3299.8992 3299.8992 3299.8992 3299.8992 3299.8992 3299.8992 3299.8992 3299.8992 3299.8992 3299.8992 3299.8992 3299.8992 3299.8992 3299.8992 3299.8992 3298.7915 3282.1746 726.30615 3282.6782 3299.4963 -3283.8867 -3267.3706 -3251.1565 -3235.0432 -3219.0308 -3203.3203 -3187.7104 -3172.2014 -3156.8938 -3141.687 -3126.6814 -3111.7766 -3096.5698 -3082.3699 -3067.465 -3053.064 -3038.864 -2145.282 880.5908 3299.8992 3299.8992 3299.8992 3299.8992 3299.8992 3299.8992 3299.8992 3299.8992 3299.8992 3299.8992 3299.8992 3299.8992 3299.8992 3299.8992 3299.8992 3299.8992 3298.3887 3281.6711 -91.34216 3284.2896 3299.8992 -3282.1746 -3265.7593 -3249.4446 -3233.432 -3217.52 -3201.8096 -3186.099 -3170.691 -3155.3833 -3140.277 -3125.07 -3110.266 -3095.16 -3080.3557 -3066.2566 -3051.956 -3037.555 -2070.3552 897.6105 3299.8992 3299.8992 3299.8992 3299.8992 3299.8992 3299.8992 3299.8992 3299.8992 3299.8992 3299.8992 3299.8992 3299.8992 3299.8992 3299.8992 3299.8992 3299.8992 3299.3958 3282.5774 -1220.1782 3288.0156 3299.8992 -3278.65 -3262.2344 -3246.0205 -3230.0078 -3214.096 -3198.3855 -3182.8765 -3167.3674 -3152.0598 -3136.853 -3121.8474 -3107.0435 -3091.9373 -3077.6367 -3062.8325 -3048.532 -3034.3323 -1616.9678 1557.7515 3299.8992 3299.8992 3299.8992 3299.8992 3299.8992 3299.8992 3299.8992 3299.8992 3299.8992 3299.8992 3299.8992 3299.8992 3299.8992 3299.8992 3299.8992 3299.8992 3296.878 3279.959 -2170.3582 3287.7136 3299.8992 -3279.0527 -3262.5366 -3246.3225 -3230.31 -3214.4988 -3198.7883 -3183.1787 -3167.6697 -3152.362 -3137.2559 -3122.1497 -3107.3455 -3092.34 -3077.536 -3063.5376 -3049.1362 -3034.6343 -1517.7704 1533.3801 3299.8992 3299.8992 3299.8992 3299.8992 3299.8992 3299.8992 3299.8992 3299.8992 3299.8992 3299.8992 3299.8992 3299.8992 3299.8992 3299.8992 3299.8992 3299.8992 3295.6694 3278.952 -3229.4036 3289.4255 -3293.8567 -3277.3406 -3260.9253 -3244.7112 -3228.7993 -3212.7869 -3197.0764 -3181.5674 -3166.0583 -3150.7507 -3135.745 -3120.639 -3105.835 -3091.4336 -3076.831 -3061.9263 -3047.6257 -3033.5266 -1551.2054 1512.3322 3299.8992 3299.8992 3299.8992 3299.8992 3299.8992 3299.8992 3299.8992 3299.8992 3299.8992 3299.8992 3299.8992 3299.8992 
-3142.7947 -3128.595 -3114.8987 -3101.1016 -3087.506 -3073.9104 -1831.4758 661.5509 3299.8992 3299.8992 3299.8992 3299.8992 3299.8992 3299.8992 3299.8992 3299.8992 3299.8992 3299.8992 3299.8992 3299.8992 3299.8992 3299.8992 3299.8992 3298.2878 3283.383 3267.9749 458.62427 3268.881 3284.793 3299.8992 -3284.2896 -3269.0825 -3254.0771 -3239.0715 -3224.2676 -3209.6648 -3194.9614 -3180.661 -3166.2598 -3152.1606 -3138.0615 -3123.9624 -3110.266 -3096.5698 -3083.075 -3069.7815 -1226.4221 1244.751 3299.8992 3299.8992 3299.8992 3299.8992 3299.8992 3299.8992 3299.8992 3299.8992 3299.8992 3299.8992 3299.8992 3299.8992 3299.8992 3299.8992 3299.8992 3296.7773 3281.9731 3266.464 27.191162 3268.6797 3284.491 3299.8992 -3284.5916 -3269.284 -3254.2786 -3239.273 -3224.5696 -3209.7656 -3195.3643 -3180.8623 -3166.5618 -3152.362 -3138.3635 -3124.1638 -3110.568 -3096.7712 -3083.2764 -3042.691 -668.49976 1750.5066 3299.8992 3299.8992 3299.8992 3299.8992 3299.8992 3299.8992 3299.8992 3299.8992 3299.8992 3299.8992 3299.8992 3299.8992 3299.8992 3299.8992 3299.8992 3290.9363 3276.132 3260.4216 -1101.3428 3265.8599 3281.5703 3297.0793 -3287.4114 -3272.2046 -3257.199 -3242.1936 -3227.4902 -3212.7869 -3198.0835 -3183.6821 -3169.4824 -3155.2825 -3141.0828 -3126.9836 -3113.2874 -3099.591 -3085.9954 -3067.465 -862.06055 1520.0867 3299.8992 3299.8992 3299.8992 3299.8992 3299.8992 3299.8992 3299.8992 3299.8992 3299.8992 3299.8992 3299.8992 3299.8992 3299.8992 3299.8992 3299.8992 3290.7349 3275.7292 3260.1196 -1573.8647 3266.6655 3282.4768 3298.0864 -3286.5051 -3271.298 -3256.2927 -3241.287 -3226.4832 -3211.7798 -3197.2778 -3182.8765 -3168.576 -3154.4768 -3140.277 -3126.178 -3112.5823 -3098.886 -3085.1897 -2855.7769 -506.662 1828.656 3299.8992 3299.8992 3299.8992 3299.8992 3299.8992 3299.8992 3299.8992 3299.8992 3299.8992 3299.8992 3299.8992 3299.8992 3299.8992 3299.8992 3299.8992 3287.4114 3272.5066 3256.897 -2571.2769 3265.9607 3281.6711 3297.1802 -3287.4114 -3272.1038 -3257.0984 -3242.0928 -3227.2888 -3212.686 -3198.184 -3183.6821 -3169.3816 -3155.2825 -3141.0828 -3127.0842 -3113.2874 -3099.591 -3085.9954 -2885.7878 -548.2544 1810.3271 3299.8992 3299.8992 3299.8992 3299.8992 3299.8992 3299.8992 3299.8992 3299.8992 3299.8992 3299.8992 3299.8992 3299.8992 
3172.3022 3157.6995 3143.097 3128.9978 3112.0789 2448.0103 573.6328 -1163.2782 -2534.015 3122.351 3138.263 3153.8726 3169.4824 3184.9915 3200.299 3215.5059 3230.8135 3245.9197 3261.026 3275.83 3290.634 3299.8992 -3279.7576 -3265.2556 -3250.955 -3236.554 -636.3739 3299.8992 3299.8992 3299.8992 3299.8992 3299.8992 3288.8213 3273.816 3259.2131 3244.2078 3229.4036 3214.5996 3199.9968 3185.2935 3170.691 3156.0881 3141.8884 3127.7893 3109.7625 2186.0686 273.62366 -1345.1569 -2598.6694 3125.171 3140.8813 3156.7932 3172.2014 3187.7104 3203.018 3218.3257 3233.432 3248.538 3263.4429 3278.4485 3293.4539 -3292.044 -3277.24 -3262.738 -3248.0347 -3233.7341 -223.26965 3299.8992 3299.8992 3299.8992 3299.8992 3299.8992 3289.9292 3275.125 3260.321 3245.5168 3230.713 3215.9087 3201.1047 3186.502 3171.8994 3157.3975 3142.694 3128.3936 3111.676 2291.3086 411.59363 -1196.0083 -2461.3037 3125.8757 3139.4714 3155.182 3170.691 3186.2 3201.6082 3216.8152 3231.9214 3247.0276 3262.2344 3276.9377 3291.641 3299.8992 -3278.952 -3264.3494 -3250.1494 -3235.7483 276.34277 3299.8992 3299.8992 3299.8992 3299.8992 3299.8992 3285.6995 3271.0967 3256.192 3241.4885 3226.6846 3211.8804 3197.177 3182.5745 3168.173 3153.3691 3139.0686 3125.171 3105.9355 1980.5237 -4.3304443 -1623.9166 -2911.67 3127.588 3143.399 3159.1094 3174.6184 3190.0269 3205.3345 3220.642 3235.7483 3250.7537 3265.8599 3280.7646 3295.468 -3289.8284 -3274.9236 -3260.4216 -3245.819 -3231.6191 726.6083 3299.8992 3299.8992 3299.8992 3299.8992 3299.8992 3288.3179 3273.6145 3258.8103 3243.9055 3229.1016 3214.2974 3199.6948 3184.9915 3170.288 3155.7861 3141.2842 3126.7822 3106.4392 1807.4066 -54.382324 -1659.8694 -2983.374 3131.7168 3147.4272 3163.2385 3178.7476 3194.0552 3209.3628 3224.6704 3239.7766 3254.782 3269.7876 3284.6924 3299.4963 -3285.8 -3271.399 -3256.7961 -3242.697 -3228.3965 1352.8107 3299.8992 3299.8992 3299.8992 3299.8992 3299.8992 3289.1235 3274.2188 3259.4146 3244.7112 3229.7058 3215.0024 3200.299 3185.5957 3170.993 3156.3904 3142.1904 3127.89 3098.3826 1628.4485 -193.86292 -1641.3391 -2768.6646 3132.6233 3148.4343 3164.0442 3179.7546 3195.1628 3210.4705 3225.5767 3240.7837 3255.9905 3270.7947 3285.6995 
-3025.3691 -3011.3708 -2997.171 -2983.5754 -2969.9797 -2956.3843 -2160.2874 -517.43774 1013.5254 2452.24 3299.8992 3299.8992 3299.8992 3299.8992 3299.8992 3299.8992 3299.8992 3299.8992 3299.8992 3299.8992 3299.8992 3299.8992 3299.8992 3299.8992 3299.8992 3299.8992 2752.6519 -3223.361 -3207.2478 -3191.6382 -3176.4312 -3161.1235 -3146.0173 -3131.012 -3116.3086 -3101.6052 -3087.0024 -3072.5005 -3058.2 -3043.8994 -3029.8003 -3015.802 -3002.1057 -2988.1072 -2974.2095 -2960.7146 -2289.2944 -663.6658 921.9818 2407.1228 3299.8992 3299.8992 3299.8992 3299.8992 3299.8992 3299.8992 3299.8992 3299.8992 3299.8992 3299.8992 3299.8992 3299.8992 3299.8992 3299.8992 3299.8992 3299.8992 2266.5344 -3222.9583 -3207.2478 -3191.4368 -3176.1292 -3160.922 -3145.816 -3130.9111 -3116.0063 -3101.303 -3086.801 -3072.4 -3057.9985 -3043.7988 -3029.6997 -3015.6006 -3002.005 -2988.0066 -2974.2095 -2960.5132 -2598.9714 -1143.9423 378.4607 1893.8141 2939.264 3299.8992 3299.8992 3299.8992 3299.8992 3299.8992 3299.8992 3299.8992 3299.8992 3299.8992 3299.8992 3299.8992 3299.8992 3299.8992 3299.8992 3299.8992 1963.9069 -3211.4775 -3195.5657 -3179.956 -3164.5476 -3149.5422 -3134.436 -3119.5312 -3104.727 -3090.225 -3075.6226 -3061.2212 -3047.0215 -3032.8215 -3018.7224 -3004.724 -2990.7256 -2977.0293 -2963.5344 -2950.0396 -2396.9512 -804.05273 704.0497 2225.1433 3198.587 3299.8992 3299.8992 3299.8992 3299.8992 3299.8992 3299.8992 3299.8992 3299.8992 3299.8992 3299.8992 3299.8992 3299.8992 3299.8992 3299.8992 3299.8992 1523.0072 -3205.536 -3189.624 -3174.0142 -3158.908 -3143.6003 -3128.595 -3113.7908 -3099.0874 -3084.4849 -3070.0835 -3055.5815 -3041.3818 -3027.2827 -3013.1836 -2999.185 -2985.1868 -2971.692 -2958.0962 -2944.6013 -1978.3081 -456.4087 938.80005 2366.7388 3299.8992 3299.8992 3299.8992 3299.8992 3299.8992 3299.8992 3299.8992 3299.8992 3299.8992 3299.8992 3299.8992 3299.8992 3299.8992 3299.8992 3299.8992 3299.8992 1126.0162 -3203.6223 -3187.8113 -3172.2014 -3156.9946 -3141.7876 -3126.7822 -3111.978 -3097.2747 -3082.672 -3068.1702 -3053.7688 -3039.569 -3025.47 -3011.3708 -2997.4731 -2984.0789 -2970.0806 -2956.3843 -2942.8894 -2297.1497 -682.5989 844.7388 2327.765 3253.473 3299.8992 3299.8992 3299.8992 3299.8992 3299.8992 3299.8992 3299.8992 3299.8992 3299.8992 
3128.9978 3114.093 3098.6846 3084.2834 3039.1663 2014.3616 579.9774 -899.72534 -1611.3281 -2394.3328 -3237.6616 3102.411 3119.1284 3135.846 3152.2612 3168.4753 3184.79 3200.9033 3216.9158 3232.8276 3248.639 3264.5508 3279.8584 3295.7703 -3288.7207 -3273.5137 -852.4933 3299.8992 3299.8992 3295.9717 3281.1675 3265.9607 3250.8545 3235.5469 3220.3398 3205.0322 3189.624 3174.115 3158.7065 3143.399 3128.0913 3113.1865 3097.9797 3083.377 3035.44 2114.3645 694.1803 -807.4768 -1394.3024 -2175.8972 -3014.694 3097.0732 3113.6902 3130.4077 3146.7224 3163.1377 3179.5532 3195.5657 3211.679 3227.4902 3243.402 3259.2131 3274.6216 3290.5334 3299.8992 -3278.65 -702.6398 3299.8992 3299.8992 3290.4326 3275.5278 3260.4216 3245.3154 3230.2092 3214.9016 3199.594 3184.085 3168.6768 3153.2683 3138.0615 3122.9553 3107.9497 3092.5415 3077.536 2921.8413 1784.848 291.9525 -1165.4938 -1744.3634 -2482.8552 -3163.339 3101.303 3118.1213 3134.738 3151.1536 3167.4683 3183.5815 3199.8962 3215.808 3231.72 3247.6318 3263.4429 3278.65 3294.5618 -3289.9292 -3274.6216 -120.95032 3299.8992 3299.8992 3290.9363 3275.9307 3260.9253 3245.7183 3230.5115 3215.3044 3199.7954 3184.4878 3168.9788 3153.5706 3138.3635 3123.2573 3108.3525 3093.4478 3078.4424 2974.109 1859.6741 365.9729 -1142.9352 -1760.7788 -2439.6514 -3139.7734 3100.4973 3117.2148 3133.731 3150.247 3166.5618 3182.776 3198.9897 3214.9016 3230.9143 3246.8262 3262.5366 3278.549 3293.8567 -3290.7349 -3275.2258 137.0636 3299.8992 3299.8992 3288.922 3273.9165 3258.8103 3243.704 3228.4973 3213.2903 3197.882 3182.4736 3167.166 3151.5564 3136.3494 3121.344 3106.3384 3091.635 3076.5288 2915.1946 1719.2871 337.97607 -1115.9454 -1716.9708 -2418.3013 -3124.4658 3099.1882 3115.9058 3132.5225 3149.0386 3165.454 3181.668 3197.7812 3213.693 3229.605 3245.5168 3261.3281 3277.24 3292.749 -3291.9434 -3276.6357 637.6831 3299.8992 3299.8992 3284.6924 3269.6868 3254.5806 3239.4744 3224.3682 3209.0605 3193.753 3178.4453 3162.9363 3147.6287 3132.4219 3117.3157 3102.411 3087.7075 3071.1914 2764.8376 1487.4573 50.253296 -1359.4574 -1921.8109 -2644.7937 3267.2698 3102.5115 3119.0276 3135.5437 3152.0598 3168.3745 3184.6892 3200.702 3216.8152 3232.5256 
-3010.1624 -2925.2654 -2470.7703 -2096.8413 -1850.711 -1488.0615 -906.4728 -413.8092 -108.462524 245.52612 682.901 928.93066 1983.5449 3299.8992 3299.8992 3299.8992 3299.8992 3299.8992 3299.8992 3299.8992 3299.8992 3299.8992 3299.8992 3299.8992 3299.8992 3299.8992 1390.3748 -1122.3907 -2846.0083 -3158.4045 -3143.2983 -3128.3936 -3113.7908 -3099.3896 -3084.8877 -3070.6877 -3056.5886 -3042.389 -3028.4912 -3014.5935 -3000.6958 -2734.021 -2299.2644 -1873.7732 -1426.831 -1059.7504 -667.29126 -230.31921 63.64746 302.42615 712.7106 963.1714 1996.7377 3299.8992 3299.8992 3299.8992 3299.8992 3299.8992 3299.8992 3299.8992 3299.8992 3299.8992 3299.8992 3299.8992 3299.8992 3299.8992 1297.3206 -1103.7598 -2758.6943 -3158.5051 -3143.4998 -3128.7964 -3113.9922 -3099.6917 -3085.1897 -3070.8892 -3056.79 -3042.5903 -3028.5918 -3014.694 -3000.8972 -2979.547 -2651.541 -2228.064 -1763.2965 -1279.6967 -839.1998 -561.9507 -292.25464 78.048706 484.50623 944.339 2191.104 3299.8992 3299.8992 3299.8992 3299.8992 3299.8992 3299.8992 3299.8992 3299.8992 3299.8992 3299.8992 3299.8992 3299.8992 3299.8992 1146.9635 -1148.0713 -2811.4653 -3147.0244 -3132.1196 -3117.3157 -3102.713 -3088.211 -3073.9104 -3059.6099 -3045.4102 -3031.4116 -3017.514 -3003.6162 -2989.92 -2765.6433 -2339.0442 -1899.6552 -1319.8792 -879.9866 -364.05945 -58.20923 141.29333 307.05872 680.1819 1121.1823 2375.601 3299.8992 3299.8992 3299.8992 3299.8992 3299.8992 3299.8992 3299.8992 3299.8992 3299.8992 3299.8992 3299.8992 3299.8992 3188.214 594.7815 -1630.1605 -3161.6272 -3146.4202 -3131.4148 -3116.7114 -3102.2095 -3087.6067 -3073.3062 -3059.0056 -3044.806 -3031.0088 -3017.111 -3003.3142 -2989.517 -2775.6133 -2269.757 -1786.6608 -1374.2615 -961.35864 -382.2876 20.74585 280.4718 590.55176 848.16284 1319.6777 2594.943 3299.8992 3299.8992 3299.8992 3299.8992 3299.8992 3299.8992 3299.8992 3299.8992 3299.8992 3299.8992 3299.8992 3299.8992 3242.5964 796.0968 -1484.0332 -3168.3745 -3153.3691 -3138.3635 -3123.4587 -3108.8562 -3094.3542 -3079.953 -3065.6523 -3051.4526 -3037.454 -3023.6572 -3009.86 -2996.0632 -2715.8936 -2163.8123 -1770.8496 -1321.1884 -887.8418 -472.11914 -202.82593 -26.687622 140.08484 512.40234 986.0321 2355.7617 3299.8992 3299.8992 3299.8992 3299.8992 3299.8992 3299.8992 3299.8992 

148.74573 107.35474 51.864624 14.401245 -22.357178 -107.958984 -118.43262 -76.23596 -52.56958 -35.95276 -11.682129 11.581421 6.4453125 35.650635 63.24463 50.253296 22.055054 -45.41931 -105.84412 -121.35315 -99.801636 -80.06287 -44.210815 -21.148682 -0.80566406 33.83789 36.254883 18.832397 3.6254883 -9.667969 -43.807983 -36.254883 -13.092041 -5.0354004 -16.616821 -32.83081 -33.535767 -19.638062 -4.4311523 12.387085 13.092041 19.638062 8.258057 -14.300537 -24.673462 -29.003906 -1.4099121 15.811157 5.2368164 -13.092041 -19.335938 -13.897705 -27.896118 -40.182495 -26.083374 3.5247803 22.76001 37.664795 37.96692 26.687622 4.9346924 15.609741 43.304443 73.31543 102.72217 149.45068 188.12256 171.50574 173.31848 145.32166 51.260376 -107.15332 -214.81018 -300.5127 -325.08545 -267.07764 -207.25708 -160.9314 -106.448364 -49.749756 -9.365845 21.652222 49.246216 75.22888 80.36499 73.516846 69.89136 65.86304 60.62622 42.297363 27.493286 12.991333 11.682129 20.141602 20.74585 27.29187 26.184082 9.970093 24.169922 52.468872 83.48694 113.497925 128.60413 104.13208 99.09668 110.37598 77.142334 -1.5106201 -42.297363 -39.276123 -63.345337 -38.974 -22.860718 -63.043213 -77.948 -31.82373 14.804077 14.804077 -22.76001 -60.827637 -93.15491 -94.86694 -68.78357 -37.86621 -26.687622 -27.593994 -15.307617 -7.5531006 -7.8552246 -8.963013 -12.689209 -16.113281 -19.436646 -21.047974 -32.226562 -23.666382 -14.904785 -18.933105 -21.652222 -24.673462 -24.673462 -24.673462 -24.673462 -24.673462 -24.673462 -24.673462 -24.673462 -24.673462 -24.673462 -24.673462 -24.673462 -24.673462 -24.673462 -24.673462 -24.673462 -24.673462 -24.673462 -24.673462 -24.673462 -24.673462 -24.673462 -24.673462 -24.673462 -24.673462 -24.673462 -24.673462 -24.673462 -24.673462 -24.673462 -24.673462 -24.673462 -24.673462 -24.673462 -24.673462 -24.673462 -24.673462 -24.673462 -24.673462 -24.673462 -24.673462 -37.36267 -19.033813 -29.608154 -41.088867 -36.053467 -4.8339844 27.996826 47.634888 74.12109 106.04553 107.55615 133.63953 130.11475 98.0896 -2.8198242 -71.20056 -63.043213 -52.368164 -31.118774 -13.092041 
-13.192749 -15.811157 -41.4917 -52.670288 -59.014893 -98.49243 -84.79614 -27.191162 -1.2084961 -25.78125 -59.21631 -86.60889 -78.35083 -68.984985 -95.5719 -158.4137 -160.02502 -131.22253 -97.08252 -69.38782 -53.57666 -59.820557 -83.184814 -81.170654 -54.0802 -21.75293 -10.574341 3.8269043 10.574341 2.3162842 -7.0495605 3.4240723 11.480713 0.20141602 4.8339844 -14.904785 -49.44763 -47.735596 -29.708862 -6.6467285 6.2438965 13.696289 19.638062 13.998413 0.70495605 -10.876465 -9.466553 -11.279297 -18.530273 -17.22107 -13.897705 -6.2438965 -6.5460205 -0.9063721 11.581421 13.494873 2.2155762 9.063721 20.74585 31.521606 49.649048 84.695435 111.68518 173.41919 209.17053 233.13904 248.24524 229.71497 217.12646 202.62451 172.91565 105.340576 30.715942 -60.021973 -91.34216 -51.361084 -12.185669 -36.35559 -81.97632 -110.77881 -145.12024 -178.35388 -188.82751 -181.67725 -157.70874 -142.90466 -116.41846 -104.837036 -80.163574 -49.850464 -24.371338 -7.3516846 14.300537 44.41223 61.935425 74.42322 85.60181 93.0542 72.61047 52.267456 33.233643 29.406738 17.926025 11.782837 -9.869385 -37.161255 -46.124268 -30.413818 -34.34143 -28.29895 -24.27063 -4.7332764 -11.077881 -65.05737 -94.06128 -91.241455 -55.69153 -24.673462 1.0070801 10.876465 10.876465 10.876465 10.876465 10.876465 10.876465 10.876465 10.876465 10.876465 10.876465 10.876465 10.876465 10.876465 10.876465 10.876465 10.876465 10.876465 10.876465 10.876465 10.876465 10.876465 33.636475 30.413818 32.42798 36.657715 36.35559 37.564087 29.30603 33.132935 24.874878 36.85913 42.196655 43.707275 51.260376 69.58923 95.269775 123.065186 134.34448 138.47351 149.24927 133.13599 99.19739 90.13367 96.67969 87.213135 70.3949 35.85205 16.314697 12.991333 10.272217 -11.581421 -5.4382324 8.459473 1.3092041 74.2218 141.09192 133.63953 61.331177 28.500366 13.696289 -0.60424805 26.28479 59.921265 48.239136 -12.084961 -17.422485 -14.401245 -19.839478 -73.11401 -133.03528 -154.38538 -199.70398 -187.11548 -183.79211 -187.01477 -194.66858 -162.64343 -137.76855 -120.7489 -130.719 -152.87476 
3299.8992 3299.8992 3299.8992 3299.8992 3297.4822 3280.3618 3275.5278 3292.8496 -3290.5334 -3273.9165 -3257.6018 -3241.4885 -3225.476 -3209.5642 -3193.8538 -3178.3447 -3162.9363 -3147.6287 -3132.5225 -3117.6177 -3102.713 -3087.7075 -3073.6084 -3058.6028 -3044.3022 -3030.2031 -1083.1146 2125.3418 3299.8992 3299.8992 3299.8992 3299.8992 3299.8992 3299.8992 3299.8992 3299.8992 3299.8992 3299.8992 3299.8992 3299.8992 3299.8992 3299.8992 3299.8992 3299.8992 3295.166 3278.0457 3276.233 3293.3533 -3289.9292 -3273.413 -3256.9976 -3240.8843 -3224.8718 -3209.0605 -3193.35 -3177.841 -3162.332 -3147.0244 -3132.019 -3117.0134 -3102.2095 -3087.808 -3072.8027 -3058.7036 -3044.403 -3030.1025 -982.3059 2261.2976 3299.8992 3299.8992 3299.8992 3299.8992 3299.8992 3299.8992 3299.8992 3299.8992 3299.8992 3299.8992 3299.8992 3299.8992 3299.8992 3299.8992 3299.8992 3299.8992 3294.461 3276.9377 3277.6428 3294.6624 -3288.5193 -3272.1038 -3255.6885 -3239.4744 -3223.5625 -3207.7515 -3192.041 -3176.6326 -3161.1235 -3145.816 -3130.7097 -3115.805 -3100.9001 -3085.9954 -3071.6948 -3056.9915 -3042.691 -3028.5918 -909.69543 2295.7397 3299.8992 3299.8992 3299.8992 3299.8992 3299.8992 3299.8992 3299.8992 3299.8992 3299.8992 3299.8992 3299.8992 3299.8992 3299.8992 3299.8992 3299.8992 3299.8992 3295.166 3277.542 3280.1604 3297.2808 -3286.1023 -3269.5862 -3253.1707 -3237.1582 -3221.1455 -3205.2336 -3189.624 -3174.115 -3158.7065 -3143.4998 -3128.3936 -3113.5894 -3098.6846 -3083.5784 -3069.1772 -3054.9773 -3040.7776 -2863.632 -361.84387 2774.5056 3299.8992 3299.8992 3299.8992 3299.8992 3299.8992 3299.8992 3299.8992 3299.8992 3299.8992 3299.8992 3299.8992 3299.8992 3299.8992 3299.8992 3299.8992 3299.8992 3292.044 3271.4995 3280.1604 3297.2808 -3286.1023 -3269.5862 -3253.2715 -3237.1582 -3221.1455 -3205.2336 -3189.624 -3174.115 -3158.8074 -3143.4998 -3128.595 -3113.5894 -3098.6846 -3084.4849 -3069.983 -3055.0781 -3040.7776 -2963.7358 -616.63513 2613.4734 3299.8992 3299.8992 3299.8992 3299.8992 3299.8992 3299.8992 3299.8992 3299.8992 3299.8992 3299.8992 3299.8992 3299.8992 
3299.8992 3299.8992 3299.8992 3287.1094 3272.1038 3256.6956 3251.9622 3268.0754 3283.786 3299.4963 -3285.1958 -3270.0896 -3254.9834 -3239.978 -3225.2747 -3210.6719 -3196.17 -3181.7688 -3167.3674 -3153.1677 -3139.1692 -3125.473 -3111.3738 -3097.577 -3084.1826 -2584.5703 -38.067627 2275.296 3299.8992 3299.8992 3299.8992 3299.8992 3299.8992 3299.8992 3299.8992 3299.8992 3299.8992 3299.8992 3299.8992 3299.8992 3299.8992 3299.8992 3298.2878 3283.383 3268.3777 3253.07 3249.948 3265.9607 3281.7717 3297.3816 -3287.3108 -3272.1038 -3256.9976 -3242.0928 -3227.2888 -3212.686 -3198.0835 -3183.6821 -3169.3816 -3155.182 -3141.0828 -3127.3865 -3113.1865 -3099.591 -3085.9954 -2591.9219 -13.998413 2345.993 3299.8992 3299.8992 3299.8992 3299.8992 3299.8992 3299.8992 3299.8992 3299.8992 3299.8992 3299.8992 3299.8992 3299.8992 3299.8992 3299.8992 3295.8708 3281.1675 3266.162 3250.653 3250.653 3266.6655 3282.4768 3297.885 -3286.6057 -3271.399 -3256.3933 -3241.4885 -3226.7852 -3212.0818 -3197.4792 -3182.9773 -3168.8782 -3154.5776 -3140.68 -3126.9836 -3112.7837 -3099.0874 -3085.492 -2562.3137 45.52002 2437.9395 3299.8992 3299.8992 3299.8992 3299.8992 3299.8992 3299.8992 3299.8992 3299.8992 3299.8992 3299.8992 3299.8992 3299.8992 3299.8992 3299.8992 3295.6694 3280.8655 3265.9607 3249.2432 3251.8616 3267.874 3283.484 3299.0935 -3285.5986 -3270.3918 -3255.3862 -3240.4814 -3225.778 -3211.0747 -3196.4722 -3182.0708 -3167.7703 -3153.5706 -3139.572 -3125.8757 -3111.7766 -3098.0803 -3084.4849 -2389.1968 2.6184082 2276.5044 3299.8992 3299.8992 3299.8992 3299.8992 3299.8992 3299.8992 3299.8992 3299.8992 3299.8992 3299.8992 3299.8992 3299.8992 3299.8992 3299.8992 3297.0793 3282.1746 3267.2698 3182.8765 3256.0913 3272.1038 3287.7136 3299.8992 -3281.4697 -3266.2627 -3251.2573 -3236.3525 -3221.6492 -3206.9458 -3192.4438 -3178.1433 -3163.8428 -3149.7437 -3135.6445 -3121.5454 -3107.9497 -3094.2534 -3080.7585 -1759.671 768.5028 2992.035 3299.8992 3299.8992 3299.8992 3299.8992 3299.8992 3299.8992 3299.8992 3299.8992 3299.8992 3299.8992 3299.8992 3299.8992 
3299.8992 -3284.9944 -3270.0896 -3255.487 -3241.388 -3227.0874 1842.1509 3299.8992 3299.8992 3299.8992 3299.8992 3299.8992 3288.4185 3273.9165 3258.9111 3244.107 3229.1016 3214.2974 3199.594 3184.9915 3170.4895 3155.7861 3141.5862 3127.2856 3107.144 1751.3123 -91.64429 -1629.2542 -2905.6274 3131.9182 3147.6287 3163.2385 3178.949 3194.3572 3209.5642 3224.8718 3239.978 3255.0842 3270.0896 3284.9944 3299.7986 -3285.5986 -3271.1975 -3256.4941 -3242.4956 -3228.296 2465.0298 3299.8992 3299.8992 3299.8992 3299.8992 3299.8992 3285.1958 3270.3918 3255.487 3240.7837 3225.9795 3211.2761 3196.4722 3181.8694 3167.2668 3152.664 3138.565 3124.2644 3036.0442 1506.9946 -299.5056 -1716.2659 -2901.2969 3131.4148 3147.2258 3162.9363 3178.3447 3193.8538 3209.1614 3224.2676 3239.5752 3254.5806 3269.4854 3284.3901 3299.1943 -3286.203 -3271.298 -3256.6956 -3242.5964 -3211.679 2940.8752 3299.8992 3299.8992 3299.8992 3299.8992 3297.7844 3283.1816 3268.3777 3253.5735 3238.7695 3223.9653 3209.1614 3194.458 3179.8552 3165.454 3150.7507 3136.6516 3122.1497 2989.4165 1300.2411 -494.0735 -1919.696 -3079.953 3133.6304 3149.3408 3165.0513 3180.5603 3195.9685 3211.2761 3226.3823 3241.5894 3256.6956 3271.6003 3286.4043 3299.8992 -3284.0881 -3269.6868 -3255.487 -3240.6829 -3073.407 3299.8992 3299.8992 3299.8992 3299.8992 3299.8992 3297.6836 3283.081 3268.1763 3253.473 3238.568 3223.8647 3208.96 3194.3572 3179.6538 3165.0513 3150.65 3136.0474 3121.7468 2782.4614 965.38696 -823.8922 -2107.013 -3258.5083 3137.9607 3153.772 3169.3816 3184.79 3200.0977 3215.4053 3230.612 3245.7183 3260.9253 3275.7292 3290.5334 3299.8992 -3280.0598 -3265.2556 -3250.653 -3236.6545 -2775.2104 3299.8992 3299.8992 3299.8992 3299.8992 3299.8992 3299.0935 3284.491 3269.6868 3254.6814 3239.978 3225.1738 3210.269 3195.6665 3180.9631 3166.5618 3151.8584 3137.6587 3123.2573 2707.434 921.27686 -804.8584 -2254.1472 3180.5603 3141.5862 3157.3975 3172.9065 3188.214 3203.6223 3219.1313 3234.137 3249.3438 3264.3494 3279.1533 3293.9575 
3299.8992 3299.8992 3299.8992 3299.8992 3299.8992 3299.8992 741.1102 -3197.4792 -3181.668 -3166.2598 -3150.9521 -3135.6445 -3120.7397 -3106.0364 -3091.333 -3076.7302 -3062.329 -3048.0286 -3033.728 -3019.629 -3005.6304 -2991.8335 -2978.3386 -2964.34 -2950.7446 -2937.3503 -1857.1564 -245.72754 1160.7605 2664.734 3299.8992 3299.8992 3299.8992 3299.8992 3299.8992 3299.8992 3299.8992 3299.8992 3299.8992 3299.8992 3299.8992 3299.8992 3299.8992 3299.8992 3299.8992 3299.8992 -173.92273 -3195.6665 -3179.956 -3164.6484 -3149.24 -3134.1338 -3119.229 -3104.425 -3089.7217 -3075.119 -3060.7178 -3046.6187 -3032.2173 -3018.219 -3004.2205 -2990.3228 -2976.2236 -2962.8296 -2949.3347 -2871.286 -1528.5461 -21.954346 1277.0782 2822.2412 3299.8992 3299.8992 3299.8992 3299.8992 3299.8992 3299.8992 3299.8992 3299.8992 3299.8992 3299.8992 3299.8992 3299.8992 3299.8992 3299.8992 3299.8992 3299.8992 -450.2655 -3197.2778 -3181.5674 -3166.159 -3150.8513 -3135.745 -3120.8403 -3106.0364 -3091.333 -3076.7302 -3062.329 -3048.0286 -3033.8286 -3019.7295 -3005.6304 -2991.8335 -2978.3386 -2964.441 -2950.6438 -2889.6147 -1617.1692 161.93848 1672.9614 3128.9978 3299.8992 3299.8992 3299.8992 3299.8992 3299.8992 3299.8992 3299.8992 3299.8992 3299.8992 3299.8992 3299.8992 3299.8992 3299.8992 3299.8992 3299.8992 3299.8992 -916.6443 -3200.1982 -3184.5886 -3169.1802 -3153.772 -3138.6658 -3123.761 -3108.8562 -3094.2534 -3079.651 -3065.2495 -3050.8484 -3036.6484 -3022.5493 -3008.4502 -2994.6533 -2981.1584 -2967.2607 -2953.665 -2735.028 -1279.1931 257.40967 1661.9843 3144.406 3299.8992 3299.8992 3299.8992 3299.8992 3299.8992 3299.8992 3299.8992 3299.8992 3299.8992 3299.8992 3299.8992 3299.8992 3299.8992 3299.8992 3299.8992 3299.8992 -1763.4979 -3201.709 -3186.099 -3170.4895 -3155.2825 -3140.277 -3125.2715 -3110.568 -3095.7642 -3081.2622 -3066.8608 -3052.4597 -3038.2598 -3024.06 -3010.0615 -2996.2646 -2982.266 -2968.6707 -2955.1758 -2748.2207 -1412.3291 151.96838 1439.4196 2951.4495 3299.8992 3299.8992 3299.8992 3299.8992 3299.8992 3299.8992 3299.8992 3299.8992 3299.8992 3299.8992 
3248.538 3264.148 3280.1604 3295.7703 -3289.1235 -3273.715 1209.8053 3299.8992 3299.8992 3284.5916 3269.5862 3254.48 3239.3738 3224.2676 3208.96 3193.5515 3178.1433 3162.7349 3147.4272 3132.2205 3117.2148 3102.1086 3086.9019 3069.983 2749.2278 1433.1757 70.69702 -1308.2977 -1919.696 -2703.7078 3172.6042 3102.713 3119.4304 3135.745 3152.2612 3168.6768 3184.79 3201.004 3217.0166 3232.6262 3248.639 3264.5508 3279.657 3295.6694 -3288.7207 -3270.6938 1287.3505 3299.8992 3299.8992 3284.1887 3269.1833 3254.1777 3239.1724 3223.8647 3208.5571 3193.2495 3177.841 3162.332 3147.0244 3131.9182 3116.812 3101.9072 3086.7004 3069.6807 2776.117 1428.8452 0.9063721 -1419.0765 -2051.724 -2858.496 3088.0095 3104.9285 3121.4446 3138.162 3154.5776 3170.7915 3187.1062 3203.2195 3219.0308 3235.0432 3250.8545 3266.6655 3281.8726 3297.7844 -3286.7065 -3126.6814 1789.7827 3299.8992 3299.295 3283.383 3268.3777 3253.2715 3238.3667 3223.059 3207.6506 3192.343 3177.0354 3161.5264 3146.3196 3131.1125 3115.9058 3101.1016 3085.6934 3068.2708 2569.2627 1232.666 -72.61047 -1472.9553 -1974.5819 -2729.187 3157.498 3105.2307 3121.8474 3138.263 3154.8796 3171.0938 3187.207 3203.5217 3219.4336 3235.2446 3251.2573 3266.9678 3282.6782 3298.0864 -3286.5051 -2948.4282 2166.7327 3299.8992 3297.2808 3281.5703 3266.464 3251.4587 3236.3525 3221.1455 3205.838 3190.5303 3175.0212 3159.7136 3144.3054 3129.1992 3114.093 3099.1882 3084.4849 3066.0552 2501.889 1069.9219 -206.25 -1531.6681 -2076.8005 -2795.2515 3089.5203 3106.3384 3123.1567 3139.6729 3156.0881 3172.2014 3188.516 3204.5288 3220.4407 3236.4531 3252.2644 3267.9749 3283.8867 3299.295 -3285.2966 -2653.3538 2671.582 3299.8992 3295.5688 3279.8584 3264.8528 3249.646 3234.5398 3219.4336 3204.0251 3188.8184 3173.41 3157.901 3142.694 3127.487 3112.5823 3097.476 3082.7727 3064.2424 2452.6428 1039.9109 -348.14758 -1658.1573 -2073.88 -2770.276 3089.5203 3106.5398 3123.056 3139.6729 3156.0881 3172.4028 3188.516 3204.6294 3220.642 3236.4531 
3299.8992 3299.8992 3299.8992 3299.8992 3299.8992 3156.7932 593.06946 -1407.9987 -3028.4912 -3151.0527 -3136.148 -3121.4446 -3106.842 -3092.34 -3077.8381 -3063.739 -3049.539 -3035.44 -3021.4417 -3007.6445 -2976.526 -2572.3845 -1999.3561 -1523.1079 -929.0314 -465.1703 -15.609741 160.9314 346.13342 577.4597 847.05505 1301.8524 2743.4875 3299.8992 3299.8992 3299.8992 3299.8992 3299.8992 3299.8992 3299.8992 3299.8992 3299.8992 3299.8992 3299.8992 3299.8992 2912.8784 244.21692 -1791.0919 -3176.7334 -3161.325 -3146.4202 -3131.6162 -3117.0134 -3102.5115 -3088.1104 -3073.9104 -3059.6099 -3045.6116 -3031.5125 -3017.6147 -2907.6416 -2465.332 -2024.6338 -1700.7568 -1440.628 -1065.8936 -529.5227 -234.44824 73.81897 375.03662 715.329 1315.3473 2746.3074 3299.8992 3299.8992 3299.8992 3299.8992 3299.8992 3299.8992 3299.8992 3299.8992 3299.8992 3299.8992 3299.8992 3299.8992 2936.6455 273.32153 -1761.383 -3175.2227 -3159.915 -3144.9097 -3130.2063 -3115.503 -3101.001 -3086.7004 -3072.4 -3058.0994 -3044.1008 -3030.2031 -3016.3054 -3002.6091 -2873.0986 -2584.1675 -2203.3904 -1613.5437 -1077.2736 -740.30457 -314.61182 -127.49634 234.64966 699.2157 1328.8422 2771.8872 3299.8992 3299.8992 3299.8992 3299.8992 3299.8992 3299.8992 3299.8992 3299.8992 3299.8992 3299.8992 3299.8992 3299.8992 2670.172 -23.062134 -1944.4702 -3160.8215 -3145.816 -3130.7097 -3116.0063 -3101.4038 -3086.9019 -3072.6013 -3058.4014 -3044.3022 -3030.304 -3016.4062 -3002.5085 -2798.9775 -2349.9207 -1906.2012 -1583.2306 -1097.113 -582.2937 -208.06274 -21.350098 59.21631 352.37732 811.90796 1467.9199 2868.6675 3299.8992 3299.8992 3299.8992 3299.8992 3299.8992 3299.8992 3299.8992 3299.8992 3299.8992 3299.8992 3299.8992 3299.8992 2414.0715 -201.41602 -2145.8862 -3164.2456 -3149.0386 -3134.0332 -3119.3298 -3104.727 -3090.225 -3075.9246 -3061.624 -3047.525 -3033.5266 -3019.7295 -3005.8318 -2992.1355 -2784.5764 -2237.1277 -1777.1942 -1336.3953 -893.78357 -611.499 -262.44507 89.02588 386.41663 798.5138 1502.7649 2946.9177 3299.8992 3299.8992 3299.8992 3299.8992 3299.8992 3299.8992 3299.8992 

-5.6396484 20.040894 55.59082 72.40906 61.431885 49.649048 55.389404 74.92676 95.773315 89.227295 49.54834 27.191162 46.325684 48.138428 7.6538086 -17.72461 -8.258057 9.567261 29.205322 39.678955 39.678955 39.678955 39.678955 39.678955 39.678955 39.678955 39.678955 39.678955 39.678955 39.678955 39.678955 39.678955 39.678955 39.678955 39.678955 39.678955 39.678955 39.678955 39.678955 39.678955 74.42322 64.956665 65.86304 97.283936 117.32483 124.97864 126.9928 138.07068 143.20679 136.05652 87.81738 43.304443 -50.857544 -165.76538 -194.36646 -153.27759 -91.744995 -79.45862 -99.298096 -92.248535 -82.78198 -50.354004 -62.036133 -107.55615 -112.59155 -93.55774 -90.83862 -81.57349 -54.58374 -19.134521 4.1290283 43.606567 69.08569 70.3949 87.716675 98.49243 105.13916 103.52783 30.212402 -25.78125 -39.47754 -64.453125 -117.92908 -154.58679 -109.3689 -53.17383 0.70495605 45.41931 79.156494 56.5979 -3.0212402 -18.127441 -30.413818 -49.95117 -20.343018 20.74585 28.399658 10.775757 -10.473633 -3.9276123 22.76001 38.269043 18.026733 9.164429 -45.52002 -69.89136 -85.40039 -71.80481 -34.240723 7.5531006 57.504272 85.5011 86.8103 98.39172 98.19031 98.794556 98.0896 98.794556 104.937744 109.87244 127.29492 116.41846 102.420044 91.34216 71.90552 20.040894 -26.989746 -80.36499 -168.68591 -193.6615 -187.82043 -165.36255 -109.3689 -61.73401 -38.269043 -19.23523 -9.869385 -12.991333 -22.25647 -27.191162 -19.033813 8.560181 26.184082 41.793823 30.31311 15.408325 -5.0354004 1.7120361 18.832397 -16.71753 -57.000732 -58.20923 -41.99524 -29.910278 -32.025146 -47.836304 -50.958252 -36.053467 -23.162842 -19.134521 -22.76001 -18.832397 -9.365845 -7.6538086 -7.7545166 -29.708862 -35.34851 -44.91577 -35.549927 -8.862305 20.947266 62.338257 118.2312 140.18555 139.78271 114.505005 67.977905 12.789917 -19.940186 -58.813477 -58.813477 -58.813477 -58.813477 -58.813477 -58.813477 -58.813477 -58.813477 -58.813477 -58.813477 -58.813477 -58.813477 -58.813477 -58.813477 -58.813477 -58.813477 -58.813477 -58.813477 -58.813477 -58.813477 -58.813477 
-144.01245 -120.95032 -102.01721 -78.048706 -76.135254 -78.75366 -65.460205 -38.269043 -38.36975 -34.94568 -38.571167 -43.606567 -36.154175 -18.026733 3.8269043 18.933105 15.005493 9.567261 13.796997 8.056641 7.5531006 9.768677 -0.20141602 6.2438965 8.660889 21.75293 21.75293 26.586914 27.593994 22.860718 21.652222 26.586914 24.27063 17.321777 17.120361 18.429565 15.609741 11.178589 -17.926025 13.192749 8.157349 13.092041 11.883545 16.113281 15.206909 8.258057 15.206909 36.254883 47.53418 57.806396 51.05896 49.145508 50.454712 49.95117 50.857544 52.770996 53.475952 33.737183 21.853638 40.88745 55.59082 75.32959 95.97473 111.78589 114.505005 108.76465 81.87561 50.152588 40.585327 75.027466 124.17297 175.43335 189.23035 177.44751 137.0636 41.088867 -39.47754 -63.24463 -40.48462 9.265137 46.124268 7.2509766 -76.23596 -121.45386 -132.22961 -125.582886 -76.23596 -17.623901 -21.148682 -51.965332 -88.723755 -72.40906 -76.034546 -131.22253 -151.16272 -117.42554 -74.62463 -95.67261 -113.80005 -63.043213 -28.097534 -21.853638 -43.50586 -74.62463 -119.4397 -117.72766 -102.01721 -61.12976 -25.680542 -8.761597 5.5389404 9.869385 0.9063721 -5.7403564 5.9417725 4.8339844 9.567261 13.293457 4.7332764 0.10070801 -11.077881 -10.574341 -12.185669 -7.6538086 -9.466553 -4.1290283 6.0424805 15.710449 6.2438965 4.9346924 2.1148682 -2.3162842 2.2155762 -0.50354004 4.7332764 20.544434 19.537354 14.401245 1.6113281 4.3304443 4.2297363 7.4523926 -5.2368164 18.530273 44.0094 66.36658 70.999146 77.44446 85.80322 81.27136 85.198975 98.99597 105.441284 109.973145 106.04553 93.85986 97.08252 102.21863 98.0896 60.021973 16.314697 -29.608154 -48.03772 -24.169922 -8.560181 14.300537 24.371338 -36.154175 -82.07703 -72.20764 -24.975586 5.3375244 32.42798 54.885864 90.03296 117.12341 116.61987 77.545166 34.039307 -47.43347 -156.50024 -199.09973 -114.30359 -19.839478 54.885864 99.298096 120.043945 87.31384 62.74109 32.83081 4.6325684 -46.124268 -110.476685 -167.1753 -155.59387 -61.331177 -0.50354004 26.78833 18.832397 -14.904785 
3299.8992 3299.8992 3299.8992 3299.8992 3294.058 3194.9614 3283.9873 3299.8992 -3282.4768 -3266.0613 -3249.7466 -3233.6333 -3217.7214 -3202.011 -3186.3005 -3170.7915 -3155.484 -3140.3777 -3125.171 -3110.3667 -3095.5627 -3080.5571 -3066.458 -3051.654 -3037.3535 -2681.1492 -48.54126 3081.665 3299.8992 3299.8992 3299.8992 3299.8992 3299.8992 3299.8992 3299.8992 3299.8992 3299.8992 3299.8992 3299.8992 3299.8992 3299.8992 3299.8992 3299.8992 3299.8992 3291.8425 2830.4993 3284.9944 3299.8992 -3281.369 -3264.8528 -3248.639 -3232.6262 -3216.6138 -3200.8025 -3185.1929 -3169.6838 -3154.4768 -3139.27 -3124.2644 -3109.259 -3094.4548 -3080.1543 -3065.2495 -3051.3518 -3036.9507 -2680.545 -78.149414 3106.2378 3299.8992 3299.8992 3299.8992 3299.8992 3299.8992 3299.8992 3299.8992 3299.8992 3299.8992 3299.8992 3299.8992 3299.8992 3299.8992 3299.8992 3299.8992 3299.8992 3292.749 2318.8018 3287.6128 3299.8992 -3278.8513 -3262.3352 -3246.0205 -3230.1086 -3214.1968 -3198.4863 -3182.776 -3167.4683 -3152.0598 -3136.853 -3121.9482 -3106.9426 -3092.1387 -3077.3345 -3063.2354 -3048.4314 -3034.2314 -2396.7498 399.00513 3299.8992 3299.8992 3299.8992 3299.8992 3299.8992 3299.8992 3299.8992 3299.8992 3299.8992 3299.8992 3299.8992 3299.8992 3299.8992 3299.8992 3299.8992 3299.8992 3299.8992 3290.9363 1730.4657 3287.8142 3299.8992 -3278.7505 -3262.4358 -3246.121 -3230.0078 -3214.096 -3198.3855 -3182.776 -3167.3674 -3152.0598 -3136.853 -3121.7468 -3106.9426 -3092.1387 -3077.234 -3062.631 -3048.6328 -3034.4329 -2265.5273 508.37402 3299.8992 3299.8992 3299.8992 3299.8992 3299.8992 3299.8992 3299.8992 3299.8992 3299.8992 3299.8992 3299.8992 3299.8992 3299.8992 3299.8992 3299.8992 3299.8992 3299.8992 3289.325 909.99756 3289.325 -3293.8567 -3277.1392 -3260.7239 -3244.6106 -3228.4973 -3212.5854 -3196.875 -3181.2651 -3165.857 -3150.4485 -3135.3423 -3120.337 -3105.5327 -3090.7288 -3076.4282 -3061.5234 -3047.525 -3033.3252 -2328.5706 490.5487 3299.8992 3299.8992 3299.8992 3299.8992 3299.8992 3299.8992 3299.8992 3299.8992 3299.8992 3299.8992 3299.8992 3299.8992 3299.8992 
3299.8992 3299.8992 3292.1448 3277.3406 3262.3352 2850.1372 3253.8757 3269.6868 3285.498 3299.8992 -3283.6853 -3268.579 -3253.473 -3238.6687 -3223.764 -3209.262 -3194.6594 -3180.359 -3166.0583 -3151.9592 -3137.86 -3123.761 -3110.1653 -3096.3684 -3082.8735 -2068.9453 475.03967 2751.3428 3299.8992 3299.8992 3299.8992 3299.8992 3299.8992 3299.8992 3299.8992 3299.8992 3299.8992 3299.8992 3299.8992 3299.8992 3299.8992 3299.8992 3293.3533 3278.549 3263.5437 2683.5662 3255.89 3271.8018 3287.4114 3299.8992 -3281.7717 -3266.464 -3251.4587 -3236.6545 -3221.9512 -3207.2478 -3192.8467 -3178.5461 -3164.1448 -3149.945 -3136.0474 -3121.8474 -3108.252 -3094.5557 -3080.96 -1887.2681 470.70923 2698.8738 3299.8992 3299.8992 3299.8992 3299.8992 3299.8992 3299.8992 3299.8992 3299.8992 3299.8992 3299.8992 3299.8992 3299.8992 3299.8992 3299.8992 3294.2595 3279.7576 3264.5508 2051.9255 3260.0188 3275.9307 3291.5405 3299.8992 -3277.7434 -3262.6372 -3247.531 -3232.727 -3218.0237 -3203.5217 -3188.919 -3174.6184 -3160.3179 -3146.2188 -3132.321 -3118.1213 -3104.5256 -3090.8293 -3077.4353 -1616.0614 763.76953 2973.3032 3299.8992 3299.8992 3299.8992 3299.8992 3299.8992 3299.8992 3299.8992 3299.8992 3299.8992 3299.8992 3299.8992 3299.8992 3299.8992 3299.8992 3294.7632 3279.8584 3264.7522 1536.6028 3261.9324 3277.7434 3293.3533 3299.8992 -3275.83 -3260.7239 -3245.819 -3231.015 -3216.211 -3201.709 -3187.207 -3172.9065 -3158.7065 -3144.5068 -3130.5083 -3116.4092 -3102.8137 -3089.218 -3075.7231 -1068.512 1722.5098 3299.8992 3299.8992 3299.8992 3299.8992 3299.8992 3299.8992 3299.8992 3299.8992 3299.8992 3299.8992 3299.8992 3299.8992 3299.8992 3299.8992 3299.8992 3287.6128 3272.708 3257.5012 713.81836 3257.6018 3273.5137 3289.1235 3299.8992 -3280.0598 -3264.9536 -3250.0488 -3235.144 -3220.4407 -3205.838 -3191.4368 -3177.0354 -3162.8357 -3148.6357 -3134.6375 -3121.0417 -3106.842 -3093.2463 -3079.55 -923.291 1628.0457 3299.8992 3299.8992 3299.8992 3299.8992 3299.8992 3299.8992 3299.8992 3299.8992 3299.8992 3299.8992 3299.8992 3299.8992 3299.8992 
-3291.1377 -3276.535 -3262.1338 -3247.8333 -3233.2305 -2387.1826 3299.8992 3299.8992 3299.8992 3299.8992 3299.8992 3299.8992 3285.0952 3270.4924 3255.5876 3240.7837 3225.9795 3211.1755 3196.3713 3181.7688 3167.166 3152.664 3138.162 3123.9624 2845.9075 1046.9604 -683.40454 -2153.4392 3209.5642 3139.572 3155.3833 3170.993 3186.4014 3201.8096 3217.0166 3232.2234 3247.3296 3262.4358 3277.3406 3292.1448 -3293.051 -3278.549 -3263.745 -3249.2432 -3235.0432 -2191.3054 3299.8992 3299.8992 3299.8992 3299.8992 3299.8992 3297.1802 3282.4768 3267.7734 3252.8687 3237.9639 3223.1597 3208.4563 3193.753 3179.0496 3164.447 3150.0457 3135.846 3121.344 2585.4766 683.60596 -1007.4829 -2240.5518 3210.5713 3142.0898 3157.901 3173.5107 3188.7175 3204.0251 3219.3328 3234.439 3249.5452 3264.7522 3279.657 3294.5618 -3290.7349 -3276.132 -3261.6301 -3247.229 -3232.8276 -1712.0361 3299.8992 3299.8992 3299.8992 3299.8992 3299.8992 3297.0793 3282.376 3267.4712 3252.7678 3237.863 3223.1597 3208.1543 3193.451 3178.8481 3164.2456 3149.8442 3135.443 3121.0417 2690.0115 879.2816 -773.03467 -2181.5369 3271.399 3138.565 3154.2754 3169.7844 3185.3943 3200.702 3216.0095 3231.2163 3246.3225 3261.4287 3276.3335 3291.1377 3299.8992 -3279.4556 -3264.6514 -3250.0488 -3236.0503 -1344.3512 3299.8992 3299.8992 3299.8992 3299.8992 3299.8992 3292.2454 3277.4414 3262.738 3247.9338 3233.13 3218.225 3203.5217 3188.8184 3174.115 3159.613 3145.2117 3131.2134 3115.9058 2421.9268 439.0869 -1219.7754 -2621.3286 3126.7822 3142.5933 3158.3037 3173.8127 3189.2212 3204.6294 3219.7356 3235.0432 3250.0488 3265.0542 3280.0598 3294.7632 -3290.4326 -3275.83 -3261.026 -3246.8262 -3232.2234 -798.11096 3299.8992 3299.8992 3299.8992 3299.8992 3299.8992 3293.6553 3278.8513 3264.047 3249.2432 3234.439 3219.635 3204.8308 3190.1274 3175.525 3160.922 3146.521 3132.019 3114.8987 2256.2622 284.3994 -1376.3763 -2747.7173 3130.6091 3146.521 3162.1306 3177.7405 3193.1487 3208.4563 3223.6633 3238.87 3253.9763 3268.881 3283.786 3298.6907 
3299.8992 3299.8992 3299.8992 3299.8992 3299.8992 3299.8992 -1786.56 -3199.9968 -3184.3872 -3168.8782 -3153.6711 -3138.6658 -3123.6602 -3108.8562 -3094.1528 -3079.55 -3065.149 -3050.8484 -3036.5479 -3022.4487 -3008.4502 -2994.5525 -2980.5542 -2967.0593 -2953.5645 -2648.3184 -1268.8202 251.06506 1499.0387 2963.6353 3299.8992 3299.8992 3299.8992 3299.8992 3299.8992 3299.8992 3299.8992 3299.8992 3299.8992 3299.8992 3299.8992 3299.8992 3299.8992 3299.8992 3299.8992 3299.8992 -2625.9612 -3196.3713 -3180.661 -3165.3533 -3150.1465 -3135.0403 -3120.1355 -3105.3313 -3090.7288 -3076.126 -3061.7249 -3047.4243 -3033.2244 -3019.1252 -3005.127 -2991.3298 -2977.835 -2964.038 -2950.3418 -2564.9321 -1039.2059 557.51953 1944.873 3299.8992 3299.8992 3299.8992 3299.8992 3299.8992 3299.8992 3299.8992 3299.8992 3299.8992 3299.8992 3299.8992 3299.8992 3299.8992 3299.8992 3299.8992 3299.8992 3147.6287 -3194.6594 -3197.177 -3181.5674 -3166.2598 -3151.0527 -3135.9465 -3121.0417 -3106.3384 -3091.635 -3077.0325 -3062.631 -3048.23 -3034.03 -3020.0317 -3006.134 -2992.1355 -2978.842 -2964.8438 -2951.1475 -2502.2917 -980.49316 617.1387 1951.9226 3299.8992 3299.8992 3299.8992 3299.8992 3299.8992 3299.8992 3299.8992 3299.8992 3299.8992 3299.8992 3299.8992 3299.8992 3299.8992 3299.8992 3299.8992 3299.8992 2868.2646 -3212.5854 -3196.5728 -3180.9631 -3165.5547 -3150.348 -3135.3423 -3120.4375 -3105.5327 -3091.0308 -3076.5288 -3062.1277 -3047.8271 -3033.5266 -3019.528 -3005.429 -2991.5312 -2977.7344 -2964.2395 -2950.7446 -2518.5059 -1085.2295 497.59827 1855.1422 3190.2283 3299.8992 3299.8992 3299.8992 3299.8992 3299.8992 3299.8992 3299.8992 3299.8992 3299.8992 3299.8992 3299.8992 3299.8992 3299.8992 3299.8992 3299.8992 2738.4521 -3208.7585 -3192.7458 -3177.3376 -3161.8286 -3146.6216 -3131.6162 -3116.7114 -3101.9072 -3087.4053 -3072.8027 -3058.5022 -3044.1008 -3030.0017 -3015.9026 -3001.9043 -2988.1072 -2974.2095 -2960.7146 -2947.2197 -2318.1975 -837.7899 696.19446 2071.9666 3299.8992 3299.8992 3299.8992 3299.8992 3299.8992 3299.8992 3299.8992 3299.8992 3299.8992 3299.8992 3299.8992 
3252.365 3267.9749 3283.9873 3299.295 -3285.2966 -2415.985 2934.43 3299.8992 3293.756 3278.0457 3263.04 3248.0347 3232.8276 3217.6208 3202.4138 3187.1062 3171.698 3156.2896 3140.8813 3125.8757 3110.8704 3095.8647 3081.2622 3062.8325 2496.8535 1140.4175 -144.41528 -1551.004 -2010.0311 -2583.8652 3194.9614 3100.9001 3117.517 3134.1338 3150.5493 3166.864 3183.078 3199.1912 3215.2039 3231.015 3247.0276 3262.6372 3278.1462 3293.9575 -3290.634 -2181.8389 3051.3518 3299.8992 3287.6128 3271.4995 3256.6956 3241.7908 3226.5837 3211.4775 3196.17 3180.8623 3165.5547 3150.0457 3134.9395 3119.8333 3104.727 3090.1245 3074.716 3055.3801 2199.06 780.18494 -401.3214 -1667.4225 -2152.2307 -2807.2356 3085.5925 3102.2095 3118.8262 3135.5437 3151.9592 3168.173 3184.2864 3200.5005 3216.6138 3232.3242 3248.3367 3264.047 3279.2542 3295.0652 -3289.325 -1814.4562 3299.8992 3299.8992 3286.0015 3269.989 3255.0842 3240.1794 3225.0732 3209.967 3194.5586 3179.3518 3163.9434 3148.6357 3133.429 3118.3228 3103.3171 3088.5132 3073.2056 3051.956 2099.4597 544.4275 -627.10876 -1889.685 -2375.601 -2986.5967 3089.923 3106.842 3123.3582 3139.8743 3156.3904 3172.4028 3188.7175 3204.7302 3220.7427 3236.554 3252.4658 3268.2769 3283.383 3299.3958 -3285.0952 -1344.0491 3299.8992 3299.8992 3287.3108 3271.1975 3256.2927 3241.388 3226.2817 3211.1755 3195.6665 3180.359 3165.0513 3149.5422 3134.3352 3119.229 3104.425 3089.5203 3074.1118 3047.223 2110.9404 549.2615 -703.244 -2014.7644 -2509.9456 -2946.112 3092.642 3109.3596 3125.8757 3142.3918 3158.8074 3175.122 3191.034 3207.3486 3223.2605 3238.971 3254.8828 3270.5933 3286.5051 3299.8992 -3282.8796 -1050.3845 3299.8992 3299.8992 3287.8142 3272.0032 3256.9976 3242.0928 3226.9866 3211.679 3196.3713 3181.0637 3165.6555 3150.1465 3135.0403 3119.934 3105.0293 3090.1245 3075.4211 2980.957 1879.4128 375.8423 -810.0952 -2051.825 -2427.8687 -3074.817 3096.2676 3112.985 3129.602 3146.1182 3162.4329 3178.6467 3194.8608 3210.8733 3226.7852 3242.697 
3299.8992 3299.8992 3299.8992 3299.8992 3299.8992 2167.1355 -538.88855 -2207.1167 -3154.8796 -3139.7734 -3124.8687 -3110.0647 -3095.5627 -3081.1614 -3066.9617 -3052.6611 -3038.4612 -3024.5635 -3010.8672 -2996.9695 -2902.304 -2558.6882 -1967.4316 -1480.8105 -948.3673 -384.7046 -136.66077 90.33508 351.26953 577.5604 955.4169 1720.0928 3126.48 3299.8992 3299.8992 3299.8992 3299.8992 3299.8992 3299.8992 3299.8992 3299.8992 3299.8992 3299.8992 3299.8992 3299.8992 1908.4167 -728.1189 -2457.4768 -3158.908 -3143.6003 -3128.7964 -3114.093 -3099.6917 -3085.089 -3070.7886 -3056.6895 -3042.5903 -3028.4912 -3014.795 -3000.8972 -2987.201 -2703.1035 -2323.6357 -1939.3341 -1697.6349 -1200.4395 -686.7279 -248.54736 51.05896 454.99878 954.2084 1838.6261 3299.8992 3299.8992 3299.8992 3299.8992 3299.8992 3299.8992 3299.8992 3299.8992 3299.8992 3299.8992 3299.8992 3299.8992 3299.8992 1803.7811 -793.4784 -2632.8093 -3145.6145 -3130.6091 -3115.7043 -3101.1016 -3086.5996 -3072.1985 -3058.0994 -3044.0002 -3029.9011 -3016.0034 -3002.1057 -2988.4094 -2829.4922 -2324.3408 -1893.3105 -1496.3196 -1030.4443 -494.2749 -32.125854 317.83447 468.39294 665.67993 1185.9375 2059.8816 3299.8992 3299.8992 3299.8992 3299.8992 3299.8992 3299.8992 3299.8992 3299.8992 3299.8992 3299.8992 3299.8992 3299.8992 3299.8992 1607.1991 -910.7025 -2647.714 -3154.074 -3138.9678 -3124.063 -3109.4604 -3095.059 -3080.4565 -3066.2566 -3052.1575 -3038.0583 -3023.9592 -3010.3638 -2996.466 -2675.2075 -2367.5444 -1918.5883 -1533.3801 -1047.9675 -521.46606 -140.18555 107.05261 125.68359 288.72986 838.5956 1946.4844 3299.8992 3299.8992 3299.8992 3299.8992 3299.8992 3299.8992 3299.8992 3299.8992 3299.8992 3299.8992 3299.8992 3299.8992 3299.8992 1492.8955 -1006.073 -2781.958 -3153.6711 -3138.6658 -3123.6602 -3108.9568 -3094.4548 -3080.0537 -3065.7532 -3051.5532 -3037.555 -3023.5564 -3009.7595 -2995.8618 -2648.3184 -2172.9766 -1643.1519 -1134.2743 -905.5664 -575.34485 -366.0736 -66.76941 200.61035 535.5652 1192.6849 2260.391 3299.8992 3299.8992 3299.8992 3299.8992 3299.8992 3299.8992 3299.8992 3299.8992 

