-10.171509 -20.343018 -37.36267 -40.786743 -42.196655 -13.897705 -4.2297363 -2.9205322 -6.5460205 -10.574341 -4.6325684 3.2226562 10.473633 -1.0070801 -13.796997 -9.164429 9.869385 0.20141602 19.033813 14.904785 9.265137 -8.157349 -7.7545166 3.0212402 23.968506 35.549927 36.85913 44.0094 48.339844 57.10144 53.979492 8.056641 -40.081787 -41.592407 -25.27771 -21.853638 -31.420898 -46.829224 -62.539673 -42.599487 -13.192749 -4.1290283 -26.28479 -29.104614 -31.521606 -9.567261 7.8552246 17.926025 20.343018 15.408325 19.436646 30.917358 41.4917 31.420898 44.714355 48.03772 58.20923 70.495605 98.89526 142.40112 142.40112 142.40112 142.40112 142.40112 142.40112 142.40112 142.40112 142.40112 142.40112 142.40112 142.40112 142.40112 142.40112 142.40112 142.40112 142.40112 142.40112 142.40112 142.40112 142.40112 -6.4453125 20.343018 33.83789 22.961426 -14.300537 -36.053467 -42.800903 -34.140015 -23.364258 -20.141602 -23.364258 -20.443726 -8.258057 19.839478 47.232056 39.779663 14.401245 -48.94409 -78.95508 -64.85596 -46.42639 -66.06445 -95.269775 -74.2218 -24.27063 -29.003906 -39.37683 -38.671875 -19.335938 -7.9559326 -6.8481445 3.2226562 14.602661 52.06604 102.62146 148.54431 168.4845 157.80945 126.89209 96.47827 80.26428 33.535767 -33.636475 -82.27844 -104.434204 -82.681274 -44.41223 -2.0141602 46.627808 79.35791 102.319336 135.04944 136.15723 58.20923 -55.08728 -118.73474 -123.065186 -95.773315 -84.2926 -77.041626 -64.453125 -74.12109 -67.07153 -53.57666 -61.331177 -68.38074 -63.546753 -40.88745 -30.615234 -23.162842 -9.970093 -3.1219482 -8.963013 -0.9063721 7.0495605 -0.60424805 -21.047974 -21.853638 -16.415405 -13.394165 -13.394165 -13.394165 -13.394165 -13.394165 -13.394165 -13.394165 -13.394165 -13.394165 -13.394165 -13.394165 -13.394165 -13.394165 -13.394165 -13.394165 -13.394165 -13.394165 -13.394165 -13.394165 -13.394165 -13.394165 -72.10693 -67.977905 -49.749756 -41.4917 -20.846558 -38.87329 -72.40906 -91.34216 -72.40906 -33.83789 2.0141602 26.889038 44.815063 37.261963 -2.5177002 -15.509033 -10.372925 -7.4523926 -5.4382324 8.761597 
46.829224 51.763916 33.83789 15.710449 10.977173 17.825317 25.579834 15.307617 15.408325 16.314697 7.3516846 10.372925 6.5460205 2.1148682 -12.789917 8.459473 6.1431885 8.358765 5.8410645 15.005493 15.609741 7.3516846 5.4382324 4.1290283 11.782837 11.883545 11.984253 -0.9063721 -0.9063721 8.258057 17.120361 18.127441 21.853638 27.493286 31.118774 40.182495 42.700195 53.878784 46.728516 43.40515 30.111694 28.29895 34.240723 32.730103 15.811157 13.696289 17.22107 25.680542 18.73169 8.963013 -10.272217 -9.970093 4.0283203 12.890625 39.98108 57.000732 58.007812 55.892944 66.16516 82.78198 99.49951 70.69702 46.02356 56.497192 50.656128 20.544434 4.3304443 1.9134521 21.24939 -0.20141602 -42.700195 -78.35083 -85.5011 -73.91968 -53.57666 -23.666382 13.494873 15.609741 19.335938 38.571167 82.177734 126.48926 140.28625 121.554565 97.283936 98.49243 98.291016 88.32092 53.475952 26.28479 -10.574341 -33.9386 -32.528687 -55.59082 -92.55066 -101.815796 -93.0542 -106.448364 -130.61829 -125.48218 -127.093506 -108.76465 -80.163574 -28.198242 15.811157 7.0495605 -44.311523 -58.813477 -40.48462 10.876465 55.792236 89.63013 98.39172 113.90076 108.76465 102.52075 68.07861 36.254883 17.926025 19.335938 69.28711 101.01013 94.262695 46.325684 -6.5460205 -36.95984 -50.55542 -51.05896 -58.813477 -76.43738 -119.84253 -135.35156 -105.54199 -93.45703 -97.68677 -99.298096 -98.794556 -103.427124 -112.490845 -112.08801 -98.39172 -89.730835 -79.2572 -58.511353 -43.807983 -25.479126 -23.162842 -8.761597 -10.977173 -8.761597 -14.300537 -9.164429 -3.4240723 13.494873 14.904785 14.501953 7.5531006 17.120361 17.623901 25.479126 33.233643 39.37683 30.111694 8.660889 -2.3162842 -18.22815 29.708862 23.968506 39.276123 42.297363 58.309937 64.85596 65.15808 49.246216 31.32019 33.33435 32.42798 28.500366 -5.1361084 -52.770996 -50.958252 -35.247803 -14.401245 7.6538086 17.523193 3.9276123 -14.199829 -22.76001 -25.680542 -28.097534 -12.588501 -10.372925 -22.25647 -25.378418 -27.392578 -15.811157 6.5460205 14.401245 11.178589 7.8552246 
-3121.5454 -3106.9426 -3091.8364 -3077.6367 -3063.1348 -3048.6328 -2573.593 361.13892 3299.8992 3299.8992 3299.8992 3299.8992 3299.8992 3299.8992 3299.8992 3299.8992 3299.8992 3299.8992 3299.8992 3299.8992 3299.8992 3299.8992 3299.8992 3299.8992 3294.159 3277.6428 2433.9111 3272.6074 3289.5264 -3293.756 -3277.4414 -3260.9253 -3244.9126 -3228.7993 -3212.9883 -3197.2778 -3181.668 -3166.2598 -3151.0527 -3135.9465 -3121.0417 -3105.835 -3091.5344 -3076.4282 -3062.0269 -3047.7263 -2466.2383 419.75098 3299.8992 3299.8992 3299.8992 3299.8992 3299.8992 3299.8992 3299.8992 3299.8992 3299.8992 3299.8992 3299.8992 3299.8992 3299.8992 3299.8992 3299.8992 3299.8992 3294.159 3277.7434 1581.8207 3276.233 3293.051 -3290.332 -3273.816 -3257.5012 -3241.4885 -3225.476 -3209.6648 -3193.9543 -3178.3447 -3162.9363 -3147.83 -3132.7239 -3117.819 -3103.2166 -3088.1104 -3073.9104 -3059.5093 -3045.0073 -2390.0024 597.80273 3299.8992 3299.8992 3299.8992 3299.8992 3299.8992 3299.8992 3299.8992 3299.8992 3299.8992 3299.8992 3299.8992 3299.8992 3299.8992 3299.8992 3299.8992 3299.8992 3295.0652 3278.549 835.77576 3279.2542 3296.173 -3287.21 -3270.7947 -3254.5806 -3238.4673 -3222.4548 -3206.6436 -3190.933 -3175.525 -3160.2173 -3145.0103 -3129.904 -3114.8987 -3100.4973 -3085.794 -3070.7886 -3056.488 -3042.288 -2113.2568 993.1824 3299.8992 3299.8992 3299.8992 3299.8992 3299.8992 3299.8992 3299.8992 3299.8992 3299.8992 3299.8992 3299.8992 3299.8992 3299.8992 3299.8992 3299.8992 3299.8992 3294.2595 3277.542 -392.76123 3281.067 3297.885 -3285.5986 -3269.0825 -3252.7678 -3236.7554 -3220.8435 -3205.0322 -3189.3218 -3173.9136 -3158.5051 -3143.399 -3128.2927 -3113.388 -3098.1812 -3083.5784 -3069.3787 -3054.9773 -3040.4753 -1828.4546 1190.8722 3299.8992 3299.8992 3299.8992 3299.8992 3299.8992 3299.8992 3299.8992 3299.8992 3299.8992 3299.8992 3299.8992 3299.8992 3299.8992 3299.8992 3299.8992 3299.8992 3293.9575 3277.1392 -1411.1206 3282.9802 3299.8992 -3283.5845 -3267.1692 -3250.8545 -3234.8418 -3219.0308 -3203.2195 -3187.6099 -3172.1008 -3156.7932 -3141.5862 -3126.5808 
-3157.901 -3143.7012 -3130.005 -3116.1072 -3102.31 -3089.0166 -1876.9958 831.2439 3272.708 3299.8992 3299.8992 3299.8992 3299.8992 3299.8992 3299.8992 3299.8992 3299.8992 3299.8992 3299.8992 3299.8992 3299.8992 3299.8992 3298.892 3283.9873 3269.1833 3253.9763 2250.7231 3249.1423 3265.0542 3280.664 3296.0723 -3288.5193 -3273.413 -3258.4075 -3243.5027 -3228.6987 -3213.9954 -3199.4934 -3184.9915 -3170.691 -3156.5918 -3142.2913 -3128.4941 -3114.6973 -3101.001 -3087.6067 -1111.4136 1370.1324 3299.8992 3299.8992 3299.8992 3299.8992 3299.8992 3299.8992 3299.8992 3299.8992 3299.8992 3299.8992 3299.8992 3299.8992 3299.8992 3299.8992 3293.4539 3278.65 3263.745 3248.639 1360.5652 3247.0276 3262.8386 3278.549 3293.8567 3299.8992 -3275.5278 -3260.5225 -3245.5168 -3230.8135 -3216.211 -3201.6082 -3187.207 -3172.8057 -3158.606 -3144.406 -3130.5083 -3116.7114 -3103.0151 -3089.1174 -1124.5056 1429.6509 3299.8992 3299.8992 3299.8992 3299.8992 3299.8992 3299.8992 3299.8992 3299.8992 3299.8992 3299.8992 3299.8992 3299.8992 3299.8992 3299.8992 3291.1377 3276.3335 3261.6301 3246.7253 322.97058 3247.8333 3263.6443 3279.2542 3294.7632 -3289.8284 -3274.823 -3259.7168 -3244.812 -3230.0078 -3215.4053 -3200.9033 -3186.502 -3172.1008 -3157.901 -3144.104 -3129.904 -3116.0063 -3102.31 -3088.5132 -1140.8203 1419.9829 3299.8992 3299.8992 3299.8992 3299.8992 3299.8992 3299.8992 3299.8992 3299.8992 3299.8992 3299.8992 3299.8992 3299.8992 3299.8992 3299.8992 3291.8425 3277.0386 3262.1338 3247.3296 -394.7754 3250.4517 3266.162 3281.8726 3297.2808 -3287.4114 -3272.2046 -3257.2998 -3242.395 -3227.5908 -3212.9883 -3198.3855 -3183.9844 -3169.7844 -3155.5847 -3141.7876 -3127.588 -3113.8916 -3099.994 -3056.5886 -730.03235 1812.1399 3299.8992 3299.8992 3299.8992 3299.8992 3299.8992 3299.8992 3299.8992 3299.8992 3299.8992 3299.8992 3299.8992 3299.8992 3299.8992 3299.8992 3289.8284 3275.0244 3260.2202 3245.2148 -1529.1504 3251.1565 3266.9678 3282.6782 3298.0864 -3286.7065 -3271.399 -3256.4941 -3241.5894 -3226.7852 -3212.2832 -3197.7812 -3183.3801 -3169.0796 
3181.668 3167.166 3152.8655 3138.3635 3123.761 2694.7449 818.25256 -860.3485 -2203.6926 -3242.9993 3141.7876 3157.5989 3173.108 3188.617 3203.9246 3219.2322 3234.439 3249.5452 3264.6514 3279.4556 3294.2595 -3291.0369 -3276.132 -3261.5295 -3247.1282 -3232.9285 -1788.4735 3299.8992 3299.8992 3299.8992 3299.8992 3299.8992 3297.2808 3282.5774 3267.6726 3252.8687 3238.1653 3223.462 3208.7585 3193.9543 3179.3518 3164.6484 3150.0457 3135.5437 3121.1426 2583.4624 809.39026 -916.4429 -2243.3716 3299.8992 3140.579 3156.2896 3172 3187.4084 3202.8167 3218.0237 3233.2305 3248.3367 3263.3423 3278.3477 3293.1519 -3292.1448 -3277.6428 -3262.9395 -3248.8403 -3234.5398 -1101.8463 3299.8992 3299.8992 3299.8992 3299.8992 3299.8992 3292.749 3277.8442 3263.04 3248.236 3233.432 3218.628 3203.8237 3189.2212 3174.5178 3159.915 3145.7153 3131.5154 3114.1936 2381.0393 401.72424 -1265.3961 -2629.5867 3126.9836 3142.996 3158.606 3174.2156 3189.7246 3204.9316 3220.2393 3235.3455 3250.4517 3265.457 3280.3618 3295.166 -3290.0298 -3275.2258 -3260.9253 -3246.121 -3231.72 -773.6389 3299.8992 3299.8992 3299.8992 3299.8992 3299.8992 3293.756 3278.952 3264.2485 3249.4446 3234.5398 3219.7356 3205.0322 3190.3289 3175.7263 3161.1235 3146.4202 3132.019 3114.2944 2207.1167 271.30737 -1390.1733 -2644.29 3130.1055 3146.0173 3161.7278 3177.3376 3192.7458 3208.0535 3223.2605 3238.3667 3253.473 3268.579 3283.383 3298.1873 -3287.0085 -3272.6074 -3258.307 -3243.5027 -3229.2021 -61.431885 3299.8992 3299.8992 3299.8992 3299.8992 3299.8992 3293.5547 3278.7505 3263.9465 3249.0417 3234.2375 3219.4336 3204.7302 3190.0269 3175.3235 3160.8215 3146.2188 3131.9182 3112.0789 1910.9344 60.525513 -1594.9127 -3048.4314 3135.0403 3150.8513 3166.4612 3181.9702 3197.5798 3212.7869 3227.9937 3243.0999 3258.206 3273.2117 3288.0156 3299.8992 -3282.6782 -3267.874 -3253.5735 -3238.971 -3224.8718 523.3795 3299.8992 3299.8992 3299.8992 3299.8992 3299.8992 3295.5688 3281.067 3266.0613 3251.1565 3236.2517 3221.4478 3206.543 3191.9402 
-3018.1182 -3004.019 -2990.5242 -2976.425 -2962.7288 -2949.1333 -2833.0168 -1347.171 168.18237 1808.313 2981.7627 3299.8992 3299.8992 3299.8992 3299.8992 3299.8992 3299.8992 3299.8992 3299.8992 3299.8992 3299.8992 3299.8992 3299.8992 3299.8992 3299.8992 3299.8992 3279.8584 -2893.1396 -3191.5374 -3176.0283 -3160.5193 -3145.3125 -3130.307 -3115.3015 -3100.4973 -3086.0962 -3071.4934 -3057.0923 -3042.7917 -3028.6926 -3014.5935 -3000.595 -2987.1 -2973.1018 -2959.4055 -2945.9106 -2599.777 -1083.5175 467.38586 2061.795 3158.4045 3299.8992 3299.8992 3299.8992 3299.8992 3299.8992 3299.8992 3299.8992 3299.8992 3299.8992 3299.8992 3299.8992 3299.8992 3299.8992 3299.8992 3299.8992 3055.2795 -3207.3486 -3191.4368 -3175.827 -3160.4187 -3145.2117 -3130.1055 -3115.2007 -3100.5981 -3085.8948 -3071.292 -3056.9915 -3042.691 -3028.4912 -3014.4927 -3000.595 -2986.4958 -2972.7996 -2959.4055 -2945.9106 -2350.7263 -726.30615 746.54846 2230.9844 3240.5823 3299.8992 3299.8992 3299.8992 3299.8992 3299.8992 3299.8992 3299.8992 3299.8992 3299.8992 3299.8992 3299.8992 3299.8992 3299.8992 3299.8992 3299.8992 2688.6016 -3208.8591 -3192.8467 -3177.3376 -3161.8286 -3146.823 -3131.7168 -3116.812 -3102.1086 -3087.506 -3073.0042 -3058.5022 -3044.3022 -3030.0017 -3015.9026 -3002.005 -2988.0066 -2974.3103 -2960.8154 -2947.3206 -2313.162 -696.4966 683.2031 2253.241 3299.8992 3299.8992 3299.8992 3299.8992 3299.8992 3299.8992 3299.8992 3299.8992 3299.8992 3299.8992 3299.8992 3299.8992 3299.8992 3299.8992 3299.8992 3299.8992 2141.5557 -3206.845 -3191.034 -3175.424 -3160.2173 -3145.0103 -3129.904 -3115.1 -3100.3967 -3085.6934 -3071.1914 -3056.8909 -3042.5903 -3028.4912 -3014.4927 -3000.4944 -2986.8987 -2973.001 -2959.204 -2945.7092 -2308.0261 -600.42114 938.90076 2441.6655 3299.8992 3299.8992 3299.8992 3299.8992 3299.8992 3299.8992 3299.8992 3299.8992 3299.8992 3299.8992 3299.8992 3299.8992 3299.8992 3299.8992 3299.8992 3299.8992 1765.5121 -3206.1401 -3190.2283 -3174.7192 -3159.5122 -3144.3054 -3129.2998 -3114.395 -3099.6917 -3085.089 -3070.6877 -3056.3872 -3041.986 -3027.7861 
3138.8672 3123.761 3108.8562 3093.75 3072.702 2208.3252 756.41785 -709.4879 -1291.1774 -2042.7612 -2800.9917 3103.1157 3119.934 3136.5508 3152.9663 3169.3816 3185.5957 3201.709 3217.7214 3233.7341 3249.646 3265.457 3280.664 3296.6765 -3287.7136 -3272.5066 -1767.5262 3299.8992 3299.8992 3299.8992 3287.7136 3272.5066 3257.5012 3242.2942 3226.7852 3211.679 3196.0693 3180.661 3165.1519 3149.8442 3134.6375 3119.5312 3104.0222 3089.4194 3031.4116 2115.6738 646.2433 -965.28625 -1610.1196 -2376.8096 -3224.2676 3107.144 3123.761 3140.277 3156.8938 3173.2085 3189.3218 3205.536 3221.347 3237.2588 3253.2715 3268.982 3284.2896 3299.8992 -3284.2896 -3268.982 -1277.7832 3299.8992 3299.8992 3299.8992 3288.217 3272.9094 3257.7026 3242.5964 3227.188 3211.679 3196.3713 3180.8623 3165.3533 3149.945 3134.9395 3119.7327 3104.2236 3089.8223 3023.8586 1971.3593 484.3048 -1069.9219 -1686.1542 -2450.2258 -3282.074 3110.0647 3126.8828 3143.4998 3160.0159 3176.1292 3192.343 3208.4563 3224.3682 3240.3809 3256.2927 3272.0032 3287.1094 3299.8992 -3281.4697 -3266.2627 -977.1698 3299.8992 3299.8992 3299.8992 3289.1235 3274.0173 3258.9111 3243.6035 3228.296 3212.8875 3197.3784 3181.8694 3166.3604 3150.9521 3135.846 3120.8403 3105.9355 3090.9302 2991.0278 1882.4341 460.2356 -1025.3082 -1592.6971 -2309.2346 -3082.4707 3109.7625 3126.3794 3142.996 3159.5122 3175.7263 3191.9402 3208.0535 3223.9653 3240.0786 3255.789 3271.4995 3287.4114 3299.8992 -3281.7717 -3266.565 -503.64075 3299.8992 3299.8992 3299.8992 3286.203 3270.996 3255.89 3240.5823 3225.1738 3209.7656 3194.3572 3178.8481 3163.44 3148.1323 3132.8247 3117.819 3102.5115 3087.7075 2931.5093 1768.2312 289.93835 -1168.2129 -1759.9731 -2491.4153 -3281.9731 3111.978 3128.6956 3145.0103 3161.5264 3177.841 3193.9543 3210.1685 3225.9795 3241.8914 3257.8032 3273.6145 3288.8213 3299.8992 -3279.959 -3264.5508 41.89453 3299.8992 3299.8992 3299.7986 3284.9944 3269.6868 3254.5806 3239.1724 3223.9653 3208.5571 3193.048 3177.4382 3162.03 3146.823 
-2972.5981 -2937.4512 -2669.3665 -2206.0088 -1567.8223 -1216.5527 -899.92676 -639.9994 -345.12634 25.680542 511.7981 715.5304 1607.7026 3103.0151 3299.8992 3299.8992 3299.8992 3299.8992 3299.8992 3299.8992 3299.8992 3299.8992 3299.8992 3299.8992 3299.8992 3299.8992 2049.6094 -598.20557 -2416.9922 -3124.768 -3109.7625 -3095.059 -3080.5571 -3066.0552 -3051.8555 -3037.857 -3023.6572 -3009.7595 -2995.8618 -2982.1655 -2968.4692 -2947.4211 -2570.169 -2213.864 -2040.6464 -1640.1306 -1135.1807 -769.10706 -482.39136 -18.328857 419.24744 653.09143 1693.9087 3293.3533 3299.8992 3299.8992 3299.8992 3299.8992 3299.8992 3299.8992 3299.8992 3299.8992 3299.8992 3299.8992 3299.8992 3299.8992 2042.157 -480.88074 -2241.458 -3116.7114 -3101.8066 -3087.1033 -3072.6013 -3058.0994 -3043.7988 -3029.8003 -3015.9026 -3001.8035 -2988.1072 -2974.5117 -2960.8154 -2712.8723 -2309.9395 -1878.305 -1571.5485 -1174.2554 -586.2213 -193.7622 47.03064 297.995 605.0537 837.5885 1844.165 3299.8992 3299.8992 3299.8992 3299.8992 3299.8992 3299.8992 3299.8992 3299.8992 3299.8992 3299.8992 3299.8992 3299.8992 3299.8992 1303.2623 -1211.618 -2905.6274 -3117.7185 -3102.8137 -3088.3118 -3073.8098 -3059.4084 -3045.2087 -3031.0088 -3017.0105 -3003.1128 -2989.3157 -2975.7202 -2961.923 -2804.2144 -2427.4658 -2029.2664 -1554.2267 -1058.5419 -802.94495 -531.839 -266.7755 40.686035 430.2246 797.2046 2034.906 3299.8992 3299.8992 3299.8992 3299.8992 3299.8992 3299.8992 3299.8992 3299.8992 3299.8992 3299.8992 3299.8992 3299.8992 3299.8992 1227.0264 -1276.2726 -2969.3755 -3112.7837 -3097.9797 -3083.1755 -3068.6736 -3054.373 -3040.1733 -3025.9734 -3011.975 -2998.2788 -2984.381 -2970.7854 -2915.396 -2455.7646 -1958.3679 -1487.558 -981.60095 -644.32983 -181.1737 189.23035 421.463 672.7295 1063.4766 1412.1277 2559.3933 3299.8992 3299.8992 3299.8992 3299.8992 3299.8992 3299.8992 3299.8992 3299.8992 3299.8992 3299.8992 3299.8992 3299.8992 3299.8992 1047.464 -1331.7627 -3085.391 -3136.6516 -3121.646 -3106.9426 -3092.34 -3077.9387 -3063.739 -3049.539 -3035.44 -3021.3408 -3007.443 -2993.8477 

47.634888 47.634888 47.634888 47.634888 47.634888 47.634888 47.634888 47.634888 47.634888 47.634888 47.634888 47.634888 47.634888 47.634888 8.862305 -26.184082 -55.993652 -61.834717 -49.44763 -33.636475 -20.040894 -0.9063721 2.6184082 -14.300537 -31.622314 -29.910278 -21.551514 -6.5460205 5.3375244 16.516113 26.486206 51.05896 61.029053 60.22339 61.029053 46.42639 20.544434 2.0141602 -6.6467285 -13.293457 -29.910278 -31.924438 -20.24231 -6.7474365 -5.0354004 -8.258057 4.5318604 26.184082 46.124268 47.332764 33.9386 39.578247 46.5271 38.168335 38.168335 38.168335 38.168335 38.168335 38.168335 38.168335 38.168335 38.168335 38.168335 38.168335 38.168335 38.168335 38.168335 38.168335 38.168335 38.168335 38.168335 38.168335 38.168335 38.168335 -11.682129 -41.4917 -62.539673 -58.20923 -40.283203 -35.44922 -32.83081 -20.141602 -3.8269043 3.0212402 5.8410645 6.6467285 -18.429565 -46.224976 -50.454712 -36.154175 -24.673462 -17.926025 -16.415405 -39.678955 -39.678955 -39.678955 -39.678955 -39.678955 -39.678955 -39.678955 -39.678955 -39.678955 -39.678955 -39.678955 -39.678955 -39.678955 -39.678955 -39.678955 -39.678955 -39.678955 -39.678955 -39.678955 -39.678955 -39.678955 -39.678955 -39.678955 -39.678955 -39.678955 -39.678955 -39.678955 -39.678955 -39.678955 -39.678955 -39.678955 -39.678955 -39.678955 -39.678955 -39.678955 -39.678955 -39.678955 -39.678955 -39.678955 -39.678955 -39.678955 -39.678955 -39.678955 -39.678955 -39.678955 -39.678955 -39.678955 -39.678955 -39.678955 -39.678955 -39.678955 -39.678955 -39.678955 -39.678955 -39.678955 -39.678955 -39.678955 -39.678955 -39.678955 -39.678955 -39.678955 -9.164429 -17.72461 -24.572754 -12.890625 -2.2155762 4.6325684 20.141602 22.055054 15.911865 -21.148682 -28.198242 -33.032227 -30.514526 -18.630981 -5.4382324 5.0354004 19.537354 34.94568 65.3595 50.354004 50.354004 50.354004 50.354004 50.354004 50.354004 50.354004 50.354004 50.354004 50.354004 50.354004 50.354004 50.354004 50.354004 50.354004 50.354004 50.354004 50.354004 50.354004 50.354004 50.354004 
-34.94568 -26.586914 -29.910278 -33.032227 -23.464966 -19.73877 -7.4523926 28.601074 47.93701 52.871704 35.44922 11.682129 7.5531006 19.23523 -10.372925 -67.8772 -77.041626 -51.663208 -13.293457 26.28479 41.793823 36.35559 17.019653 -8.963013 -31.32019 -33.43506 -29.80957 -35.85205 -27.694702 -31.118774 -22.961426 18.328857 35.650635 34.643555 26.486206 25.479126 8.459473 8.560181 1.0070801 -6.0424805 -11.178589 8.963013 26.687622 30.010986 24.472046 9.869385 8.056641 16.21399 21.652222 20.24231 18.73169 14.501953 2.5177002 -0.50354004 14.904785 28.198242 42.599487 57.70569 42.90161 37.161255 17.422485 39.37683 59.21631 77.545166 101.21155 104.03137 80.56641 43.304443 14.099121 3.9276123 -6.5460205 -53.778076 -75.531006 -71.30127 -72.509766 -76.638794 -62.23755 -93.759155 -98.59314 -97.18323 -104.63562 -100.40588 -62.438965 -0.80566406 45.217896 61.331177 51.05896 51.763916 56.09436 33.233643 14.199829 15.206909 15.710449 2.5177002 -16.113281 -17.623901 -23.666382 -51.260376 -76.638794 -67.37366 -56.799316 -51.260376 -51.965332 -42.599487 -26.78833 -2.1148682 4.7332764 -12.387085 -28.80249 -11.581421 28.29895 81.170654 110.17456 91.14075 28.903198 27.191162 -3.6254883 -24.572754 -57.504272 -75.32959 -63.546753 -31.521606 -27.392578 -33.9386 -51.965332 -57.70569 -40.585327 -24.874878 -8.660889 7.3516846 -8.963013 2.4169922 2.7191162 -4.6325684 15.307617 37.664795 46.325684 65.3595 69.1864 86.50818 99.60022 96.07544 85.5011 68.38074 20.343018 -38.571167 -71.502686 -90.13367 -63.64746 -32.32727 -8.459473 -14.199829 -21.350098 -39.37683 -48.641968 -60.72693 -61.12976 -42.196655 -55.792236 -77.041626 -75.4303 -55.08728 -23.968506 -12.084961 4.3304443 15.408325 20.645142 17.926025 17.72461 26.989746 40.585327 44.110107 27.996826 -11.178589 -29.708862 -27.996826 -30.31311 -29.80957 -46.224976 -18.127441 37.060547 63.546753 73.81897 86.91101 117.12341 130.8197 132.53174 109.26819 88.52234 71.90552 46.02356 31.420898 27.191162 28.903198 
-2729.489 3286.4043 3299.8992 -3280.1604 -3263.8457 -3247.7324 -3231.6191 -3215.6067 -3199.9968 -3184.3872 -3168.8782 -3153.5706 -3138.4644 -3123.4587 -3108.554 -3093.4478 -3079.3486 -3064.3433 -3050.0427 -3035.8428 -1115.0391 2053.4363 3299.8992 3299.8992 3299.8992 3299.8992 3299.8992 3299.8992 3299.8992 3299.8992 3299.8992 3299.8992 3299.8992 3299.8992 3299.8992 3299.8992 3299.8992 3299.8992 3290.4326 3273.6145 3268.881 3286.1023 3299.8992 -3280.5632 -3264.148 -3248.0347 -3231.9214 -3216.0095 -3200.299 -3184.5886 -3169.281 -3153.9734 -3138.7664 -3123.761 -3108.9568 -3094.4548 -3079.4495 -3065.2495 -3050.949 -3036.447 -929.1321 2206.8145 3299.8992 3299.8992 3299.8992 3299.8992 3299.8992 3299.8992 3299.8992 3299.8992 3299.8992 3299.8992 3299.8992 3299.8992 3299.8992 3299.8992 3299.8992 3299.8992 3288.4185 3271.1975 3269.0825 3286.203 3299.8992 -3280.3618 -3264.148 -3247.9338 -3231.9214 -3216.0095 -3200.299 -3184.6892 -3169.281 -3153.8726 -3138.7664 -3123.761 -3108.8562 -3093.8506 -3079.651 -3064.6453 -3050.3447 -3036.2456 -1281.1066 1969.1437 3299.8992 3299.8992 3299.8992 3299.8992 3299.8992 3299.8992 3299.8992 3299.8992 3299.8992 3299.8992 3299.8992 3299.8992 3299.8992 3299.8992 3299.8992 3299.8992 3291.339 3273.9165 3274.9236 3291.8425 -3291.4397 -3274.823 -3258.5083 -3242.395 -3226.3823 -3210.5713 -3194.76 -3179.251 -3163.9434 -3148.6357 -3133.5295 -3118.5242 -3103.72 -3088.7146 -3074.0112 -3059.8113 -3045.6116 -2958.2976 -379.8706 2771.4844 3299.8992 3299.8992 3299.8992 3299.8992 3299.8992 3299.8992 3299.8992 3299.8992 3299.8992 3299.8992 3299.8992 3299.8992 3299.8992 3299.8992 3299.8992 3299.8992 3288.1165 3270.6938 3274.4202 3291.5405 -3291.8425 -3275.3264 -3258.9111 -3242.7979 -3226.886 -3210.974 -3195.2637 -3179.7546 -3164.3462 -3149.1394 -3133.9324 -3118.927 -3104.1228 -3089.7217 -3075.119 -3060.315 -3046.0144 -2892.8374 -248.54736 3007.2417 3299.8992 3299.8992 3299.8992 3299.8992 3299.8992 3299.8992 3299.8992 3299.8992 3299.8992 3299.8992 3299.8992 3299.8992 
-2428.2715 3250.3508 3266.2627 3281.7717 3297.1802 -3287.4114 -3272.3052 -3257.2998 -3242.2942 -3227.6917 -3212.9883 -3198.587 -3184.1858 -3169.8853 -3155.6853 -3141.8884 -3127.7893 -3113.8916 -3100.0945 -2734.2224 -5.6396484 2366.5374 3299.8992 3299.8992 3299.8992 3299.8992 3299.8992 3299.8992 3299.8992 3299.8992 3299.8992 3299.8992 3299.8992 3299.8992 3299.8992 3297.7844 3282.8796 3268.0754 3253.2715 3238.1653 3233.2305 3249.3438 3265.0542 3280.664 3296.0723 -3288.7207 -3273.5137 -3258.609 -3243.704 -3228.9001 -3214.2974 -3199.7954 -3185.2935 -3171.0938 -3156.9946 -3143.097 -3128.897 -3115.1 -3101.303 -2690.213 12.185669 2402.893 3299.8992 3299.8992 3299.8992 3299.8992 3299.8992 3299.8992 3299.8992 3299.8992 3299.8992 3299.8992 3299.8992 3299.8992 3299.8992 3296.3745 3281.5703 3266.7664 3251.9622 3236.2517 3234.5398 3250.5522 3266.3635 3281.9731 3297.2808 -3287.4114 -3272.3052 -3257.199 -3242.395 -3227.6917 -3213.0889 -3198.4863 -3184.085 -3169.7844 -3155.6853 -3141.4856 -3127.6885 -3113.8916 -3100.1953 -2380.2336 154.6875 2524.1455 3299.8992 3299.8992 3299.8992 3299.8992 3299.8992 3299.8992 3299.8992 3299.8992 3299.8992 3299.8992 3299.8992 3299.8992 3299.8992 3295.6694 3280.3618 3265.5579 3250.8545 3234.9426 3236.1511 3252.1636 3267.874 3283.383 3298.892 -3285.901 -3270.7947 -3255.789 -3240.985 -3226.2817 -3211.5784 -3197.0764 -3182.776 -3168.576 -3154.2754 -3140.0757 -3126.2786 -3112.3809 -3098.7854 -2200.9734 454.29382 3022.6501 3299.8992 3299.8992 3299.8992 3299.8992 3299.8992 3299.8992 3299.8992 3299.8992 3299.8992 3299.8992 3299.8992 3299.8992 3299.8992 3293.756 3278.549 3264.148 3249.1423 3233.7341 3236.856 3252.6672 3268.6797 3283.8867 3299.5972 -3285.2966 -3270.291 -3255.0842 -3240.28 -3225.6775 -3211.1755 -3196.4722 -3182.1716 -3167.9717 -3153.772 -3139.8743 -3126.0771 -3111.8774 -2888.91 -2527.2673 -588.9404 1650.1007 3299.8992 3299.8992 3299.8992 3299.8992 3299.8992 3299.8992 3299.8992 3299.8992 3299.8992 3299.8992 3299.8992 3299.8992 
1304.4708 3299.8992 3299.8992 3299.8992 3299.8992 3299.8992 3293.3533 3278.4485 3263.745 3248.8403 3234.0361 3219.1313 3204.3274 3189.7246 3175.0212 3160.5193 3145.9167 3131.6162 3109.7625 1759.9731 -241.4978 -1797.4365 -3111.2732 3138.6658 3154.3762 3170.1873 3185.4949 3200.9033 3216.11 3231.4177 3246.524 3261.5295 3276.535 3291.4397 3299.8992 -3279.2542 -3264.7522 -3250.3508 -3235.9497 -3221.8506 1865.0116 3299.8992 3299.8992 3299.8992 3299.8992 3299.8992 3293.6553 3278.65 3263.9465 3248.941 3234.137 3219.2322 3204.428 3189.8254 3175.2227 3160.62 3146.3196 3131.7168 3045.108 1562.8876 -387.82654 -1947.29 -3184.1858 3141.989 3157.8003 3173.41 3188.8184 3204.126 3219.4336 3234.7412 3249.7466 3264.6514 3279.657 3294.3604 -3290.8354 -3276.0315 -3261.6301 -3247.4304 -3232.8276 -3218.527 2266.4336 3299.8992 3299.8992 3299.8992 3299.8992 3299.8992 3295.468 3280.664 3265.8599 3250.955 3236.0503 3221.1455 3206.4421 3191.6382 3177.1362 3162.5334 3147.83 3133.6304 3021.1394 1386.4471 -525.09155 -1968.8416 -3137.86 3144.3054 3160.2173 3175.827 3191.2354 3206.6436 3221.8506 3237.1582 3252.1636 3267.1692 3282.074 3296.9788 -3288.3179 -3273.6145 -3258.9111 -3244.5098 -3230.2092 -3192.4438 3144.3054 3299.8992 3299.8992 3299.8992 3299.8992 3299.8992 3294.461 3279.657 3264.7522 3249.8474 3234.9426 3220.1384 3205.3345 3190.631 3175.9277 3161.4258 3147.1252 3132.4219 2945.0042 1301.3489 -533.85315 -1917.1783 -3007.3425 3143.9026 3159.7136 3175.3235 3190.8325 3206.2407 3221.4478 3236.7554 3251.6602 3266.7664 3281.6711 3296.475 -3288.6199 -3274.0173 -3259.7168 -3245.5168 -3230.8135 -2944.4 3299.8992 3299.8992 3299.8992 3299.8992 3299.8992 3299.8992 3291.5405 3276.7363 3261.8315 3247.0276 3232.1228 3217.3186 3202.5146 3187.8113 3173.2085 3158.7065 3144.104 3129.602 2849.7344 1073.1445 -666.4856 -2146.4905 3235.8489 3144.9097 3160.7207 3176.3306 3191.8396 3207.1472 3222.4548 3237.6616 3252.6672 3267.6726 3282.5774 3297.4822 
1381.9153 -3205.3345 -3189.5232 -3174.0142 -3158.7065 -3143.4998 -3128.4941 -3113.6902 -3098.9868 -3084.2834 -3069.7815 -3055.5815 -3041.0796 -3027.0813 -3013.0828 -2999.0845 -2984.9854 -2971.4905 -2957.9956 -2944.5007 -2190.1978 -637.6831 731.6437 2342.871 3299.8992 3299.8992 3299.8992 3299.8992 3299.8992 3299.8992 3299.8992 3299.8992 3299.8992 3299.8992 3299.8992 3299.8992 3299.8992 3299.8992 3299.8992 3299.8992 662.15515 -3199.0906 -3183.1787 -3167.7703 -3152.4626 -3137.3564 -3122.4517 -3107.5469 -3092.8435 -3078.3416 -3063.8396 -3049.4385 -3035.2385 -3021.1394 -3007.141 -2993.344 -2979.2449 -2965.75 -2952.356 -2938.7603 -2238.3362 -657.32117 807.5775 2455.7646 3299.8992 3299.8992 3299.8992 3299.8992 3299.8992 3299.8992 3299.8992 3299.8992 3299.8992 3299.8992 3299.8992 3299.8992 3299.8992 3299.8992 3299.8992 3299.8992 208.56628 -3192.4438 -3176.7334 -3161.2244 -3146.0173 -3131.012 -3116.0063 -3101.1016 -3086.499 -3071.997 -3057.5957 -3043.2952 -3029.0955 -3014.9963 -3001.0986 -2987.1 -2973.706 -2959.909 -2946.3135 -2932.8186 -2164.0137 -571.61865 964.8834 2598.77 3299.8992 3299.8992 3299.8992 3299.8992 3299.8992 3299.8992 3299.8992 3299.8992 3299.8992 3299.8992 3299.8992 3299.8992 3299.8992 3299.8992 3299.8992 3299.8992 -361.23962 -3186.9048 -3171.2952 -3155.6853 -3140.579 -3125.5737 -3110.4675 -3095.8647 -3081.2622 -3066.6594 -3052.2583 -3038.0583 -3023.9592 -3009.86 -2995.9624 -2982.0647 -2968.2678 -2954.773 -2941.3787 -2914.1875 -1514.1449 269.89746 1694.513 3119.229 3299.8992 3299.8992 3299.8992 3299.8992 3299.8992 3299.8992 3299.8992 3299.8992 3299.8992 3299.8992 3299.8992 3299.8992 3299.8992 3299.8992 3299.8992 3299.8992 -1237.2986 -3191.1345 -3175.424 -3159.915 -3144.6074 -3129.602 -3114.7979 -3099.994 -3085.391 -3070.8892 -3056.488 -3042.1875 -3027.9875 -3013.7878 -2999.8901 -2986.093 -2972.1953 -2958.5999 -2945.2056 -2898.3765 -1535.7971 99.09668 1539.5233 2999.9907 3299.8992 3299.8992 3299.8992 3299.8992 3299.8992 3299.8992 3299.8992 3299.8992 3299.8992 3299.8992 
442.10815 3299.8992 3299.8992 3296.878 3281.8726 3266.7664 3251.5593 3236.3525 3221.045 3205.536 3190.1274 3174.5178 3159.2102 3143.9026 3128.7964 3113.7908 3098.886 3082.5713 2905.0232 1595.3156 84.191895 -1425.4211 -1966.7267 -2693.1335 3189.926 3113.1865 3129.904 3146.4202 3162.9363 3179.1504 3195.2637 3211.4775 3227.3894 3243.3013 3259.1125 3274.7222 3290.1306 3299.8992 -3278.65 -3263.4429 938.0951 3299.8992 3299.8992 3295.9717 3281.1675 3266.0613 3250.8545 3235.5469 3220.1384 3204.8308 3189.2212 3173.7122 3158.4045 3143.097 3128.0913 3112.985 3097.6775 3080.2551 2724.1516 1403.2654 -18.328857 -1315.6494 -1848.5962 -2591.9219 3235.5469 3112.7837 3129.5012 3145.9167 3162.332 3178.6467 3194.9614 3210.974 3226.7852 3242.7979 3258.7097 3274.4202 3289.627 3299.8992 -3279.1533 -3229.9072 1543.6523 3299.8992 3299.8992 3292.4468 3277.542 3262.3352 3247.229 3232.022 3216.7144 3201.3062 3185.797 3170.288 3154.9805 3139.7734 3124.4658 3109.6619 3094.1528 3076.0254 2618.106 1287.4512 -95.37048 -1484.3353 -2030.777 -2748.9258 3204.428 3113.4888 3130.1055 3146.521 3163.037 3179.3518 3195.5657 3211.5784 3227.4902 3243.402 3259.0117 3274.9236 3290.2312 3299.8992 -3278.65 -3097.476 1964.6118 3299.8992 3299.8992 3290.7349 3275.83 3260.623 3245.3154 3230.2092 3214.9016 3199.4934 3183.8835 3168.4753 3153.067 3137.9607 3122.653 3107.849 3092.8435 3074.1118 2484.3657 1128.6346 -130.41687 -1403.2654 -1926.7456 -2603.9062 3299.8992 3111.2732 3127.89 3144.5068 3160.922 3177.2368 3193.35 3209.3628 3225.3752 3241.388 3257.0984 3272.8088 3288.6199 3299.8992 -3280.664 -2881.961 2309.9395 3299.8992 3299.8992 3286.5051 3271.4995 3256.4941 3241.388 3226.0803 3210.7727 3195.465 3179.956 3164.5476 3149.1394 3133.9324 3118.927 3104.0222 3089.1174 3069.983 2418.6035 1097.3145 -193.86292 -1562.4847 -2061.795 -2768.3623 3094.6562 3111.4746 3128.0913 3144.6074 3160.922 3177.2368 3193.451 3209.4634 3225.476 3241.287 
935.6781 -1451.001 -3147.3267 -3132.1196 -3117.2148 -3102.5115 -3088.0095 -3073.5076 -3059.207 -3045.108 -3030.9082 -3017.0105 -3003.1128 -2989.4165 -2975.7202 -2875.9185 -2553.8542 -2038.3301 -1795.7245 -1365.1978 -938.59863 -630.83496 -387.323 95.773315 599.11194 1152.301 2531.9 3299.8992 3299.8992 3299.8992 3299.8992 3299.8992 3299.8992 3299.8992 3299.8992 3299.8992 3299.8992 3299.8992 3299.8992 3291.8425 818.6554 -1357.6447 -2925.2654 -3122.653 -3107.7483 -3093.1458 -3078.543 -3064.2424 -3050.0427 -3035.9436 -3021.8445 -3007.9468 -2994.1497 -2980.4534 -2966.858 -2821.0327 -2608.9417 -2275.5981 -1969.5465 -1520.3888 -843.5303 -354.29077 -148.24219 318.94226 937.2894 1466.4093 2895.758 3299.8992 3299.8992 3299.8992 3299.8992 3299.8992 3299.8992 3299.8992 3299.8992 3299.8992 3299.8992 3299.8992 3299.8992 3041.281 258.41675 -1881.427 -3128.595 -3113.388 -3098.584 -3083.9812 -3069.58 -3055.1787 -3040.979 -3026.9805 -3012.9822 -2999.0845 -2985.3882 -2971.7925 -2958.197 -2673.6968 -2334.4116 -1933.6945 -1432.7728 -859.845 -446.4386 -115.20996 67.07153 362.54883 779.7821 1414.6454 2855.6763 3299.8992 3299.8992 3299.8992 3299.8992 3299.8992 3299.8992 3299.8992 3299.8992 3299.8992 3299.8992 3299.8992 3299.8992 2931.0059 228.30505 -1897.0367 -3130.7097 -3115.7043 -3100.7996 -3086.0962 -3071.4934 -3057.2937 -3043.0938 -3028.9946 -3015.097 -3001.1992 -2987.3015 -2973.9075 -2960.2112 -2745.3003 -2424.3438 -2112.854 -1670.6451 -1168.2129 -813.01575 -312.59766 -177.54822 180.56946 584.9121 1357.0404 2971.0876 3299.8992 3299.8992 3299.8992 3299.8992 3299.8992 3299.8992 3299.8992 3299.8992 3299.8992 3299.8992 3299.8992 3299.8992 2568.1548 -178.95813 -2125.241 -3119.5312 -3104.5256 -3089.923 -3075.119 -3060.8184 -3046.4172 -3032.318 -3018.219 -3004.3213 -2990.5242 -2976.828 -2963.333 -2893.9453 -2666.6472 -2274.3896 -1716.7694 -1219.6747 -649.56665 -386.1145 -155.69458 209.27124 573.5321 953.2013 1697.6349 3164.6484 3299.8992 3299.8992 3299.8992 3299.8992 3299.8992 3299.8992 3299.8992 

50.354004 50.354004 50.354004 50.354004 50.354004 50.354004 50.354004 50.354004 50.354004 50.354004 50.354004 50.354004 50.354004 50.354004 50.354004 50.354004 50.354004 50.354004 50.354004 50.354004 50.354004 50.354004 50.354004 50.354004 50.354004 50.354004 50.354004 50.354004 50.354004 50.354004 50.354004 50.354004 50.354004 50.354004 50.354004 50.354004 50.354004 50.354004 50.354004 50.354004 50.354004 50.354004 50.354004 50.354004 50.354004 50.354004 50.354004 50.354004 50.354004 50.354004 50.354004 50.354004 50.354004 50.354004 50.354004 50.354004 50.354004 50.354004 50.354004 50.354004 44.613647 92.14783 121.65527 108.66394 109.87244 105.441284 71.20056 6.8481445 -52.468872 -109.26819 -106.8512 -60.22339 -18.933105 -14.501953 7.7545166 27.996826 40.283203 43.807983 7.1502686 -42.599487 -73.81897 -71.7041 -28.903198 -10.272217 -25.378418 -94.86694 -114.10217 -83.48694 -34.94568 -6.9488525 -20.24231 -35.44922 -24.169922 0.70495605 20.24231 20.947266 16.818237 23.867798 52.972412 79.660034 79.660034 79.660034 79.660034 79.660034 79.660034 79.660034 79.660034 79.660034 79.660034 79.660034 79.660034 79.660034 79.660034 79.660034 79.660034 79.660034 79.660034 79.660034 79.660034 79.660034 8.963013 -5.3375244 26.184082 48.339844 61.331177 55.993652 52.06604 19.436646 -48.44055 -93.15491 -92.55066 -97.18323 -71.90552 -9.970093 31.622314 64.35242 66.06445 57.70569 -22.055054 -138.47351 -138.47351 -138.47351 -138.47351 -138.47351 -138.47351 -138.47351 -138.47351 -138.47351 -138.47351 -138.47351 -138.47351 -138.47351 -138.47351 -138.47351 -138.47351 -138.47351 -138.47351 -138.47351 -138.47351 -138.47351 -138.47351 -138.47351 -138.47351 -138.47351 -138.47351 -138.47351 -138.47351 -138.47351 -138.47351 -138.47351 -138.47351 -138.47351 -138.47351 -138.47351 -138.47351 -138.47351 -138.47351 -138.47351 -138.47351 -138.47351 23.464966 17.120361 17.623901 32.83081 57.10144 63.14392 53.778076 65.66162 58.10852 26.28479 8.459473 -1.2084961 -21.450806 -25.177002 -16.314697 -8.862305 3.8269043 4.3304443 14.602661 -16.616821 
38.36975 21.551514 -17.623901 -56.799316 -102.319336 -106.34766 -79.76074 -50.05188 -9.768677 4.7332764 -7.1502686 -20.24231 -10.977173 -4.2297363 0 7.5531006 16.314697 -1.6113281 -22.357178 -33.33435 -15.509033 0.10070801 32.025146 30.715942 32.32727 43.807983 23.666382 -12.185669 -32.730103 -36.35559 -14.703369 1.1077881 -1.2084961 -28.903198 -22.155762 -27.29187 -16.012573 -5.1361084 1.6113281 -5.3375244 -21.954346 -38.47046 -32.93152 -25.579834 -39.37683 -39.37683 -15.206909 -21.350098 -13.998413 5.3375244 26.989746 58.20923 64.55383 49.649048 5.4382324 -43.90869 -58.309937 -61.935425 -47.03064 -25.378418 -1.2084961 7.4523926 4.6325684 11.077881 8.459473 39.074707 46.42639 47.93701 37.161255 28.80249 11.984253 -8.459473 -19.033813 -19.73877 -22.860718 -58.309937 -59.21631 -46.728516 -44.51294 -48.742676 -44.613647 -11.984253 25.076294 13.394165 -14.804077 -49.44763 -42.800903 -40.283203 -22.357178 4.8339844 15.710449 25.177002 32.528687 26.889038 31.924438 49.0448 59.61914 46.5271 43.50586 47.232056 60.12268 80.4657 77.34375 78.25012 93.0542 112.69226 71.40198 39.98108 6.9488525 -2.3162842 10.070801 4.0283203 -30.212402 -17.72461 -16.616821 -9.970093 10.775757 -9.063721 -14.804077 -35.046387 -44.110107 -50.857544 -36.657715 -52.670288 -68.58215 -64.05029 -56.396484 -70.3949 -84.79614 -81.87561 -75.531006 -58.20923 -27.191162 -15.106201 -34.34143 -42.90161 -27.191162 14.199829 33.9386 45.318604 36.95984 40.786743 52.267456 68.07861 89.12659 79.660034 58.61206 53.778076 52.871704 47.232056 63.345337 68.28003 41.793823 7.8552246 -23.364258 -32.32727 -26.184082 -34.34143 -46.829224 -62.942505 -55.288696 -58.20923 -87.01172 -79.96216 -67.67578 -55.69153 -15.206909 3.0212402 9.970093 15.106201 29.507446 22.055054 14.300537 0.60424805 -4.8339844 0 4.0283203 -13.696289 -29.406738 -28.097534 -30.31311 -26.184082 -51.461792 -39.678955 -19.23523 4.2297363 10.876465 24.77417 29.910278 30.81665 48.339844 67.77649 74.82605 69.28711 43.203735 37.564087 44.110107 67.57507 52.06604 31.32019 
3299.8992 3299.8992 3299.8992 3299.8992 3285.901 3261.3281 3274.823 3291.742 -3291.5405 -3275.0244 -3258.609 -3242.5964 -3226.5837 -3210.6719 -3195.0623 -3179.4524 -3164.0442 -3148.8372 -3133.8318 -3118.7256 -3103.9214 -3088.916 -3074.716 -3059.8113 -3045.5107 -2775.009 -181.97937 2992.035 3299.8992 3299.8992 3299.8992 3299.8992 3299.8992 3299.8992 3299.8992 3299.8992 3299.8992 3299.8992 3299.8992 3299.8992 3299.8992 3299.8992 3299.8992 3299.8992 3285.3972 2982.669 3277.6428 3294.5618 -3288.8213 -3272.3052 -3255.89 -3239.8772 -3223.8647 -3208.0535 -3192.343 -3176.9348 -3161.5264 -3146.2188 -3131.1125 -3116.1072 -3101.4038 -3087.0024 -3071.997 -3057.898 -3043.5974 -2604.4097 -25.27771 3160.7207 3299.8992 3299.8992 3299.8992 3299.8992 3299.8992 3299.8992 3299.8992 3299.8992 3299.8992 3299.8992 3299.8992 3299.8992 3299.8992 3299.8992 3299.8992 3299.8992 3285.8 2528.5767 3280.0598 3296.9788 -3286.3037 -3269.8882 -3253.5735 -3237.561 -3221.6492 -3205.838 -3190.1274 -3174.7192 -3159.3108 -3144.0032 -3128.9978 -3113.9922 -3099.0874 -3084.1826 -3070.0835 -3055.2795 -3040.979 -2357.0708 445.83435 3299.8992 3299.8992 3299.8992 3299.8992 3299.8992 3299.8992 3299.8992 3299.8992 3299.8992 3299.8992 3299.8992 3299.8992 3299.8992 3299.8992 3299.8992 3299.8992 3299.6978 3283.6853 1574.6704 3281.7717 3298.6907 -3284.6924 -3268.3777 -3252.063 -3235.8489 -3220.0378 -3204.2266 -3188.617 -3173.108 -3157.8003 -3142.5933 -3127.487 -3112.4817 -3097.7783 -3083.377 -3068.4722 -3054.373 -3040.1733 -2151.0222 627.3102 3299.8992 3299.8992 3299.8992 3299.8992 3299.8992 3299.8992 3299.8992 3299.8992 3299.8992 3299.8992 3299.8992 3299.8992 3299.8992 3299.8992 3299.8992 3299.8992 3298.6907 3282.6782 894.2871 3282.6782 3299.5972 -3283.786 -3267.3706 -3251.056 -3235.0432 -3219.1313 -3203.2195 -3187.6099 -3172.2014 -3156.7932 -3141.687 -3126.48 -3111.676 -3096.8718 -3082.5713 -3068.1702 -3053.1646 -3039.0654 -2095.0286 814.7278 3299.8992 3299.8992 3299.8992 3299.8992 3299.8992 3299.8992 3299.8992 3299.8992 3299.8992 3299.8992 3299.8992 3299.8992 3299.8992 
3299.8992 3299.8992 3292.044 3277.24 3262.2344 3069.983 3252.1636 3267.9749 3283.786 3299.1943 -3285.3972 -3270.291 -3255.2856 -3240.3809 -3225.5767 -3210.974 -3196.3713 -3182.0708 -3167.871 -3153.5706 -3139.4714 -3125.3723 -3111.676 -3098.0803 -3084.4849 -1359.9609 1582.2235 3299.8992 3299.8992 3299.8992 3299.8992 3299.8992 3299.8992 3299.8992 3299.8992 3299.8992 3299.8992 3299.8992 3299.8992 3299.8992 3299.8992 3296.475 3281.369 3266.464 3251.5593 2626.5654 3244.5098 3260.5225 3276.132 3291.742 3299.8992 -3277.7434 -3262.738 -3247.7324 -3232.9285 -3218.225 -3203.7231 -3189.3218 -3175.0212 -3160.7207 -3146.6216 -3132.5225 -3118.8262 -3105.13 -3091.4336 -1172.4426 1210.611 3299.8992 3299.8992 3299.8992 3299.8992 3299.8992 3299.8992 3299.8992 3299.8992 3299.8992 3299.8992 3299.8992 3299.8992 3299.8992 3299.8992 3291.5405 3276.3335 3261.5295 3246.6248 2151.7273 3241.9922 3257.904 3273.5137 3289.1235 3299.8992 -3280.4626 -3265.3564 -3250.3508 -3235.5469 -3220.8435 -3206.2407 -3191.8396 -3177.4382 -3163.2385 -3149.1394 -3135.443 -3121.2432 -3107.4463 -3093.8506 -1027.3224 1673.465 3299.8992 3299.8992 3299.8992 3299.8992 3299.8992 3299.8992 3299.8992 3299.8992 3299.8992 3299.8992 3299.8992 3299.8992 3299.8992 3299.8992 3285.498 3270.291 3255.5876 3240.7837 1487.0544 3238.4673 3254.2786 3269.8882 3285.498 3299.8992 -3283.8867 -3268.881 -3253.8757 -3239.0715 -3224.3682 -3209.7656 -3195.2637 -3180.9631 -3166.6626 -3152.5635 -3138.3635 -3124.5667 -3110.8704 -3097.174 -1200.3387 1418.2709 3299.8992 3299.8992 3299.8992 3299.8992 3299.8992 3299.8992 3299.8992 3299.8992 3299.8992 3299.8992 3299.8992 3299.8992 3299.8992 3299.1943 3283.9873 3269.284 3254.48 3239.5752 472.11914 3240.4814 3256.3933 3272.0032 3287.4114 3299.8992 -3281.9731 -3266.867 -3251.8616 -3237.1582 -3222.4548 -3207.852 -3193.35 -3179.1504 -3164.8499 -3150.7507 -3136.9536 -3122.8545 -3109.1582 -3094.8577 -785.7239 1810.025 3299.8992 3299.8992 3299.8992 3299.8992 3299.8992 3299.8992 3299.8992 3299.8992 3299.8992 3299.8992 3299.8992 3299.8992 3299.8992 
-3287.8142 -3273.2117 -3258.4075 -3244.0063 -3229.9072 -2703.8086 3299.8992 3299.8992 3299.8992 3299.8992 3299.8992 3299.8992 3290.332 3275.5278 3260.7239 3245.819 3230.9143 3216.0095 3201.3062 3186.7034 3172 3157.498 3143.2983 3128.6956 2709.9517 829.63257 -866.5924 -2131.8877 -3278.4485 3146.7224 3162.4329 3178.1433 3193.5515 3208.96 3224.1667 3239.273 3254.3792 3269.3848 3284.2896 3299.0935 -3286.1023 -3271.6003 -3257.199 -3242.9993 -3228.195 -2232.898 3299.8992 3299.8992 3299.8992 3299.8992 3299.8992 3299.8992 3289.224 3274.4202 3259.4146 3244.7112 3229.7058 3215.0024 3200.1982 3185.4949 3170.7915 3156.3904 3141.7876 3124.768 2409.6404 534.6588 -1100.3357 -2457.074 3134.9395 3150.65 3166.3604 3181.8694 3197.2778 3212.686 3227.893 3243.0999 3258.206 3273.1108 3288.0156 3299.8992 -3282.5774 -3267.9749 -3253.2715 -3238.7695 -3224.771 -1932.6874 3299.8992 3299.8992 3299.8992 3299.8992 3299.8992 3299.8992 3291.4397 3276.3335 3261.4287 3246.524 3231.5186 3216.7144 3201.9104 3187.3076 3172.6042 3158.1023 3143.9026 3128.3936 2518.2036 633.45337 -1084.9274 -2471.878 3136.6516 3152.5635 3168.274 3183.8835 3199.1912 3214.4988 3229.7058 3244.9126 3260.0188 3275.0244 3289.8284 3299.8992 -3280.7646 -3266.162 -3251.5593 -3237.0574 -3223.1597 -1284.9335 3299.8992 3299.8992 3299.8992 3299.8992 3299.8992 3299.8992 3290.0298 3274.9236 3260.2202 3245.3154 3230.4106 3215.6067 3200.8025 3186.099 3171.4966 3156.9946 3142.3918 3124.6672 2295.1355 487.9303 -1164.2853 -2433.5083 3136.5508 3152.5635 3168.173 3183.783 3199.0906 3214.4988 3229.8064 3244.9126 3259.9182 3275.0244 3289.8284 3299.8992 -3280.7646 -3266.162 -3251.358 -3236.9568 -3223.059 -710.5957 3299.8992 3299.8992 3299.8992 3299.8992 3299.8992 3299.8992 3287.4114 3272.6074 3257.8032 3242.7979 3227.7922 3213.1897 3198.285 3183.6821 3169.281 3154.6782 3140.4785 3123.4587 2265.9302 289.63623 -1387.1521 -2706.8298 3138.162 3154.074 3169.6838 3185.2935 3200.8025 3216.0095 3231.2163 3246.4233 3261.4287 3276.3335 3291.2383 3299.8992 
3299.8992 3299.8992 3299.8992 3299.8992 3299.8992 3299.8992 -1626.535 -3190.8325 -3175.3235 -3159.8145 -3144.6074 -3129.602 -3114.5964 -3099.6917 -3085.1897 -3070.6877 -3056.3872 -3041.986 -3027.7861 -3013.7878 -2999.8901 -2986.093 -2972.699 -2958.7004 -2945.2056 -2838.455 -1493.1976 72.10693 1599.3439 3130.9111 3299.8992 3299.8992 3299.8992 3299.8992 3299.8992 3299.8992 3299.8992 3299.8992 3299.8992 3299.8992 3299.8992 3299.8992 3299.8992 3299.8992 3299.8992 3299.8992 -2347.9065 -3188.7175 -3173.2085 -3157.8003 -3142.5933 -3127.588 -3112.683 -3097.879 -3083.2764 -3068.7744 -3054.373 -3040.0725 -3025.9734 -3011.8743 -2998.0774 -2984.1797 -2970.8862 -2956.9885 -2943.3928 -2704.01 -1205.4749 398.09875 1900.1587 3299.8992 3299.8992 3299.8992 3299.8992 3299.8992 3299.8992 3299.8992 3299.8992 3299.8992 3299.8992 3299.8992 3299.8992 3299.8992 3299.8992 3299.8992 3299.8992 3299.8992 -2867.5598 -3190.2283 -3174.6184 -3159.2102 -3144.0032 -3128.897 -3114.093 -3099.2888 -3084.7869 -3070.285 -3055.783 -3041.5833 -3027.3833 -3013.385 -2999.3865 -2985.4888 -2971.692 -2958.197 -2944.9036 -2645.1965 -1108.2916 501.22375 1865.6158 3273.5137 3299.8992 3299.8992 3299.8992 3299.8992 3299.8992 3299.8992 3299.8992 3299.8992 3299.8992 3299.8992 3299.8992 3299.8992 3299.8992 3299.8992 3299.8992 3025.47 -3205.2336 -3189.2212 -3173.7122 -3158.3037 -3143.1975 -3128.0913 -3113.2874 -3098.4832 -3083.8806 -3069.2778 -3054.9773 -3040.6768 -3026.477 -3012.5793 -2998.5808 -2984.784 -2970.7854 -2957.2905 -2943.8965 -2475.302 -790.155 860.3485 2245.5872 3299.8992 3299.8992 3299.8992 3299.8992 3299.8992 3299.8992 3299.8992 3299.8992 3299.8992 3299.8992 3299.8992 3299.8992 3299.8992 3299.8992 3299.8992 3299.8992 2775.2104 -3208.5571 -3192.6453 -3177.1362 -3161.6272 -3146.521 -3131.5154 -3116.6106 -3101.8066 -3087.2039 -3072.702 -3058.3008 -3044.0002 -3029.8003 -3015.802 -3001.8035 -2988.0066 -2974.6123 -2960.7146 -2947.1191 -2413.3667 -822.07947 769.00635 2297.8545 3299.8992 3299.8992 3299.8992 3299.8992 3299.8992 3299.8992 3299.8992 3299.8992 3299.8992 3299.8992 3299.8992 
3257.199 3272.9094 3288.7207 3299.8992 -3280.664 -2657.2815 2659.6985 3299.8992 3299.8992 3284.5916 3269.5862 3254.48 3239.3738 3224.1667 3208.7585 3193.35 3177.942 3162.5334 3147.2258 3132.019 3116.9128 3102.008 3087.2039 3069.0764 2458.383 928.93066 -421.86584 -1770.8496 -2254.8523 -2914.9932 3097.0732 3113.8916 3130.5083 3147.0244 3163.339 3179.7546 3195.6665 3211.7798 3227.7922 3243.704 3259.4146 3275.2258 3291.1377 3299.8992 -3278.3477 -2085.8643 3299.8992 3299.8992 3298.2878 3282.376 3267.3706 3252.2644 3237.2588 3221.9512 3206.6436 3191.2354 3175.827 3160.4187 3145.0103 3130.005 3114.8987 3099.994 3085.1897 3063.6382 2227.4597 780.18494 -363.85803 -1624.3195 -2052.127 -2723.648 3093.8506 3110.669 3127.3865 3144.0032 3160.1165 3176.532 3192.6453 3208.7585 3224.5696 3240.6829 3256.4941 3272.1038 3287.4114 3299.8992 -3281.2683 -1842.8558 3299.8992 3299.8992 3293.8567 3277.9448 3263.04 3248.0347 3232.9285 3217.52 3202.3132 3187.0056 3171.4966 3156.0881 3140.8813 3125.6743 3110.669 3095.8647 3080.2551 3014.0898 1943.9667 465.57312 -781.39343 -2091.2017 -2593.5332 -3224.771 3102.6123 3119.229 3135.846 3152.362 3168.4753 3184.79 3200.9033 3217.0166 3232.8276 3248.7395 3264.6514 3280.2612 3295.468 -3288.7207 -3273.413 -1343.747 3299.8992 3299.8992 3298.7915 3282.6782 3267.7734 3252.7678 3237.6616 3222.2534 3207.0464 3191.5374 3176.0283 3160.62 3145.413 3130.1055 3115.2007 3100.296 3084.7869 3001.5015 1962.1948 432.13806 -810.69946 -2141.858 -2503.8025 -3093.3472 3106.3384 3122.9553 3139.6729 3155.9875 3172.4028 3188.7175 3204.6294 3220.7427 3236.554 3252.5664 3268.2769 3283.8867 3298.993 -3285.0952 -3269.8882 -1001.4404 3299.8992 3299.8992 3299.8992 3284.491 3269.5862 3254.48 3239.273 3224.0662 3208.6577 3193.048 3177.6396 3162.1306 3147.0244 3131.8176 3116.7114 3101.8066 3086.3982 3006.7383 1949.6063 547.9523 -633.8562 -1888.4766 -2252.0325 -2870.883 3103.0151 3119.7327 3136.4502 3152.765 3169.1802 3185.4949 3201.6082 3217.52 3233.432 3249.4446 
3299.8992 3299.8992 3299.8992 3299.8992 3299.8992 2544.287 -174.62769 -2101.6753 -3126.8828 -3111.8774 -3096.9727 -3082.2693 -3067.868 -3053.5674 -3039.3677 -3025.2686 -3011.27 -2997.3723 -2983.676 -2969.9797 -2956.4849 -2607.9346 -2254.953 -1953.2318 -1602.3651 -1013.4247 -568.1946 -189.9353 118.2312 473.83118 861.4563 1656.8481 3133.9324 3299.8992 3299.8992 3299.8992 3299.8992 3299.8992 3299.8992 3299.8992 3299.8992 3299.8992 3299.8992 3299.8992 3299.8992 2296.1426 -203.02734 -1994.8242 -3125.473 -3110.4675 -3095.7642 -3081.0608 -3066.6594 -3052.359 -3038.1592 -3024.1606 -3010.1624 -2996.2646 -2982.5684 -2968.9727 -2953.5645 -2617.804 -2268.4478 -1831.9794 -1421.3928 -910.7025 -458.62427 -120.7489 112.39014 486.8225 1005.8716 1901.0651 3299.8992 3299.8992 3299.8992 3299.8992 3299.8992 3299.8992 3299.8992 3299.8992 3299.8992 3299.8992 3299.8992 3299.8992 3299.8992 2326.8584 -338.68103 -2285.8704 -3127.9907 -3112.985 -3098.1812 -3083.5784 -3069.0764 -3054.776 -3040.5762 -3026.5776 -3012.5793 -2998.7822 -2984.9854 -2971.289 -2864.1357 -2567.047 -2226.7546 -1852.121 -1406.6895 -888.1439 -466.07666 -69.992065 278.25623 618.9514 1134.7778 2079.2175 3299.8992 3299.8992 3299.8992 3299.8992 3299.8992 3299.8992 3299.8992 3299.8992 3299.8992 3299.8992 3299.8992 3299.8992 3299.8992 1951.7212 -535.8673 -2341.864 -3131.2134 -3116.1072 -3101.303 -3086.801 -3072.299 -3058.0994 -3043.7988 -3029.8003 -3015.802 -3001.9043 -2988.3086 -2974.5117 -2960.614 -2572.586 -2178.8176 -2043.4662 -1566.7145 -1021.98486 -564.16626 -298.90137 -104.13208 167.67883 840.91187 1974.884 3299.8992 3299.8992 3299.8992 3299.8992 3299.8992 3299.8992 3299.8992 3299.8992 3299.8992 3299.8992 3299.8992 3299.8992 3299.8992 1564.7003 -984.8236 -2770.7793 -3119.0276 -3104.0222 -3089.3188 -3074.716 -3060.315 -3046.115 -3032.0159 -3017.9167 -3003.9185 -2990.2222 -2976.425 -2962.8296 -2642.0745 -2332.196 -2097.5464 -1780.1147 -1299.6368 -813.62 -540.4999 -275.235 50.857544 432.33948 1072.2382 2259.8877 3299.8992 3299.8992 3299.8992 3299.8992 3299.8992 3299.8992 3299.8992 3299.8992 

-54.58374 -32.025146 16.012573 43.807983 29.708862 14.602661 9.466553 22.659302 57.806396 93.15491 79.86145 46.92993 27.191162 13.897705 33.032227 44.0094 25.881958 -1.5106201 -71.60339 -154.28467 -154.28467 -154.28467 -154.28467 -154.28467 -154.28467 -154.28467 -154.28467 -154.28467 -154.28467 -154.28467 -154.28467 -154.28467 -154.28467 -154.28467 -154.28467 -154.28467 -154.28467 -154.28467 -154.28467 -154.28467 99.70093 49.54834 -18.328857 -89.52942 -168.08167 -210.0769 -165.66467 -103.427124 -72.81189 -62.539673 -42.095947 -19.839478 4.6325684 23.565674 14.099121 -39.37683 -89.63013 -113.29651 -98.99597 -67.17224 -67.17224 -67.17224 -67.17224 -67.17224 -67.17224 -67.17224 -67.17224 -67.17224 -67.17224 -67.17224 -67.17224 -67.17224 -67.17224 -67.17224 -67.17224 -67.17224 -67.17224 -67.17224 -67.17224 -67.17224 -67.17224 -67.17224 -67.17224 -67.17224 -67.17224 -67.17224 -67.17224 -67.17224 -67.17224 -67.17224 -67.17224 -67.17224 -67.17224 -67.17224 -67.17224 -67.17224 -67.17224 -67.17224 -67.17224 -67.17224 -67.17224 -67.17224 -67.17224 -67.17224 -67.17224 -67.17224 -67.17224 -67.17224 -67.17224 -67.17224 -67.17224 -67.17224 -67.17224 -67.17224 -67.17224 -67.17224 -67.17224 -67.17224 -67.17224 -67.17224 -55.18799 -41.088867 -12.789917 2.7191162 -22.659302 -72.61047 -96.37756 -96.98181 -75.22888 -58.10852 -49.95117 -28.903198 -30.81665 -29.30603 -27.29187 -15.408325 7.9559326 38.974 64.151 78.95508 78.95508 78.95508 78.95508 78.95508 78.95508 78.95508 78.95508 78.95508 78.95508 78.95508 78.95508 78.95508 78.95508 78.95508 78.95508 78.95508 78.95508 78.95508 78.95508 78.95508 -22.457886 41.793823 102.21863 137.36572 143.3075 143.3075 129.30908 105.340576 34.94568 -48.94409 -125.7843 -180.77087 -170.19653 -141.89758 -131.42395 -140.28625 -114.80713 -65.05737 -20.443726 -9.667969 -9.667969 -9.667969 -9.667969 -9.667969 -9.667969 -9.667969 -9.667969 -9.667969 -9.667969 -9.667969 -9.667969 -9.667969 -9.667969 -9.667969 -9.667969 -9.667969 -9.667969 -9.667969 -9.667969 -9.667969 
28.097534 45.620728 56.19507 41.99524 10.876465 -28.198242 -49.649048 -72.006226 -55.792236 -33.83789 -25.479126 -46.728516 -70.69702 -103.427124 -87.91809 -49.44763 -12.084961 1.7120361 18.026733 10.473633 8.358765 16.21399 21.652222 21.24939 14.703369 21.75293 -2.3162842 -8.963013 0.20141602 18.328857 29.910278 17.72461 -11.480713 -8.056641 -22.860718 -21.652222 0.10070801 16.71753 1.6113281 -13.595581 -13.293457 -21.954346 -44.0094 -67.37366 -76.135254 -58.410645 -30.81665 -12.991333 9.869385 41.693115 57.10144 51.5625 61.431885 76.43738 84.695435 92.55066 89.93225 94.262695 110.57739 122.25952 122.25952 131.82678 152.97546 179.15955 166.0675 120.043945 80.06287 77.44446 99.19739 100.808716 79.055786 10.070801 -85.80322 -186.91406 -228.20435 -243.00842 -240.99426 -242.60559 -225.58594 -200.20752 -145.8252 -108.76465 -91.64429 -90.93933 -87.213135 -74.12109 -52.468872 -37.161255 -35.85205 -43.203735 -44.110107 -43.50586 -44.91577 -31.32019 -26.989746 -19.335938 -4.7332764 19.436646 38.168335 44.51294 38.571167 52.670288 52.06604 50.958252 44.714355 32.730103 -2.6184082 -8.358765 -7.1502686 19.436646 27.79541 26.889038 14.602661 26.687622 37.86621 18.630981 29.910278 28.701782 11.581421 -8.761597 -23.062134 -22.76001 -25.378418 -6.1431885 34.34143 62.64038 70.3949 50.454712 35.046387 41.088867 46.224976 58.813477 68.07861 62.23755 25.680542 -27.191162 -54.68445 -74.2218 -90.5365 -93.45703 -50.756836 -29.910278 -17.72461 -1.5106201 14.501953 -5.7403564 -14.401245 -6.7474365 19.033813 5.8410645 -19.839478 -43.40515 -54.281616 -41.4917 -14.904785 -0.20141602 19.839478 21.350098 24.673462 26.184082 28.399658 16.113281 12.185669 1.4099121 -8.459473 -3.9276123 18.630981 32.025146 31.420898 13.293457 -14.401245 -35.85205 -23.76709 -11.984253 0.9063721 -3.0212402 11.480713 23.062134 26.486206 -22.357178 -29.910278 -2.9205322 25.076294 36.657715 50.55542 62.23755 55.59082 62.13684 56.19507 46.224976 49.649048 41.088867 10.675049 -6.0424805 -22.357178 -42.095947 -71.09985 -80.667114 -58.007812 -25.78125 
3299.8992 3299.8992 3299.8992 3298.3887 3282.2754 -168.4845 3284.491 3299.8992 -3281.8726 -3265.5579 -3249.4446 -3233.3313 -3217.4194 -3201.6082 -3185.9985 -3170.4895 -3155.182 -3139.9749 -3124.9695 -3110.0647 -3095.2605 -3080.4565 -3066.2566 -3051.4526 -3037.152 -1691.0889 1163.681 3299.8992 3299.8992 3299.8992 3299.8992 3299.8992 3299.8992 3299.8992 3299.8992 3299.8992 3299.8992 3299.8992 3299.8992 3299.8992 3299.8992 3299.8992 3299.8992 3296.2737 3280.0598 -1449.3896 3285.3972 3299.8992 -3281.2683 -3264.7522 -3248.639 -3232.4248 -3216.6138 -3200.8025 -3185.2935 -3169.6838 -3154.4768 -3139.27 -3124.2644 -3109.3596 -3094.6562 -3079.7515 -3065.048 -3051.0498 -3036.7493 -1214.5386 1775.7843 3299.8992 3299.8992 3299.8992 3299.8992 3299.8992 3299.8992 3299.8992 3299.8992 3299.8992 3299.8992 3299.8992 3299.8992 3299.8992 3299.8992 3299.8992 3299.8992 3291.641 3275.4272 -2795.2515 3283.6853 3299.8992 -3282.8796 -3266.565 -3250.2502 -3234.2375 -3218.3257 -3202.5146 -3186.9048 -3171.4966 -3156.189 -3140.982 -3125.9766 -3111.0718 -3096.2676 -3081.2622 -3067.163 -3052.359 -3038.1592 -1026.7181 1961.6913 3299.8992 3299.8992 3299.8992 3299.8992 3299.8992 3299.8992 3299.8992 3299.8992 3299.8992 3299.8992 3299.8992 3299.8992 3299.8992 3299.8992 3299.8992 3299.8992 3288.4185 3272.0032 3266.0613 3283.081 3299.7986 -3283.5845 -3267.2698 -3251.056 -3234.9426 -3219.0308 -3203.2195 -3187.6099 -3172.2014 -3156.8938 -3141.687 -3126.6814 -3111.7766 -3096.8718 -3081.967 -3067.3645 -3053.366 -3039.0654 -1171.4355 1594.0063 3299.8992 3299.8992 3299.8992 3299.8992 3299.8992 3299.8992 3299.8992 3299.8992 3299.8992 3299.8992 3299.8992 3299.8992 3299.8992 3299.8992 3299.8992 3299.8992 3289.8284 3273.2117 3270.0896 3287.3108 3299.8992 -3279.3547 -3262.9395 -3246.7253 -3230.713 -3214.801 -3199.0906 -3183.4807 -3168.0725 -3152.8655 -3137.6587 -3122.653 -3107.849 -3093.045 -3078.6438 -3064.3433 -3049.539 -3035.2385 -983.8165 1927.2491 3299.8992 3299.8992 3299.8992 3299.8992 3299.8992 3299.8992 3299.8992 3299.8992 3299.8992 3299.8992 3299.8992 3299.8992 3299.8992 
3296.878 3281.7717 3267.0684 3252.365 3237.3596 -464.96887 3240.985 3256.7961 3272.406 3287.8142 3299.8992 -3281.5703 -3266.565 -3251.5593 -3236.7554 -3222.1526 -3207.55 -3193.1487 -3178.7476 -3164.5476 -3150.4485 -3136.7522 -3122.4517 -3108.7554 -3090.5273 -848.9685 1762.1887 3299.8992 3299.8992 3299.8992 3299.8992 3299.8992 3299.8992 3299.8992 3299.8992 3299.8992 3299.8992 3299.8992 3299.8992 3299.8992 3297.583 3282.4768 3267.7734 3253.07 3237.9639 -1211.3159 3243.402 3259.314 3274.9236 3290.332 3299.8992 -3279.2542 -3264.047 -3249.2432 -3234.439 -3219.8364 -3205.2336 -3190.8325 -3176.4312 -3162.2314 -3148.233 -3134.436 -3120.337 -3106.5398 -3016.104 -644.63196 1911.2366 3299.8992 3299.8992 3299.8992 3299.8992 3299.8992 3299.8992 3299.8992 3299.8992 3299.8992 3299.8992 3299.8992 3299.8992 3299.8992 3297.6836 3282.4768 3267.874 3253.07 3237.863 -2429.5806 3246.4233 3262.2344 3277.8442 3293.2524 3299.8992 -3276.132 -3261.2273 -3246.4233 -3231.4177 -3216.9158 -3202.3132 -3187.9119 -3173.6113 -3159.4116 -3145.413 -3131.1125 -3117.517 -3103.8208 -2569.3633 218.63708 2763.2263 3299.8992 3299.8992 3299.8992 3299.8992 3299.8992 3299.8992 3299.8992 3299.8992 3299.8992 3299.8992 3299.8992 3299.8992 3299.8992 3291.339 3276.7363 3261.5295 3246.8262 3231.6191 3227.2888 3242.9993 3258.7097 3274.3193 3289.7278 3299.8992 -3279.7576 -3264.6514 -3249.7466 -3234.9426 -3220.4407 -3205.7373 -3191.336 -3177.0354 -3162.7349 -3148.7366 -3134.9395 -3120.7397 -3107.144 -2872.6958 -342.70935 1998.2483 3299.8992 3299.8992 3299.8992 3299.8992 3299.8992 3299.8992 3299.8992 3299.8992 3299.8992 3299.8992 3299.8992 3299.8992 3299.8992 3294.9646 3280.1604 3265.0542 3250.3508 3234.8418 3232.5256 3248.941 3264.6514 3280.1604 3295.5688 -3289.1235 -3274.0173 -3258.9111 -3244.107 -3229.303 -3214.7002 -3200.0977 -3185.797 -3171.4966 -3157.2966 -3143.2983 -3129.0984 -3115.402 -3101.7058 -2404.9072 296.9879 2737.1428 3299.8992 3299.8992 3299.8992 3299.8992 3299.8992 3299.8992 3299.8992 3299.8992 3299.8992 3299.8992 3299.8992 3299.8992 3299.8992 
-3279.3547 -3264.7522 -3250.0488 -3235.7483 -3221.2463 -141.79688 3299.8992 3299.8992 3299.8992 3299.8992 3299.8992 3299.8992 3286.8071 3272.1038 3257.0984 3242.0928 3227.0874 3212.2832 3197.6807 3183.1787 3168.4753 3153.9734 3139.4714 3120.639 1987.9761 67.8772 -1438.4125 -2715.8936 3140.3777 3156.189 3172 3187.509 3202.9175 3218.225 3233.432 3248.4375 3263.5437 3278.549 3293.3533 -3291.8425 -3277.1392 -3262.6372 -3248.3367 -3233.9355 -3219.937 586.82556 3299.8992 3299.8992 3299.8992 3299.8992 3299.8992 3299.8992 3285.3972 3270.5933 3255.6885 3240.7837 3225.9795 3211.0747 3196.3713 3181.7688 3167.166 3152.664 3138.4644 3119.7327 1973.6755 -59.61914 -1683.435 -2881.8604 3141.687 3157.498 3173.2085 3188.7175 3204.126 3219.3328 3234.5398 3249.646 3264.7522 3279.657 3294.5618 -3290.7349 -3276.0315 -3261.5295 -3246.8262 -3232.5256 -3218.3257 1187.146 3299.8992 3299.8992 3299.8992 3299.8992 3299.8992 3299.6978 3284.8938 3270.0896 3255.1848 3240.3809 3225.3752 3210.6719 3195.868 3181.2651 3166.4612 3152.1606 3137.3564 3110.971 1567.3187 -388.5315 -1908.8196 -3033.9294 3146.2188 3162.1306 3177.7405 3193.35 3208.5571 3223.8647 3239.0715 3254.1777 3269.1833 3284.0881 3298.7915 -3286.4043 -3271.701 -3257.199 -3242.8984 -3228.598 -3214.7002 1959.5764 3299.8992 3299.8992 3299.8992 3299.8992 3299.8992 3299.8992 3285.5986 3270.7947 3255.789 3240.8843 3226.0803 3211.1755 3196.3713 3181.7688 3167.166 3152.664 3138.3635 3109.561 1761.383 -110.476685 -1560.0677 -2789.209 3142.2913 3158.0017 3173.6113 3189.2212 3204.6294 3219.8364 3235.0432 3250.1494 3265.155 3280.1604 3295.0652 -3290.2312 -3275.6287 -3261.026 -3246.3225 -3231.8206 -3218.1243 2428.2715 3299.8992 3299.8992 3299.8992 3299.8992 3299.8992 3295.2666 3280.4626 3265.6584 3250.8545 3235.8489 3221.1455 3206.1401 3191.336 3176.9348 3162.332 3147.83 3133.5295 2997.0703 1402.1576 -431.03027 -1967.7338 3299.8992 3145.2117 3160.922 3176.532 3191.9402 3207.3486 3222.6562 3237.7625 3252.9692 3267.9749 3282.8796 3297.6836 -3287.5122 
3299.8992 3299.8992 3299.8992 3299.8992 3299.8992 2349.6184 -3208.7585 -3192.8467 -3177.4382 -3162.1306 -3146.823 -3131.8176 -3116.9128 -3102.008 -3087.6067 -3073.0042 -3058.7036 -3044.3022 -3030.2031 -3016.104 -3002.2063 -2988.4094 -2974.9146 -2961.0168 -2947.4211 -2416.69 -983.6151 393.36548 1903.1799 3299.8992 3299.8992 3299.8992 3299.8992 3299.8992 3299.8992 3299.8992 3299.8992 3299.8992 3299.8992 3299.8992 3299.8992 3299.8992 3299.8992 3299.8992 3299.8992 1775.885 -3201.2053 -3185.4949 -3169.9858 -3154.4768 -3139.3706 -3124.4658 -3109.6619 -3094.9585 -3080.3557 -3065.8538 -3051.5532 -3037.2527 -3023.1536 -3009.1553 -2995.2576 -2981.3599 -2967.6636 -2954.1687 -2940.7744 -2348.3093 -802.0386 859.34143 2377.9175 3299.8992 3299.8992 3299.8992 3299.8992 3299.8992 3299.8992 3299.8992 3299.8992 3299.8992 3299.8992 3299.8992 3299.8992 3299.8992 3299.8992 3299.8992 3299.8992 1304.6722 -3198.6877 -3182.9773 -3167.4683 -3152.0598 -3136.9536 -3122.0488 -3107.144 -3092.4407 -3077.9387 -3063.4368 -3049.1362 -3034.9365 -3020.7366 -3006.8389 -2992.9412 -2979.0435 -2965.2466 -2951.651 -2938.5588 -1940.4419 -307.9651 1093.1854 2411.1511 3299.8992 3299.8992 3299.8992 3299.8992 3299.8992 3299.8992 3299.8992 3299.8992 3299.8992 3299.8992 3299.8992 3299.8992 3299.8992 3299.8992 3299.8992 3299.8992 520.7611 -3197.882 -3182.1716 -3166.7632 -3151.4556 -3136.3494 -3121.344 -3106.5398 -3091.8364 -3077.3345 -3062.9333 -3048.532 -3034.1309 -3020.2332 -3006.2346 -2992.337 -2978.54 -2965.1458 -2951.3489 -2937.7532 -1810.1257 -81.47278 1319.2749 2689.508 3299.8992 3299.8992 3299.8992 3299.8992 3299.8992 3299.8992 3299.8992 3299.8992 3299.8992 3299.8992 3299.8992 3299.8992 3299.8992 3299.8992 3299.8992 3299.8992 134.14307 -3199.4934 -3183.6821 -3168.4753 -3153.1677 -3138.0615 -3122.9553 -3108.1511 -3093.4478 -3078.9458 -3064.4438 -3050.0427 -3035.8428 -3021.7437 -3007.7454 -2993.8477 -2980.0505 -2966.6565 -2952.8594 -2782.3608 -1168.6157 430.32532 1739.4287 2997.4731 3299.8992 3299.8992 3299.8992 3299.8992 3299.8992 3299.8992 3299.8992 3299.8992 3299.8992 3299.8992 3299.8992 
3265.2556 3280.7646 3296.576 -3287.915 -3272.8088 -554.09546 3299.8992 3299.8992 3294.7632 3279.0527 3264.047 3248.941 3233.8347 3218.527 3203.2195 3187.7104 3172.3022 3156.8938 3141.5862 3126.3794 3111.4746 3096.5698 3080.3557 2880.3496 1679.8096 249.45374 -787.5366 -2060.2844 -2524.0447 -3150.247 3105.3313 3122.1497 3138.6658 3155.081 3171.3958 3187.7104 3203.7231 3219.8364 3235.7483 3251.4587 3267.3706 3282.8796 3298.7915 -3286.0015 -3270.5933 22.457886 3299.8992 3299.8992 3293.9575 3278.1462 3263.1409 3248.0347 3232.9285 3217.6208 3202.3132 3186.8042 3171.3958 3155.9875 3140.68 3125.6743 3110.669 3095.6633 3079.7515 2839.3616 1624.118 180.46875 -925.10376 -2168.6462 -2620.8252 -3149.4414 3107.0435 3123.761 3140.277 3156.6924 3173.108 3189.3218 3205.3345 3221.347 3237.2588 3253.1707 3268.7805 3284.491 3299.8992 -3284.3901 -3269.1833 480.3772 3299.8992 3299.8992 3293.051 3277.24 3262.2344 3247.229 3231.9214 3216.7144 3201.3062 3185.8977 3170.3887 3154.9805 3139.7734 3124.6672 3109.7625 3094.757 3077.536 2805.02 1438.0096 17.321777 -1085.3302 -2333.1023 -2766.1467 3289.627 3110.8704 3127.588 3144.0032 3160.4187 3176.7334 3192.9473 3209.0605 3225.0732 3240.8843 3256.6956 3272.406 3288.1165 3299.8992 -3280.8655 -3265.7593 777.5665 3299.8992 3299.8992 3295.0652 3279.0527 3264.047 3248.941 3233.8347 3218.4265 3203.119 3187.7104 3172.1008 3156.8938 3141.5862 3126.3794 3111.5752 3096.5698 3078.7444 2795.05 1485.5438 44.815063 -1082.8125 -2192.6147 -2626.4648 -3181.8694 3110.266 3126.9836 3143.2983 3159.915 3176.0283 3192.4438 3208.3557 3224.3682 3240.1794 3256.192 3271.6003 3287.5122 3299.8992 -3281.5703 -3262.6372 1329.0436 3299.8992 3299.8992 3291.4397 3275.4272 3260.5225 3245.4163 3230.1086 3215.0024 3199.594 3184.1858 3168.576 3153.3691 3138.0615 3123.056 3108.0505 3093.1458 3074.716 2724.2522 1325.116 -73.61755 -1142.2302 -2377.6152 -2900.0884 3095.462 3112.1794 3128.897 3145.3125 3161.9292 3178.1433 3194.2566 3210.3699 3226.3823 3242.0928 3258.1055 
3299.8992 3299.8992 3299.8992 3299.8992 3299.8992 1427.8381 -954.00696 -2653.8574 -3118.927 -3104.1228 -3089.218 -3074.716 -3060.315 -3046.115 -3031.9153 -3017.9167 -3004.1199 -2990.2222 -2976.6265 -2963.031 -2802.4016 -2423.1353 -2092.7124 -1611.8317 -1151.7975 -900.4303 -541.30554 -132.33032 241.3971 522.37244 1148.6755 2333.606 3299.8992 3299.8992 3299.8992 3299.8992 3299.8992 3299.8992 3299.8992 3299.8992 3299.8992 3299.8992 3299.8992 3299.8992 3299.8992 1190.6708 -1097.5159 -2976.9287 -3118.1213 -3103.3171 -3088.6138 -3074.0112 -3059.6099 -3045.3093 -3031.311 -3017.212 -3003.3142 -2989.4165 -2975.9216 -2962.1245 -2806.8328 -2264.3188 -1856.25 -1537.207 -981.0974 -354.39148 15.206909 268.58826 545.8374 872.03064 1348.4802 2548.7183 3299.8992 3299.8992 3299.8992 3299.8992 3299.8992 3299.8992 3299.8992 3299.8992 3299.8992 3299.8992 3299.8992 3299.8992 3299.8992 899.82605 -1395.3094 -3053.2654 -3127.9907 -3113.086 -3098.2817 -3083.7798 -3069.3787 -3055.0781 -3040.7776 -3026.88 -3012.9822 -2999.185 -2985.4888 -2971.7925 -2833.621 -2516.0889 -2149.6123 -1836.4105 -1336.3953 -783.609 -406.96106 -14.099121 293.26172 584.8114 1232.0618 2555.9692 3299.8992 3299.8992 3299.8992 3299.8992 3299.8992 3299.8992 3299.8992 3299.8992 3299.8992 3299.8992 3299.8992 3299.8992 3198.9897 646.6461 -1540.9332 -3136.0474 -3120.9412 -3106.0364 -3091.333 -3076.9316 -3062.5305 -3048.1292 -3034.2314 -3020.1323 -3006.2346 -2992.4377 -2978.7415 -2963.2324 -2639.6575 -2166.632 -1888.2751 -1464.4958 -890.96375 -499.411 50.55542 199.20044 433.8501 689.0442 1464.6973 2839.3616 3299.8992 3299.8992 3299.8992 3299.8992 3299.8992 3299.8992 3299.8992 3299.8992 3299.8992 3299.8992 3299.8992 3299.8992 3234.0361 759.4391 -1380.8075 -3085.9954 -3131.2134 -3116.3086 -3101.4038 -3086.9019 -3072.5005 -3058.2 -3043.8994 -3029.9011 -3016.0034 -3002.1057 -2988.4094 -2974.6123 -2793.8416 -2422.9338 -2100.2654 -1699.3469 -1151.4954 -522.57385 -201.81885 151.46484 345.932 630.0293 1440.5273 2913.0798 3299.8992 3299.8992 3299.8992 3299.8992 3299.8992 3299.8992 3299.8992 3299.8992 

-9.667969 -9.667969 -9.667969 -9.667969 -9.667969 -9.667969 -9.667969 -9.667969 -9.667969 -9.667969 -9.667969 -9.667969 -9.667969 -9.667969 -9.667969 -9.667969 -9.667969 -9.667969 -9.667969 -9.667969 47.03064 53.475952 50.656128 60.928345 90.93933 106.54907 77.34375 81.674194 48.742676 -29.406738 -52.267456 -40.88745 0.40283203 38.671875 58.007812 81.47278 93.65845 67.8772 16.516113 -29.80957 -29.80957 -29.80957 -29.80957 -29.80957 -29.80957 -29.80957 -29.80957 -29.80957 -29.80957 -29.80957 -29.80957 -29.80957 -29.80957 -29.80957 -29.80957 -29.80957 -29.80957 -29.80957 -29.80957 -29.80957 11.782837 36.4563 80.06287 107.25403 101.11084 52.56958 -26.184082 -95.97473 -151.36414 -178.95813 -166.47034 -139.98413 -119.4397 -81.7749 -59.820557 -42.700195 -27.493286 -36.154175 -41.4917 -34.039307 -34.039307 -34.039307 -34.039307 -34.039307 -34.039307 -34.039307 -34.039307 -34.039307 -34.039307 -34.039307 -34.039307 -34.039307 -34.039307 -34.039307 -34.039307 -34.039307 -34.039307 -34.039307 -34.039307 -34.039307 -34.039307 -34.039307 -34.039307 -34.039307 -34.039307 -34.039307 -34.039307 -34.039307 -34.039307 -34.039307 -34.039307 -34.039307 -34.039307 -34.039307 -34.039307 -34.039307 -34.039307 -34.039307 -34.039307 -34.039307 -34.039307 -34.039307 -34.039307 -34.039307 -34.039307 -34.039307 -34.039307 -34.039307 -34.039307 -34.039307 -34.039307 -34.039307 -34.039307 -34.039307 -34.039307 -34.039307 -34.039307 -34.039307 -34.039307 -34.039307 -34.039307 -34.039307 -34.039307 -34.039307 -34.039307 -34.039307 -34.039307 -34.039307 -34.039307 -34.039307 -34.039307 -34.039307 -34.039307 -34.039307 -34.039307 -34.039307 -34.039307 -34.039307 -34.039307 -34.039307 -34.039307 -34.039307 -34.039307 -34.039307 -34.039307 -34.039307 -34.039307 -34.039307 -34.039307 -34.039307 -34.039307 -34.039307 -34.039307 -34.039307 -34.039307 -34.039307 -34.039307 -34.039307 -34.039307 -34.039307 -97.18323 -54.986572 -35.751343 -25.378418 -12.286377 -11.279297 -7.5531006 14.199829 30.111694 36.053467 26.486206 7.6538086 -8.761597 7.9559326 15.710449 26.78833 33.43506 48.94409 67.977905 76.84021 76.84021 76.84021 76.84021 76.84021 76.84021 76.84021 76.84021 76.84021 76.84021 76.84021 76.84021 76.84021 76.84021 76.84021 76.84021 76.84021 76.84021 76.84021 76.84021 76.84021 
-15.710449 -40.38391 -46.5271 -50.55542 -44.714355 -39.175415 -18.22815 3.6254883 20.74585 35.95276 34.44214 45.92285 87.61597 117.82837 127.597046 123.97156 112.69226 96.07544 74.523926 72.006226 93.45703 132.1289 142.70325 116.31775 100.50659 90.43579 33.636475 11.581421 -13.394165 5.2368164 13.897705 -27.191162 -46.728516 -52.871704 -92.14783 -112.59155 -97.98889 -71.7041 -75.83313 -113.90076 -140.68909 -147.2351 -127.39563 -110.27527 -127.194214 -134.94873 -121.35315 -90.03296 -67.67578 -53.67737 -38.269043 -37.564087 -48.138428 -71.30127 -81.170654 -51.260376 -5.1361084 59.61914 72.9126 86.30676 88.220215 87.41455 94.46411 102.72217 123.87085 119.036865 111.28235 100.10376 65.25879 25.177002 3.1219482 -27.896118 -66.76941 -81.674194 -80.76782 -84.695435 -103.930664 -129.6112 -137.36572 -134.24377 -114.20288 -81.57349 -34.039307 -9.970093 -7.8552246 -1.9134521 -2.3162842 -7.4523926 -23.162842 -26.184082 -28.198242 -8.459473 -8.056641 1.9134521 32.32727 43.606567 34.44214 22.76001 52.468872 42.700195 48.94409 52.06604 56.5979 48.239136 52.06604 45.217896 48.641968 51.260376 35.147095 8.358765 4.1290283 11.883545 27.79541 31.82373 21.047974 11.480713 5.2368164 2.5177002 -14.703369 -13.192749 -12.789917 -0.30212402 16.415405 30.111694 23.76709 15.307617 7.5531006 -3.4240723 -3.3233643 1.3092041 -5.8410645 -10.675049 -3.6254883 -2.8198242 -33.535767 -91.04004 -116.519165 -105.54199 -80.76782 -69.08569 -34.44214 -6.9488525 0.40283203 3.0212402 5.9417725 6.8481445 8.157349 16.616821 46.224976 53.17383 57.20215 46.42639 53.07312 64.55383 73.61755 83.78906 85.29968 93.55774 87.41455 54.986572 53.57666 57.302856 53.57666 65.25879 108.26111 141.89758 135.45227 107.25403 93.85986 71.40198 61.73401 53.274536 33.9386 3.4240723 -42.297363 -96.276855 -120.24536 -124.4751 -133.43811 -137.76855 -143.3075 -163.65051 -148.94714 -109.16748 -111.58447 -137.46643 -157.30591 -149.7528 -111.18164 -73.516846 -42.095947 -24.27063 -2.3162842 25.177002 50.354004 54.986572 57.806396 54.382324 43.807983 31.82373 19.23523 1.2084961 -24.472046 -36.154175 -33.233643 -33.33435 -51.461792 -75.83313 -64.956665 -51.965332 -45.721436 -36.95984 -27.29187 -7.7545166 3.5247803 11.077881 20.343018 31.219482 49.54834 73.81897 
3299.8992 3299.8992 3299.8992 3290.634 3273.9165 3273.715 3290.5334 -3292.6482 -3276.132 -3259.7168 -3243.5027 -3227.5908 -3211.679 -3195.9685 -3180.4595 -3165.0513 -3149.8442 -3134.738 -3119.7327 -3104.828 -3090.1245 -3075.2197 -3061.1206 -3046.3164 -2985.6902 -549.6643 2408.5327 3299.8992 3299.8992 3299.8992 3299.8992 3299.8992 3299.8992 3299.8992 3299.8992 3299.8992 3299.8992 3299.8992 3299.8992 3299.8992 3299.8992 3299.8992 3299.8992 3289.0227 3272.0032 3274.9236 3292.044 -3291.339 -3274.7222 -3258.4075 -3242.2942 -3226.2817 -3210.4705 -3194.76 -3179.1504 -3163.742 -3148.5352 -3133.429 -3118.3228 -3103.5186 -3088.8152 -3074.5146 -3059.7107 -3045.7122 -2934.2285 -425.0885 2490.9119 3299.8992 3299.8992 3299.8992 3299.8992 3299.8992 3299.8992 3299.8992 3299.8992 3299.8992 3299.8992 3299.8992 3299.8992 3299.8992 3299.8992 3299.8992 3299.8992 3288.6199 3263.8457 3277.4414 3294.3604 -3288.8213 -3272.2046 -3255.9905 -3239.7766 -3223.764 -3208.0535 -3192.343 -3176.834 -3161.4258 -3146.2188 -3131.012 -3116.1072 -3101.303 -3086.5996 -3072.299 -3057.898 -3043.2952 -2801.294 -130.31616 2752.8533 3299.8992 3299.8992 3299.8992 3299.8992 3299.8992 3299.8992 3299.8992 3299.8992 3299.8992 3299.8992 3299.8992 3299.8992 3299.8992 3299.8992 3299.8992 3299.8992 3288.217 3074.6155 3279.0527 3295.8708 -3287.4114 -3270.996 -3254.5806 -3238.568 -3222.6562 -3206.7444 -3191.1345 -3175.525 -3160.2173 -3145.0103 -3129.904 -3114.8987 -3100.0945 -3085.391 -3070.5872 -3055.9844 -3042.288 -2591.8213 377.05078 3299.8992 3299.8992 3299.8992 3299.8992 3299.8992 3299.8992 3299.8992 3299.8992 3299.8992 3299.8992 3299.8992 3299.8992 3299.8992 3299.8992 3299.8992 3299.8992 3299.8992 3284.491 2514.3767 3279.0527 3295.9717 -3287.4114 -3270.7947 -3254.48 -3238.4673 -3222.4548 -3206.6436 -3191.034 -3175.424 -3160.1165 -3144.9097 -3129.8035 -3114.8987 -3100.0945 -3085.391 -3071.0906 -3056.79 -3041.986 -2485.4736 492.9657 3299.8992 3299.8992 3299.8992 3299.8992 3299.8992 3299.8992 3299.8992 3299.8992 3299.8992 3299.8992 3299.8992 3299.8992 3299.8992 3299.8992 3299.8992 3299.8992 3299.0935 3283.383 1811.8378 3280.1604 3296.9788 -3286.5051 -3270.0896 -3253.775 -3237.561 -3221.6492 -3205.838 -3190.2283 -3174.7192 -3159.4116 -3144.104 -3129.0984 -3114.1936 -3099.3896 
3292.5476 3277.7434 3262.6372 3247.9338 3232.3242 3232.5256 3248.8403 3264.5508 3280.1604 3295.5688 -3289.1235 -3274.118 -3259.0117 -3244.2078 -3229.4036 -3214.801 -3200.1982 -3185.797 -3171.5972 -3157.3975 -3143.399 -3129.0984 -3115.503 -3101.8066 -2233.4014 468.49365 2916.101 3299.8992 3299.8992 3299.8992 3299.8992 3299.8992 3299.8992 3299.8992 3299.8992 3299.8992 3299.8992 3299.8992 3299.8992 3299.8992 3290.332 3275.7292 3260.4216 3245.819 3226.886 3232.727 3249.0417 3264.8528 3280.2612 3295.6694 -3289.0227 -3273.9165 -3258.9111 -3244.0063 -3229.303 -3214.7002 -3200.1982 -3185.6963 -3171.4966 -3157.2966 -3143.1975 -3129.0984 -3115.402 -3101.7058 -2230.6824 230.62134 2649.829 3299.8992 3299.8992 3299.8992 3299.8992 3299.8992 3299.8992 3299.8992 3299.8992 3299.8992 3299.8992 3299.8992 3299.8992 3299.8992 3292.4468 3277.8442 3262.6372 3247.7324 3111.4746 3237.4602 3253.775 3269.3848 3284.8938 3299.8992 -3284.491 -3269.284 -3254.3792 -3239.4744 -3224.771 -3210.1685 -3195.6665 -3181.4666 -3167.0654 -3152.9663 -3138.9678 -3124.9695 -3111.2732 -3097.476 -1475.8759 1192.6849 3299.8992 3299.8992 3299.8992 3299.8992 3299.8992 3299.8992 3299.8992 3299.8992 3299.8992 3299.8992 3299.8992 3299.8992 3299.8992 3299.8992 3286.7065 3272.0032 3256.897 3241.9922 2605.5176 3235.5469 3251.2573 3266.9678 3282.5774 3297.885 -3286.8071 -3271.701 -3256.7961 -3241.8914 -3227.188 -3212.5854 -3198.184 -3183.783 -3169.583 -3155.2825 -3141.1833 -3127.6885 -3113.5894 -3099.893 -1741.8457 803.6499 3201.6082 3299.8992 3299.8992 3299.8992 3299.8992 3299.8992 3299.8992 3299.8992 3299.8992 3299.8992 3299.8992 3299.8992 3299.8992 3299.8992 3287.8142 3272.708 3258.1055 3243.2007 2126.3489 3238.87 3254.782 3270.291 3285.8 3299.8992 -3283.5845 -3268.4783 -3253.473 -3238.6687 -3223.9653 -3209.3628 -3194.9614 -3180.5603 -3166.3604 -3152.2612 -3138.263 -3124.5667 -3110.3667 -3096.7712 -1177.9816 1579.9072 3299.8992 3299.8992 3299.8992 3299.8992 3299.8992 3299.8992 3299.8992 3299.8992 3299.8992 3299.8992 3299.8992 3299.8992 3299.8992 3298.59 3283.6853 3268.579 3253.8757 3239.0715 1377.0813 3237.4602 3253.07 3268.7805 3284.2896 3299.6978 -3285.0952 -3269.8882 -3255.0842 -3240.28 -3225.5767 -3210.974 -3196.4722 -3182.1716 -3167.7703 -3153.6711 
-3272.9094 -3258.4075 -3244.2078 -3230.1086 -3185.5957 3093.3472 3299.8992 3299.8992 3299.8992 3299.8992 3299.8992 3295.2666 3280.4626 3265.5579 3250.7537 3235.8489 3221.045 3206.1401 3191.4368 3176.9348 3162.4329 3147.931 3133.2275 2919.5251 1212.9272 -604.04663 -1987.3718 -3122.2502 3145.816 3161.6272 3177.2368 3192.7458 3208.0535 3223.2605 3238.7695 3253.6743 3268.579 3283.5845 3298.2878 -3286.908 -3272.1038 -3257.7026 -3243.0999 -3228.598 -3010.4644 3299.8992 3299.8992 3299.8992 3299.8992 3299.8992 3299.8992 3293.756 3278.952 3264.148 3249.2432 3234.3384 3219.5342 3204.6294 3190.0269 3175.424 3160.7207 3146.3196 3132.019 2626.8677 829.22974 -882.605 -2279.5256 3194.1558 3151.355 3167.0654 3182.5745 3198.0835 3213.4917 3228.6987 3243.704 3258.9111 3273.9165 3288.8213 3299.8992 -3281.7717 -3267.1692 -3252.5664 -3238.3667 -3224.1667 -2592.1233 3299.8992 3299.8992 3299.8992 3299.8992 3299.8992 3299.8992 3295.3674 3280.5632 3265.7593 3250.7537 3235.8489 3221.045 3206.2407 3191.4368 3176.834 3162.332 3147.83 3131.7168 2577.3193 676.9592 -1068.8141 -2343.576 3138.7664 3154.779 3170.3887 3185.9985 3201.5076 3216.7144 3232.1228 3246.9268 3262.033 3277.24 3292.044 3299.8992 -3278.4485 -3263.9465 -3249.3438 -3235.2446 -3220.8435 -2286.2732 3299.8992 3299.8992 3299.8992 3299.8992 3299.8992 3299.8992 3296.576 3281.7717 3266.867 3252.063 3237.1582 3222.1526 3207.2478 3192.6453 3177.942 3163.5405 3149.0386 3134.5366 2635.9314 789.8529 -1062.3688 -2469.3604 3140.277 3156.3904 3172 3187.6099 3203.018 3218.4265 3233.6333 3248.7395 3263.745 3278.7505 3293.4539 -3291.641 -3277.0386 -3262.3352 -3247.8333 -3233.5327 -3219.5342 -1733.1848 3299.8992 3299.8992 3299.8992 3299.8992 3299.8992 3299.8992 3295.3674 3280.4626 3265.6584 3250.7537 3235.8489 3220.944 3206.1401 3191.4368 3176.7334 3162.2314 3147.83 3131.6162 2536.432 653.09143 -1038.8031 -2388.2903 3139.4714 3154.9805 3170.7915 3186.3005 3201.709 3216.9158 3232.2234 3247.4304 3262.4358 3277.3406 3292.3462 -3292.8496 -3278.247 -3263.6443 -3249.2432 -3234.6404 -3220.2393 -1266.0004 3299.8992 3299.8992 3299.8992 3299.8992 3299.8992 3299.8992 3292.2454 3277.4414 3262.4358 3247.531 3232.6262 3217.7214 3202.9175 3188.3147 3173.6113 
3299.8992 3299.8992 3299.8992 3299.8992 3299.8992 -661.4502 -3206.543 -3190.8325 -3175.3235 -3160.0159 -3144.9097 -3129.904 -3114.9993 -3100.296 -3085.794 -3071.1914 -3056.8909 -3042.5903 -3028.4912 -3014.4927 -3000.4944 -2986.798 -2972.9004 -2959.3047 -2945.9106 -1979.1138 -456.10657 1089.5599 2459.6924 3299.8992 3299.8992 3299.8992 3299.8992 3299.8992 3299.8992 3299.8992 3299.8992 3299.8992 3299.8992 3299.8992 3299.8992 3299.8992 3299.8992 3299.8992 3299.8992 -1074.6552 -3197.3784 -3181.668 -3166.2598 -3150.9521 -3135.9465 -3121.0417 -3106.2378 -3091.5344 -3077.0325 -3062.5305 -3048.1292 -3034.03 -3019.8303 -3005.9326 -2992.1355 -2978.2378 -2964.5415 -2950.946 -2788.6047 -1341.1285 144.01245 1517.7704 2839.563 3299.8992 3299.8992 3299.8992 3299.8992 3299.8992 3299.8992 3299.8992 3299.8992 3299.8992 3299.8992 3299.8992 3299.8992 3299.8992 3299.8992 3299.8992 3299.8992 -1533.5815 -3197.177 -3181.4666 -3166.2598 -3150.8513 -3135.745 -3120.7397 -3106.137 -3091.4336 -3076.831 -3062.4297 -3048.1292 -3034.03 -3019.8303 -3005.8318 -2991.934 -2978.1372 -2964.8438 -2950.946 -2849.9358 -1494.4061 58.007812 1464.798 2711.1602 3299.8992 3299.8992 3299.8992 3299.8992 3299.8992 3299.8992 3299.8992 3299.8992 3299.8992 3299.8992 3299.8992 3299.8992 3299.8992 3299.8992 3299.8992 3299.8992 -2266.0308 -3192.2424 -3176.7334 -3161.325 -3146.0173 -3131.012 -3116.1072 -3101.303 -3086.7004 -3072.1985 -3057.797 -3043.4966 -3029.2969 -3015.1978 -3001.1992 -2987.3015 -2973.706 -2960.0098 -2946.6155 -2666.8486 -1171.8384 309.77783 1830.9723 3153.9734 3299.8992 3299.8992 3299.8992 3299.8992 3299.8992 3299.8992 3299.8992 3299.8992 3299.8992 3299.8992 3299.8992 3299.8992 3299.8992 3299.8992 3299.8992 3299.8992 -2822.0398 -3192.1416 -3176.532 -3161.1235 -3146.0173 -3130.8105 -3115.9058 -3101.303 -3086.5996 -3071.997 -3057.5957 -3043.396 -3029.0955 -3015.097 -3001.1992 -2987.3015 -2973.6052 -2959.909 -2946.414 -2507.73 -1082.9132 433.34656 1898.7488 3109.8633 3299.8992 3299.8992 3299.8992 3299.8992 3299.8992 3299.8992 3299.8992 3299.8992 3299.8992 3299.8992 3299.8992 3299.8992 3299.8992 3299.8992 3299.8992 3031.7139 -3206.543 -3190.7317 -3175.2227 -3159.8145 -3144.5068 -3129.602 -3114.5964 -3099.893 -3085.1897 -3070.7886 -3056.3872 -3042.0867 -3027.9875 -3013.8884 -2999.8901 
3273.715 3289.4255 3299.8992 -3279.5562 -3124.8687 1774.5758 3299.8992 3299.8992 3290.7349 3274.9236 3259.9182 3244.9126 3229.605 3214.3982 3198.9897 3183.5815 3168.173 3152.664 3137.5579 3122.351 3107.4463 3092.4407 3074.414 2569.5647 1174.2554 -161.43494 -1145.1508 -2318.2983 -2719.821 3196.9756 3112.0789 3128.7964 3145.2117 3161.7278 3177.942 3194.0552 3210.1685 3226.181 3241.9922 3257.8032 3273.6145 3289.224 3299.8992 -3279.7576 -2899.0813 2319.3054 3299.8992 3299.8992 3287.8142 3272.0032 3256.9976 3241.8914 3226.6846 3211.2761 3196.0693 3180.5603 3165.1519 3149.8442 3134.6375 3119.5312 3104.6265 3089.6208 3071.5942 2519.11 1114.4348 -221.45691 -1261.0657 -2419.107 -2851.8494 3096.2676 3111.7766 3128.3936 3144.9097 3161.325 3177.6396 3193.753 3209.7656 3225.778 3241.69 3257.5012 3273.2117 3288.8213 3299.8992 -3280.0598 -2584.0667 2773.7 3299.8992 3299.8992 3284.6924 3268.7805 3253.8757 3238.7695 3223.5625 3208.255 3192.9473 3177.4382 3162.03 3146.7224 3131.5154 3116.4092 3101.6052 3086.5996 3063.8396 2187.9822 701.12915 -559.8358 -1496.3196 -2634.5215 -3020.7366 3100.4973 3117.1143 3133.6304 3150.247 3166.6626 3182.8765 3198.9897 3215.0024 3231.1157 3246.8262 3262.6372 3278.4485 3293.8567 -3290.4326 -3275.0244 -2133.0962 3299.8992 3299.8992 3299.8992 3286.6057 3270.6938 3255.6885 3240.6829 3225.476 3210.1685 3194.6594 3179.1504 3163.8428 3148.4343 3133.2275 3118.1213 3103.418 3088.4124 3068.4722 2332.498 895.89844 -325.7904 -1296.6156 -2459.793 -2827.3772 3099.4902 3113.086 3129.8035 3146.4202 3162.7349 3178.949 3195.1628 3211.1755 3227.188 3242.9993 3258.9111 3274.7222 3290.332 3299.8992 -3278.952 -1858.5663 3299.8992 3299.8992 3296.3745 3281.067 3265.155 3250.1494 3235.0432 3219.937 3204.6294 3189.2212 3173.8127 3158.5051 3143.1975 3127.9907 3112.985 3098.0803 3083.1755 3005.8318 2064.7156 601.93176 -590.7532 -1599.4446 -2723.7488 -3033.8286 3099.591 3116.51 3133.0261 3149.5422 3166.0583 3182.0708 3198.3855 3214.3982 3230.4106 3246.121 3261.9324 3277.542 3293.2524 -3291.5405 -3276.0315 -1390.7776 3299.8992 3299.8992 3296.3745 3281.2683 3265.155 3250.2502 3235.2446 3220.0378 3204.7302 3189.3218 3173.9136 3158.606 3143.2983 3128.0913 3113.086 
3299.8992 3299.8992 3299.8992 3299.8992 2861.4165 136.35864 -1823.2178 -3141.5862 -3126.3794 -3111.676 -3096.9727 -3082.3699 -3067.9688 -3053.7688 -3039.569 -3025.5706 -3011.5723 -2997.7751 -2984.1797 -2970.584 -2954.672 -2668.6614 -2418.6035 -2121.414 -1530.1575 -927.2186 -496.28906 -204.43726 135.7544 496.5912 1446.0663 3049.539 3299.8992 3299.8992 3299.8992 3299.8992 3299.8992 3299.8992 3299.8992 3299.8992 3299.8992 3299.8992 3299.8992 3299.8992 2901.3977 272.11304 -1709.1156 -3127.2856 -3112.1794 -3097.3755 -3082.7727 -3068.2708 -3053.9702 -3039.7705 -3025.6714 -3011.7737 -2997.876 -2984.2803 -2970.584 -2951.0466 -2540.863 -2243.3716 -2013.4552 -1602.4658 -1069.9219 -504.94995 -146.12732 159.82361 451.27258 807.074 1748.291 3175.0212 3299.8992 3299.8992 3299.8992 3299.8992 3299.8992 3299.8992 3299.8992 3299.8992 3299.8992 3299.8992 3299.8992 3299.8992 2513.4705 -318.338 -2220.3093 -3126.48 -3111.4746 -3096.5698 -3082.0679 -3067.6665 -3053.1646 -3039.1663 -3024.9663 -3011.0686 -2997.2717 -2983.4746 -2969.7783 -2886.5935 -2572.4854 -1994.3207 -1496.8231 -1182.6141 -828.5248 -552.0813 -269.1925 -88.220215 221.2555 508.1726 1579.2023 3165.1519 3299.8992 3299.8992 3299.8992 3299.8992 3299.8992 3299.8992 3299.8992 3299.8992 3299.8992 3299.8992 3299.8992 3299.8992 2487.6892 -143.4082 -1899.8566 -3129.602 -3114.4958 -3099.6917 -3084.9883 -3070.7886 -3056.1858 -3041.986 -3027.9875 -3013.9893 -3000.1921 -2986.3953 -2972.7996 -2957.492 -2576.715 -1963.9069 -1384.3323 -902.8473 -349.5575 176.64185 407.16248 542.61475 681.8939 947.56165 2140.0452 3299.8992 3299.8992 3299.8992 3299.8992 3299.8992 3299.8992 3299.8992 3299.8992 3299.8992 3299.8992 3299.8992 3299.8992 3299.8992 2142.865 -489.64233 -2312.6587 -3146.4202 -3131.4148 -3116.51 -3101.8066 -3087.3047 -3072.9033 -3058.6028 -3044.403 -3030.5054 -3016.5068 -3002.71 -2989.0137 -2971.1882 -2656.2744 -2174.9907 -1755.3406 -1323.9075 -999.527 -618.9514 -255.49622 17.019653 316.22314 719.96155 1924.7314 3299.8992 3299.8992 3299.8992 3299.8992 3299.8992 3299.8992 3299.8992 3299.8992 3299.8992 3299.8992 3299.8992 3299.8992 3299.8992 1673.8678 -852.8961 -2523.944 -3136.9536 -3122.1497 -3107.3455 -3092.642 -3078.1401 -3063.739 -3049.539 -3035.3394 -3021.5422 -3007.544 -2993.9482 -2980.252 -2726.5686 

76.84021 76.84021 76.84021 76.84021 76.84021 76.84021 76.84021 76.84021 76.84021 76.84021 76.84021 76.84021 76.84021 76.84021 76.84021 76.84021 76.84021 76.84021 76.84021 76.84021 76.84021 76.84021 76.84021 76.84021 76.84021 76.84021 76.84021 76.84021 76.84021 76.84021 76.84021 76.84021 76.84021 76.84021 76.84021 76.84021 76.84021 76.84021 76.84021 76.84021 76.84021 76.84021 76.84021 76.84021 76.84021 76.84021 76.84021 76.84021 76.84021 76.84021 76.84021 76.84021 76.84021 76.84021 76.84021 76.84021 76.84021 76.84021 76.84021 76.84021 -13.595581 -7.0495605 20.040894 20.343018 23.464966 51.361084 62.539673 60.827637 38.47046 33.032227 25.78125 10.372925 -23.464966 -2.9205322 8.459473 10.171509 5.6396484 17.926025 25.680542 35.147095 41.290283 25.982666 -27.090454 -30.212402 -5.8410645 9.869385 6.0424805 5.8410645 23.162842 53.274536 98.89526 95.87402 87.213135 55.993652 25.27771 34.94568 60.22339 36.4563 16.71753 23.26355 23.26355 23.26355 23.26355 23.26355 23.26355 23.26355 23.26355 23.26355 23.26355 23.26355 23.26355 23.26355 23.26355 23.26355 23.26355 23.26355 23.26355 23.26355 23.26355 23.26355 44.613647 21.24939 38.269043 72.20764 106.64978 73.71826 35.85205 41.088867 80.86853 103.125 71.30127 -8.660889 -95.16907 -131.82678 -137.1643 -109.973145 -100.808716 -77.34375 -57.10144 -52.267456 -52.267456 -52.267456 -52.267456 -52.267456 -52.267456 -52.267456 -52.267456 -52.267456 -52.267456 -52.267456 -52.267456 -52.267456 -52.267456 -52.267456 -52.267456 -52.267456 -52.267456 -52.267456 -52.267456 -52.267456 -52.267456 -52.267456 -52.267456 -52.267456 -52.267456 -52.267456 -52.267456 -52.267456 -52.267456 -52.267456 -52.267456 -52.267456 -52.267456 -52.267456 -52.267456 -52.267456 -52.267456 -52.267456 -52.267456 -52.267456 -52.267456 -52.267456 -52.267456 -52.267456 -52.267456 -52.267456 -52.267456 -52.267456 -52.267456 -52.267456 -52.267456 -52.267456 -52.267456 -52.267456 -52.267456 -52.267456 -52.267456 -52.267456 -52.267456 -52.267456 
71.40198 94.3634 48.742676 49.749756 57.10144 52.770996 49.95117 25.982666 -0.10070801 -3.7261963 -11.480713 -25.579834 -23.162842 -0.20141602 47.03064 92.14783 102.52075 119.94324 150.25635 179.7638 165.16113 118.63403 115.008545 85.5011 64.956665 44.714355 10.675049 -46.92993 -114.4043 -165.36255 -166.0675 -131.12183 -109.87244 -121.35315 -126.9928 -138.07068 -122.15881 -104.53491 -99.3988 -72.20764 -56.295776 -46.42639 -26.486206 -21.954346 -14.401245 -20.645142 -13.696289 -9.869385 -4.1290283 -2.3162842 1.1077881 -7.3516846 2.1148682 10.372925 27.896118 24.069214 29.003906 6.6467285 2.9205322 -1.0070801 28.29895 40.182495 34.744263 9.869385 1.1077881 -1.1077881 4.9346924 1.9134521 -8.358765 -47.836304 -65.76233 -41.39099 -29.910278 3.5247803 36.657715 47.53418 51.663208 49.346924 43.304443 56.295776 63.848877 42.39807 20.645142 37.36267 86.206055 101.312256 126.086426 138.67493 169.89441 201.11389 208.46558 192.05017 181.57654 151.26343 133.63953 138.87634 143.3075 141.89758 118.83545 91.8457 62.64038 -44.714355 -126.89209 -154.58679 -122.86377 -78.45154 -81.47278 -106.04553 -166.77246 -250.56152 -295.6787 -281.8817 -256.90613 -221.96045 -191.2445 -160.02502 -113.39722 -90.234375 -87.31384 -70.89844 -53.979492 -43.807983 -44.210815 -34.744263 -7.9559326 1.2084961 3.9276123 0.30212402 5.0354004 6.9488525 20.74585 -4.3304443 -25.378418 -13.796997 2.7191162 32.025146 56.09436 74.32251 55.08728 25.680542 1.1077881 -1.2084961 -3.7261963 -26.78833 -54.885864 -47.634888 -53.07312 -60.62622 -43.103027 -23.565674 -11.581421 11.380005 35.751343 23.565674 18.026733 25.177002 25.680542 5.8410645 21.551514 24.169922 6.1431885 5.5389404 13.796997 17.926025 11.279297 13.092041 12.789917 17.422485 13.192749 18.328857 25.27771 10.574341 10.574341 5.0354004 13.494873 4.5318604 7.7545166 28.701782 42.800903 54.885864 75.73242 89.12659 89.227295 95.87402 110.17456 138.17139 132.33032 90.234375 83.99048 86.91101 102.822876 112.18872 114.20288 88.62305 59.014893 55.18799 77.44446 93.35632 123.36731 130.01404 
-3084.7869 -3069.7815 -3055.8838 -3041.0796 -2089.6912 992.67883 3299.8992 3299.8992 3299.8992 3299.8992 3299.8992 3299.8992 3299.8992 3299.8992 3299.8992 3299.8992 3299.8992 3299.8992 3299.8992 3299.8992 3299.8992 3299.8992 3295.9717 3279.5562 898.3154 3279.4556 3296.475 -3286.908 -3270.4924 -3254.1777 -3238.0645 -3222.1526 -3206.2407 -3190.7317 -3175.122 -3159.8145 -3144.6074 -3129.5012 -3114.4958 -3099.7925 -3085.1897 -3070.8892 -3055.9844 -3042.0867 -1880.2185 1362.5793 3299.8992 3299.8992 3299.8992 3299.8992 3299.8992 3299.8992 3299.8992 3299.8992 3299.8992 3299.8992 3299.8992 3299.8992 3299.8992 3299.8992 3299.8992 3299.8992 3291.641 3275.83 -237.16736 3278.4485 3295.166 -3288.1165 -3271.8018 -3255.487 -3239.4744 -3223.361 -3207.55 -3191.9402 -3176.4312 -3161.2244 -3145.816 -3130.7097 -3115.9058 -3101.001 -3086.3982 -3071.3928 -3057.495 -3042.691 -1766.5192 1389.4684 3299.8992 3299.8992 3299.8992 3299.8992 3299.8992 3299.8992 3299.8992 3299.8992 3299.8992 3299.8992 3299.8992 3299.8992 3299.8992 3299.8992 3299.8992 3299.8992 3290.0298 3274.118 -1328.7415 3279.4556 3296.173 -3287.21 -3270.7947 -3254.5806 -3238.4673 -3222.4548 -3206.7444 -3191.034 -3175.525 -3160.2173 -3145.111 -3130.005 -3114.9993 -3100.296 -3085.5925 -3070.6877 -3056.1858 -3042.288 -1666.4154 1468.0206 3299.8992 3299.8992 3299.8992 3299.8992 3299.8992 3299.8992 3299.8992 3299.8992 3299.8992 3299.8992 3299.8992 3299.8992 3299.8992 3299.8992 3299.8992 3299.8992 3290.332 3273.6145 -2502.7954 3281.7717 3298.7915 -3284.5916 -3268.0754 -3251.9622 -3235.8489 -3219.8364 -3204.126 -3188.516 -3172.9065 -3157.6995 -3142.4927 -3127.3865 -3112.4817 -3097.7783 -3083.075 -3068.875 -3054.071 -3040.1733 -1420.0836 1699.7498 3299.8992 3299.8992 3299.8992 3299.8992 3299.8992 3299.8992 3299.8992 3299.8992 3299.8992 3299.8992 3299.8992 3299.8992 3299.8992 3299.8992 3299.8992 3299.8992 3289.5264 3273.413 3267.2698 3284.491 3299.8992 -3282.4768 -3266.0613 -3249.8474 -3233.8347 -3218.0237 -3202.1118 -3186.502 -3170.993 -3155.6853 -3140.579 -3125.5737 -3110.669 -3095.9656 
-3139.6729 -3126.0771 -3111.978 -3098.2817 -1131.8573 1527.1362 3299.8992 3299.8992 3299.8992 3299.8992 3299.8992 3299.8992 3299.8992 3299.8992 3299.8992 3299.8992 3299.8992 3299.8992 3299.8992 3297.2808 3282.5774 3267.874 3252.8687 3237.9639 848.36426 3237.9639 3253.5735 3269.3848 3284.8938 3299.8992 -3284.5916 -3269.5862 -3254.6814 -3239.7766 -3225.0732 -3210.4705 -3195.9685 -3181.668 -3167.3674 -3153.2683 -3139.27 -3125.5737 -3111.5752 -3097.7783 -1144.8486 1608.2062 3299.8992 3299.8992 3299.8992 3299.8992 3299.8992 3299.8992 3299.8992 3299.8992 3299.8992 3299.8992 3299.8992 3299.8992 3299.8992 3296.9788 3282.074 3266.867 3252.2644 3237.2588 -528.3142 3240.7837 3256.9976 3272.6074 3288.1165 3299.8992 -3281.4697 -3266.3635 -3251.4587 -3236.554 -3221.8506 -3207.4492 -3192.9473 -3178.5461 -3164.3462 -3150.247 -3136.3494 -3122.2502 -3108.6548 -3058.4014 -707.9773 1873.6725 3299.8992 3299.8992 3299.8992 3299.8992 3299.8992 3299.8992 3299.8992 3299.8992 3299.8992 3299.8992 3299.8992 3299.8992 3299.8992 3296.2737 3281.369 3266.7664 3251.4587 3236.554 -1250.9949 3241.9922 3258.0046 3273.816 3289.224 3299.8992 -3280.2612 -3265.3564 -3250.4517 -3235.6475 -3220.944 -3206.3416 -3191.9402 -3177.539 -3163.339 -3149.24 -3135.2417 -3121.2432 -3107.5469 -3091.9373 -912.1124 1581.015 3299.8992 3299.8992 3299.8992 3299.8992 3299.8992 3299.8992 3299.8992 3299.8992 3299.8992 3299.8992 3299.8992 3299.8992 3299.8992 3299.3958 3284.3901 3269.7876 3254.6814 3239.4744 -2281.7412 3247.4304 3263.5437 3279.1533 3294.5618 -3290.1306 -3274.9236 -3259.9182 -3245.2148 -3230.31 -3215.6067 -3201.1047 -3186.8042 -3172.4028 -3158.3037 -3144.2046 -3130.2063 -3116.2078 -3102.9143 -2728.2805 67.07153 2649.124 3299.8992 3299.8992 3299.8992 3299.8992 3299.8992 3299.8992 3299.8992 3299.8992 3299.8992 3299.8992 3299.8992 3299.8992 3299.8992 3294.159 3279.1533 3264.5508 3249.3438 3234.2375 3230.1086 3245.0134 3261.1267 3276.7363 3292.1448 3299.8992 -3277.4414 -3262.4358 -3247.4304 -3232.6262 -3218.0237 -3203.5217 -3189.1204 -3174.8198 -3160.62 -3146.4202 
3159.1094 3144.7083 3127.487 2293.6248 351.47095 -1304.9744 -2600.6836 3141.3848 3156.7932 3172.5037 3188.1133 3203.5217 3218.7285 3234.0361 3249.1423 3264.148 3279.1533 3294.159 -3291.2383 -3276.535 -3261.9324 -3247.4304 -3233.029 -3218.93 -863.57117 3299.8992 3299.8992 3299.8992 3299.8992 3299.8992 3299.8992 3292.4468 3277.542 3262.6372 3247.7324 3232.8276 3217.9229 3203.119 3188.516 3173.8127 3159.3108 3145.0103 3126.7822 2166.3298 180.46875 -1528.8483 -2869.9768 3145.3125 3161.2244 3176.9348 3192.343 3207.7515 3223.059 3238.1653 3253.372 3268.3777 3283.2825 3298.0864 -3287.21 -3272.5066 -3258.0046 -3243.5027 -3229.303 -3215.0024 116.82129 3299.8992 3299.8992 3299.8992 3299.8992 3299.8992 3299.8992 3291.742 3276.8372 3261.9324 3247.0276 3232.022 3217.1172 3202.4138 3187.8113 3173.007 3158.606 3144.2046 3123.6602 1867.9321 -131.12183 -1690.7867 -2926.8767 3148.938 3164.3462 3180.0566 3195.465 3210.8733 3226.181 3241.287 3256.5947 3271.701 3286.4043 3299.8992 -3284.0881 -3269.4854 -3254.9834 -3240.5823 -3226.0803 -3212.0818 333.84705 3299.8992 3299.8992 3299.8992 3299.8992 3299.8992 3299.8992 3294.159 3279.3547 3264.45 3249.5452 3234.6404 3219.8364 3204.9316 3190.3289 3175.6255 3161.2244 3146.7224 3127.7893 1992.1051 -4.7332764 -1513.44 -2814.688 3148.4343 3164.3462 3179.956 3195.5657 3210.8733 3226.181 3241.388 3256.4941 3271.4995 3286.4043 3299.8992 -3283.9873 -3269.4854 -3254.8828 -3240.4814 -3226.3823 -3212.0818 998.11707 3299.8992 3299.8992 3299.8992 3299.8992 3299.8992 3299.8992 3291.1377 3276.233 3261.3281 3246.4233 3231.6191 3216.6138 3201.9104 3187.1062 3172.6042 3158.2031 3143.7012 3093.3472 1674.3713 -213.60168 -1737.1124 -2988.4094 3150.348 3165.857 3181.4666 3196.9756 3212.2832 3227.5908 3242.7979 3257.8032 3272.8088 3287.8142 3299.8992 -3282.6782 -3268.0754 -3253.6743 -3239.1724 -3224.6704 -3210.5713 1923.1201 3299.8992 3299.8992 3299.8992 3299.8992 3299.8992 3299.8992 3289.9292 3275.0244 3260.1196 3245.114 3230.31 3215.4053 3200.601 3185.8977 3171.3958 
-2986.1938 -2972.3967 -2959.0027 -2945.2056 -2548.8188 -1101.947 456.5094 1811.1328 3088.211 3299.8992 3299.8992 3299.8992 3299.8992 3299.8992 3299.8992 3299.8992 3299.8992 3299.8992 3299.8992 3299.8992 3299.8992 3299.8992 3299.8992 3299.8992 2771.0815 -3202.9175 -3187.0056 -3171.4966 -3156.0881 -3140.8813 -3125.9766 -3111.0718 -3096.2676 -3081.665 -3067.2637 -3052.8625 -3038.562 -3024.463 -3010.3638 -2996.5667 -2982.669 -2968.872 -2955.78 -2941.983 -2389.9016 -921.07544 599.6155 2065.6218 3227.3894 3299.8992 3299.8992 3299.8992 3299.8992 3299.8992 3299.8992 3299.8992 3299.8992 3299.8992 3299.8992 3299.8992 3299.8992 3299.8992 3299.8992 3299.8992 2266.1316 -3200.1982 -3184.3872 -3168.8782 -3153.5706 -3138.263 -3123.3582 -3108.4534 -3093.8506 -3079.248 -3064.746 -3050.5461 -3036.2456 -3022.046 -3008.0474 -2994.1497 -2980.4534 -2966.6565 -2953.0608 -2939.6667 -2130.78 -534.5581 1017.85583 2432.4004 3299.8992 3299.8992 3299.8992 3299.8992 3299.8992 3299.8992 3299.8992 3299.8992 3299.8992 3299.8992 3299.8992 3299.8992 3299.8992 3299.8992 3299.8992 3299.8992 1803.8818 -3202.5146 -3186.7034 -3171.2952 -3155.7861 -3140.68 -3125.6743 -3110.7695 -3096.167 -3081.5642 -3067.0623 -3052.7617 -3038.4612 -3024.362 -3010.3638 -2996.466 -2982.669 -2968.9727 -2955.1758 -2941.7815 -2175.1921 -455.70374 991.9739 2549.2217 3299.8992 3299.8992 3299.8992 3299.8992 3299.8992 3299.8992 3299.8992 3299.8992 3299.8992 3299.8992 3299.8992 3299.8992 3299.8992 3299.8992 3299.8992 3299.8992 1154.5166 -3202.011 -3186.3005 -3170.7915 -3155.484 -3140.3777 -3125.473 -3110.568 -3095.8647 -3081.1614 -3066.7603 -3052.4597 -3038.2598 -3024.06 -3010.0615 -2996.0632 -2982.266 -2968.6707 -2955.2764 -2941.58 -2009.3262 -339.4867 1342.337 2771.1821 3299.8992 3299.8992 3299.8992 3299.8992 3299.8992 3299.8992 3299.8992 3299.8992 3299.8992 3299.8992 3299.8992 3299.8992 3299.8992 3299.8992 3299.8992 3299.8992 883.41064 -3204.428 -3188.617 -3173.108 -3157.901 -3142.694 -3127.6885 -3112.7837 -3098.0803 -3083.5784 -3068.9758 -3054.6753 -3040.4753 -3026.2756 -3012.277 -2998.3794 
3098.2817 3083.377 3020.4346 1943.161 410.18372 -807.77893 -1831.3751 -2898.7793 -3181.8694 3105.0293 3121.7468 3138.263 3154.779 3171.1943 3187.4084 3203.5217 3219.3328 3235.446 3251.056 3267.0684 3282.6782 3298.2878 -3286.203 -3270.996 -1025.5096 3299.8992 3299.8992 3299.0935 3283.8867 3267.874 3252.9692 3237.863 3222.6562 3207.3486 3191.8396 3176.4312 3161.023 3145.7153 3130.5083 3115.503 3100.6987 3085.6934 2982.266 1915.8691 402.93274 -773.3368 -1699.4476 -2863.33 -3223.5625 3107.4463 3124.063 3140.68 3156.9946 3173.5107 3189.624 3205.7373 3221.7498 3237.6616 3253.473 3269.284 3284.8938 3299.8992 -3284.3901 -3268.881 -393.06335 3299.8992 3299.8992 3298.2878 3282.8796 3266.867 3251.9622 3236.856 3221.5483 3206.3416 3190.8325 3175.3235 3160.0159 3144.6074 3129.5012 3114.5964 3099.6917 3084.8877 2922.4456 1817.0746 414.41345 -731.44226 -1694.3115 -2878.4363 -3201.9104 3106.7412 3123.4587 3140.0757 3156.491 3172.8057 3189.0198 3205.0322 3221.045 3236.9568 3252.8687 3268.6797 3284.3901 3299.7986 -3284.3901 -3269.284 -150.05493 3299.8992 3299.8992 3296.173 3280.966 3265.0542 3250.0488 3234.9426 3219.7356 3204.428 3189.0198 3173.5107 3158.0017 3142.8955 3127.6885 3112.5823 3097.879 3081.1614 2824.1545 1567.7216 44.0094 -1065.5914 -2014.563 -3170.1873 3154.074 3113.7908 3130.5083 3146.9238 3163.44 3179.6538 3195.767 3211.8804 3227.893 3243.704 3259.5154 3275.2258 3290.9363 3299.8992 -3277.8442 -3262.8386 611.2976 3299.8992 3299.8992 3298.59 3283.1816 3267.3706 3252.4658 3237.1582 3221.9512 3206.543 3191.034 3175.525 3160.2173 3144.9097 3129.7026 3114.5964 3099.7925 3082.5713 2799.9846 1589.2731 156.29883 -977.3712 -1919.9982 -3094.3542 3205.6365 3113.9922 3130.7097 3147.2258 3163.6414 3179.956 3196.17 3212.1826 3228.195 3244.107 3259.9182 3275.6287 3291.339 3299.8992 -3277.6428 -3262.5366 907.8827 3299.8992 3299.8992 3297.3816 3282.074 3266.162 3251.2573 3235.9497 3220.7427 3205.3345 3189.926 3174.5178 3159.1094 3143.8018 3128.595 3113.5894 
-2309.6375 -1960.2814 -1770.6482 -1260.3607 -622.07336 -151.66626 222.96753 414.51416 564.6698 929.6356 2232.1929 3299.8992 3299.8992 3299.8992 3299.8992 3299.8992 3299.8992 3299.8992 3299.8992 3299.8992 3299.8992 3299.8992 3299.8992 3299.8992 1612.6373 -806.4697 -2698.9746 -3142.8955 -3127.89 -3113.086 -3098.4832 -3083.7798 -3069.4792 -3055.2795 -3041.0796 -3027.0813 -3013.1836 -2999.286 -2985.5896 -2784.4756 -2336.4258 -1920.8038 -1486.853 -1115.4419 -746.44775 -408.7738 38.067627 379.6692 529.2206 969.516 2226.654 3299.8992 3299.8992 3299.8992 3299.8992 3299.8992 3299.8992 3299.8992 3299.8992 3299.8992 3299.8992 3299.8992 3299.8992 3299.8992 1251.5991 -1217.157 -2942.0837 -3142.2913 -3127.3865 -3112.4817 -3097.879 -3083.4778 -3069.0764 -3054.776 -3040.6768 -3026.5776 -3012.68 -2998.9836 -2985.2874 -2872.3938 -2446.4995 -2067.0317 -1730.7678 -1334.079 -870.1172 -415.52124 -173.01636 77.645874 327.80457 873.33984 2352.6396 3299.8992 3299.8992 3299.8992 3299.8992 3299.8992 3299.8992 3299.8992 3299.8992 3299.8992 3299.8992 3299.8992 3299.8992 3299.8992 1342.4377 -1034.0698 -2711.6638 -3137.4573 -3122.5525 -3107.6477 -3093.045 -3078.4424 -3064.4438 -3050.0427 -3035.9436 -3021.8445 -3008.1482 -2994.351 -2980.4534 -2895.9595 -2667.453 -2250.9246 -1860.6812 -1220.9839 -625.0946 -153.3783 -81.170654 239.38293 554.4983 1090.6677 2544.589 3299.8992 3299.8992 3299.8992 3299.8992 3299.8992 3299.8992 3299.8992 3299.8992 3299.8992 3299.8992 3299.8992 3299.8992 3299.8992 989.6576 -1309.3048 -3030.1025 -3132.9253 -3118.1213 -3103.418 -3088.7146 -3074.2126 -3059.912 -3045.7122 -3031.7139 -3017.6147 -3003.8176 -2990.1213 -2976.425 -2811.4653 -2488.7969 -2108.1206 -1605.2856 -1092.984 -789.7522 -339.4867 134.24377 354.39148 565.6769 1213.6322 2763.8306 3299.8992 3299.8992 3299.8992 3299.8992 3299.8992 3299.8992 3299.8992 3299.8992 3299.8992 3299.8992 3299.8992 3299.8992 3205.6365 578.06396 -1589.978 -3144.5068 -3129.2998 -3114.4958 -3099.893 -3085.1897 -3070.7886 -3056.488 -3042.1875 -3028.189 -3014.1907 -3000.595 -2986.798 -2973.2024 -2745.9045 

65.460205 6.8481445 -22.659302 4.3304443 43.50586 76.538086 75.027466 66.36658 55.59082 12.286377 -5.9417725 5.5389404 47.735596 63.14392 23.666382 -37.36267 -40.38391 10.372925 82.37915 176.23901 176.23901 176.23901 176.23901 176.23901 176.23901 176.23901 176.23901 176.23901 176.23901 176.23901 176.23901 176.23901 176.23901 176.23901 176.23901 176.23901 176.23901 176.23901 176.23901 176.23901 176.23901 176.23901 176.23901 176.23901 176.23901 176.23901 176.23901 176.23901 176.23901 176.23901 176.23901 176.23901 176.23901 176.23901 176.23901 176.23901 176.23901 176.23901 176.23901 176.23901 176.23901 176.23901 176.23901 176.23901 176.23901 176.23901 176.23901 176.23901 176.23901 176.23901 176.23901 176.23901 176.23901 176.23901 176.23901 176.23901 176.23901 176.23901 176.23901 176.23901 30.212402 48.339844 59.820557 91.34216 130.51758 133.13599 129.91333 114.20288 67.37366 -38.974 -102.923584 -70.79773 -41.4917 -39.578247 11.581421 13.796997 23.565674 61.12976 106.951904 93.96057 93.96057 93.96057 93.96057 93.96057 93.96057 93.96057 93.96057 93.96057 93.96057 93.96057 93.96057 93.96057 93.96057 93.96057 93.96057 93.96057 93.96057 93.96057 93.96057 93.96057 93.96057 93.96057 93.96057 93.96057 93.96057 93.96057 93.96057 93.96057 93.96057 93.96057 93.96057 93.96057 93.96057 93.96057 93.96057 93.96057 93.96057 93.96057 93.96057 93.96057 93.96057 93.96057 93.96057 93.96057 93.96057 93.96057 93.96057 93.96057 93.96057 93.96057 93.96057 93.96057 93.96057 93.96057 93.96057 93.96057 93.96057 93.96057 93.96057 93.96057 93.96057 93.96057 93.96057 93.96057 93.96057 93.96057 93.96057 93.96057 93.96057 93.96057 93.96057 93.96057 93.96057 93.96057 93.96057 93.96057 93.96057 93.96057 93.96057 93.96057 -98.0896 -101.61438 -108.966064 -115.10925 -109.06677 -81.674194 -33.83789 0.9063721 19.537354 35.44922 52.972412 78.85437 84.191895 80.76782 85.09827 89.42871 94.262695 87.716675 93.0542 92.95349 
81.674194 14.199829 -11.984253 38.87329 107.455444 120.547485 121.15173 96.780396 30.111694 -22.860718 -39.98108 -67.77649 -99.19739 -145.52307 -164.85901 -182.78503 -172.41211 -123.36731 -103.930664 -93.759155 -85.198975 -113.39722 -175.93689 -209.9762 -196.38062 -167.1753 -144.41528 -152.06909 -155.49316 -124.97864 -85.60181 -56.396484 -50.454712 -48.339844 -32.42798 -8.358765 12.689209 3.3233643 -4.2297363 -17.523193 -30.81665 -28.198242 2.1148682 -0.70495605 -10.977173 -11.782837 -7.9559326 -6.9488525 -4.5318604 -7.9559326 -5.5389404 -15.509033 -1.1077881 1.2084961 -25.78125 -1.1077881 6.0424805 4.7332764 2.6184082 8.258057 13.192749 12.991333 0.9063721 -17.422485 -10.272217 3.6254883 -0.20141602 7.2509766 11.279297 7.8552246 19.940186 36.758423 41.89453 33.43506 27.090454 43.00232 46.829224 38.974 40.182495 37.664795 26.586914 12.084961 15.509033 44.210815 58.410645 70.495605 78.35083 85.198975 106.14624 105.54199 86.10535 59.61914 58.410645 58.61206 75.73242 62.942505 52.267456 82.07703 123.46802 136.35864 121.45386 92.65137 64.25171 59.317017 94.766235 108.462524 99.09668 70.69702 27.694702 24.975586 30.31311 -24.069214 -69.79065 -111.483765 -159.92432 -195.87708 -193.15796 -168.38379 -129.20837 -79.559326 -50.857544 -39.37683 -22.961426 -6.3446045 -0.80566406 -6.4453125 -35.650635 -51.663208 -21.24939 14.602661 27.493286 10.675049 0.40283203 -8.157349 -40.786743 -53.475952 -64.453125 -73.31543 -82.681274 -92.95349 -88.42163 -90.33508 -85.60181 -93.65845 -87.81738 -86.40747 -79.055786 -63.14392 -47.53418 -36.557007 -17.623901 -1.2084961 6.1431885 27.392578 65.3595 114.30359 168.38379 175.53406 180.87158 189.43176 185.10132 140.68909 103.22571 126.48926 136.66077 139.5813 118.93616 68.481445 -12.487793 -66.36658 -121.051025 -141.89758 -159.7229 -187.61902 -204.73938 -179.56238 -126.89209 -82.37915 -60.62622 -30.413818 -12.588501 9.970093 19.436646 -1.2084961 -12.991333 -11.279297 6.5460205 14.099121 8.056641 1.5106201 -1.0070801 15.408325 21.75293 32.629395 24.27063 -6.3446045 -33.535767 -53.475952 -56.396484 -46.42639 
-3081.2622 -3066.458 -3051.956 -3038.0583 -1181.0028 1951.117 3299.8992 3299.8992 3299.8992 3299.8992 3299.8992 3299.8992 3299.8992 3299.8992 3299.8992 3299.8992 3299.8992 3299.8992 3299.8992 3299.8992 3299.8992 3299.8992 3289.5264 3272.5066 3269.1833 3286.4043 3299.8992 -3280.0598 -3263.745 -3247.531 -3231.4177 -3215.7073 -3199.8962 -3184.2864 -3168.7773 -3153.5706 -3138.3635 -3123.3582 -3108.554 -3093.75 -3079.1472 -3064.9475 -3050.1433 -3036.145 -697.40295 2484.97 3299.8992 3299.8992 3299.8992 3299.8992 3299.8992 3299.8992 3299.8992 3299.8992 3299.8992 3299.8992 3299.8992 3299.8992 3299.8992 3299.8992 3299.8992 3299.8992 3285.901 3269.5862 3269.3848 3286.3037 3299.8992 -3280.5632 -3264.148 -3247.9338 -3232.022 -3216.11 -3200.299 -3184.79 -3169.281 -3153.9734 -3138.8672 -3123.8616 -3108.9568 -3094.1528 -3079.55 -3064.746 -3050.8484 -3026.1748 -397.4945 2756.5796 3299.8992 3299.8992 3299.8992 3299.8992 3299.8992 3299.8992 3299.8992 3299.8992 3299.8992 3299.8992 3299.8992 3299.8992 3299.8992 3299.8992 3299.8992 3299.5972 3283.081 3266.6655 3268.982 3285.901 3299.8992 -3281.067 -3264.6514 -3248.538 -3232.4248 -3216.513 -3200.8025 -3185.1929 -3169.7844 -3154.4768 -3139.3706 -3124.3652 -3109.3596 -3094.6562 -3080.0537 -3065.2495 -3050.7476 -2931.0059 -465.1703 2699.176 3299.8992 3299.8992 3299.8992 3299.8992 3299.8992 3299.8992 3299.8992 3299.8992 3299.8992 3299.8992 3299.8992 3299.8992 3299.8992 3299.8992 3299.8992 3298.993 3283.2825 3262.4358 3270.996 3288.1165 3299.8992 -3278.4485 -3262.1338 -3246.0205 -3229.9072 -3214.096 -3198.3855 -3182.776 -3167.3674 -3152.0598 -3136.9536 -3121.9482 -3107.144 -3092.34 -3077.7373 -3063.5376 -3049.3376 -2714.0808 19.73877 3027.887 3299.8992 3299.8992 3299.8992 3299.8992 3299.8992 3299.8992 3299.8992 3299.8992 3299.8992 3299.8992 3299.8992 3299.8992 3299.8992 3299.8992 3299.8992 3296.9788 3280.4626 3125.3723 3271.6003 3288.5193 3299.8992 -3278.4485 -3262.1338 -3245.9197 -3230.0078 -3214.096 -3198.3855 -3182.8765 -3167.3674 -3152.2612 -3136.9536 -3121.9482 -3107.144 -3092.4407 
-3132.5225 -3118.5242 -3104.9285 -2603.7048 150.8606 2778.0303 3299.8992 3299.8992 3299.8992 3299.8992 3299.8992 3299.8992 3299.8992 3299.8992 3299.8992 3299.8992 3299.8992 3299.8992 3299.8992 3290.7349 3275.83 3261.2273 3246.121 3230.9143 3229.0007 3244.812 3260.8245 3276.3335 3291.742 3299.8992 -3277.7434 -3262.738 -3247.8333 -3233.13 -3218.4265 -3203.9246 -3189.4226 -3175.122 -3161.023 -3146.823 -3132.9253 -3118.8262 -3105.2307 -2765.744 -464.76746 2069.4487 3299.8992 3299.8992 3299.8992 3299.8992 3299.8992 3299.8992 3299.8992 3299.8992 3299.8992 3299.8992 3299.8992 3299.8992 3299.8992 3296.576 3281.6711 3267.0684 3251.7607 3236.2517 3236.856 3253.07 3268.7805 3284.1887 3299.6978 -3285.0952 -3269.989 -3254.9834 -3240.1794 -3225.3752 -3210.7727 -3196.4722 -3181.9702 -3167.7703 -3153.5706 -3139.572 -3125.473 -3112.0789 -3098.0803 -2040.445 544.12537 2977.6335 3299.8992 3299.8992 3299.8992 3299.8992 3299.8992 3299.8992 3299.8992 3299.8992 3299.8992 3299.8992 3299.8992 3299.8992 3299.8992 3293.051 3278.0457 3262.9395 3248.236 3231.8206 3235.144 3250.955 3266.867 3282.4768 3297.885 -3286.8071 -3271.701 -3256.897 -3241.8914 -3227.0874 -3212.4846 -3198.0835 -3183.5815 -3169.4824 -3155.2825 -3141.1833 -3127.2856 -3113.1865 -3099.6917 -1964.209 710.7971 3145.3125 3299.8992 3299.8992 3299.8992 3299.8992 3299.8992 3299.8992 3299.8992 3299.8992 3299.8992 3299.8992 3299.8992 3299.8992 3299.8992 3289.7278 3274.9236 3259.8174 3245.0134 3043.7988 3235.7483 3252.063 3267.572 3283.081 3298.3887 -3286.3037 -3271.1975 -3256.192 -3241.287 -3226.6846 -3212.0818 -3197.5798 -3183.1787 -3168.8782 -3154.779 -3140.68 -3126.7822 -3113.1865 -3099.2888 -1747.4854 1177.5787 3299.8992 3299.8992 3299.8992 3299.8992 3299.8992 3299.8992 3299.8992 3299.8992 3299.8992 3299.8992 3299.8992 3299.8992 3299.8992 3299.8992 3286.0015 3271.1975 3256.192 3241.4885 2720.2239 3234.3384 3250.4517 3265.9607 3281.4697 3296.878 -3288.0156 -3272.8088 -3257.8032 -3242.9993 -3228.195 -3213.5925 -3199.0906 -3184.6892 -3170.4895 -3156.3904 -3142.2913 
3156.8938 3142.3918 3075.6226 1613.8458 -226.59302 -1771.4539 -3068.4722 3149.8442 3165.6555 3181.2651 3196.7742 3212.1826 3227.3894 3242.5964 3257.6018 3272.708 3287.6128 3299.8992 -3282.9802 -3268.2769 -3253.8757 -3239.3738 -3225.2747 -3211.0747 2356.4666 3299.8992 3299.8992 3299.8992 3299.8992 3299.8992 3299.8992 3287.21 3272.3052 3257.4004 3242.4956 3227.4902 3212.7869 3197.9827 3183.2793 3168.7773 3154.1748 3139.8743 3033.1238 1469.5312 -480.2765 -1991.803 -3151.8584 3150.8513 3166.2598 3182.0708 3197.3784 3212.7869 3227.9937 3243.2007 3258.206 3273.3123 3288.0156 3299.8992 -3282.376 -3267.7734 -3253.1707 -3238.87 -3224.2676 -3210.4705 2896.5637 3299.8992 3299.8992 3299.8992 3299.8992 3299.8992 3299.8992 3286.5051 3271.701 3256.6956 3241.7908 3226.886 3212.0818 3197.2778 3182.675 3168.0725 3153.5706 3139.1692 2966.0522 1377.3834 -463.9618 -1912.3444 -3164.5476 3150.0457 3165.756 3181.4666 3196.9756 3212.2832 3227.5908 3242.697 3257.8032 3272.8088 3287.8142 3299.8992 -3282.7788 -3268.0754 -3253.775 -3239.273 -3225.0732 -3086.9019 3299.8992 3299.8992 3299.8992 3299.8992 3299.8992 3299.8992 3298.1873 3283.383 3268.4783 3253.5735 3238.7695 3223.8647 3209.0605 3194.2566 3179.6538 3165.1519 3150.7507 3136.148 2952.658 1274.9634 -525.5951 -1927.2491 -3089.7217 3148.3337 3163.742 3179.251 3194.76 3210.1685 3225.3752 3240.5823 3255.6885 3270.7947 3285.8 3299.8992 -3284.8938 -3270.1904 -3255.6885 -3241.388 -3226.6846 -2764.2334 3299.8992 3299.8992 3299.8992 3299.8992 3299.8992 3299.8992 3293.6553 3278.8513 3264.148 3249.2432 3234.2375 3219.4336 3204.6294 3190.0269 3175.6255 3160.922 3146.4202 3131.8176 2707.0312 951.7914 -707.7759 -2059.9822 -3274.2188 3148.4343 3164.2456 3179.8552 3195.2637 3210.6719 3225.879 3241.0857 3256.192 3271.1975 3286.1023 3299.8992 -3284.3901 -3269.7876 -3255.2856 -3240.7837 -3226.7852 -2341.4612 3299.8992 3299.8992 3299.8992 3299.8992 3299.8992 3299.8992 3291.0369 3276.233 3261.3281 3246.524 3231.5186 3216.8152 3202.011 3187.3076 3172.6042 3158.1023 
-2984.4817 -2970.7854 -2957.5928 -2943.7957 -1951.8219 -306.65588 1294.2993 2693.8384 3299.8992 3299.8992 3299.8992 3299.8992 3299.8992 3299.8992 3299.8992 3299.8992 3299.8992 3299.8992 3299.8992 3299.8992 3299.8992 3299.8992 3299.8992 3299.8992 295.98083 -3203.7231 -3187.9119 -3172.6042 -3157.2966 -3142.0898 -3127.0842 -3112.3809 -3097.577 -3082.974 -3068.4722 -3054.1716 -3039.972 -3025.772 -3011.6729 -2997.876 -2984.0789 -2970.3826 -2956.5857 -2838.2537 -571.41724 1582.1228 3176.0283 3299.8992 3299.8992 3299.8992 3299.8992 3299.8992 3299.8992 3299.8992 3299.8992 3299.8992 3299.8992 3299.8992 3299.8992 3299.8992 3299.8992 3299.8992 3299.8992 3299.8992 -730.7373 -3222.8577 -3207.1472 -3191.6382 -3176.3306 -3161.1235 -3146.2188 -3131.2134 -3116.51 -3101.8066 -3087.2039 -3072.8027 -3058.5022 -3044.3022 -3030.2031 -3016.104 -3002.3071 -2972.2961 -2687.393 -2403.598 -1690.2832 -4.4311523 1390.274 2488.1926 2930.0994 3299.8992 3299.8992 3299.8992 3299.8992 3299.8992 3299.8992 3299.8992 3299.8992 3299.8992 3299.8992 3299.8992 3299.8992 3299.8992 3299.8992 3299.8992 -1437.4054 -3207.4492 -3191.7388 -3176.2297 -3161.1235 -3145.9167 -3130.9111 -3116.1072 -3101.4038 -3086.801 -3072.299 -3057.9985 -3043.698 -3029.5989 -3015.4998 -3001.602 -2987.8052 -2974.008 -2960.916 -2231.1858 -386.41663 1122.7936 2505.6152 3299.8992 3299.8992 3299.8992 3299.8992 3299.8992 3299.8992 3299.8992 3299.8992 3299.8992 3299.8992 3299.8992 3299.8992 3299.8992 3299.8992 3299.8992 3299.8992 3299.8992 -1580.2094 -3223.1597 -3207.55 -3192.041 -3176.7334 -3161.6272 -3146.521 -3131.7168 -3117.0134 -3102.31 -3087.808 -3073.3062 -3058.905 -3044.705 -3030.606 -3016.6077 -3002.71 -2988.9128 -2975.6194 -2786.5906 -1236.2915 312.39624 1826.944 3232.022 3299.8992 3299.8992 3299.8992 3299.8992 3299.8992 3299.8992 3299.8992 3299.8992 3299.8992 3299.8992 3299.8992 3299.8992 3299.8992 3299.8992 3299.8992 3299.8992 -2330.7861 -3220.5413 -3204.8308 -3189.5232 -3174.115 -3158.908 -3144.0032 -3129.1992 -3114.2944 -3099.6917 -3085.1897 -3070.7886 -3056.488 -3042.288 -3028.189 -3014.1907 
3098.6846 3080.96 2651.0376 1337.503 -37.765503 -1049.9817 -1940.5426 -2958.499 -3234.8418 3114.7979 3131.4148 3148.1323 3164.447 3180.7617 3196.9756 3212.9883 3228.9001 3244.7112 3260.7239 3276.233 3291.9434 3299.8992 -3277.542 -3250.5522 1415.9546 3299.8992 3299.8992 3295.3674 3280.0598 3263.9465 3249.1423 3233.9355 3218.7285 3203.421 3187.8113 3172.4028 3156.8938 3141.8884 3126.6814 3111.5752 3096.8718 3079.651 2684.674 1323.9075 -134.84802 -1153.3081 -2072.0671 -3206.1401 3158.0017 3116.2078 3133.1267 3149.5422 3165.857 3182.1716 3198.3855 3214.2974 3230.4106 3246.121 3261.9324 3277.7434 3293.2524 -3291.1377 -3276.132 -3162.4329 1665.3076 3299.8992 3299.8992 3295.2666 3280.0598 3264.047 3249.1423 3234.0361 3218.628 3203.2195 3187.8113 3172.3022 3156.7932 3141.5862 3126.3794 3111.5752 3096.5698 3078.8452 2442.6726 987.3413 -308.0658 -1235.8887 -2066.9312 -3114.4958 3228.4973 3119.229 3136.0474 3152.664 3168.9788 3185.1929 3201.2053 3217.218 3233.2305 3249.1423 3264.8528 3280.5632 3296.2737 -3288.217 -3272.708 -2864.5386 2485.8765 3299.8992 3299.8992 3294.058 3278.65 3262.738 3247.8333 3232.727 3217.218 3201.9104 3186.502 3170.993 3155.5847 3140.3777 3125.2715 3110.3667 3095.3613 3075.9246 2329.6782 915.7379 -311.59058 -1354.2206 -2264.3188 3226.3823 3105.7341 3122.653 3139.1692 3155.7861 3172 3188.3147 3204.3274 3220.4407 3236.3525 3252.1636 3267.9749 3283.5845 3299.0935 -3285.3972 -3269.6868 -2595.8496 2813.681 3299.8992 3299.8992 3294.7632 3279.5562 3263.6443 3248.639 3233.432 3218.225 3202.716 3187.3076 3171.698 3156.491 3141.2842 3126.0771 3111.0718 3096.167 3077.3345 2297.653 799.6216 -460.63843 -1448.9868 -2290.7043 3265.7593 3108.3525 3125.171 3141.7876 3158.1023 3174.5178 3190.7317 3206.845 3222.8577 3238.7695 3254.5806 3270.3918 3286.1023 3299.8992 -3282.8796 -3267.2698 -2225.7476 3295.5688 3299.8992 3299.8992 3294.461 3279.1533 3263.2415 3248.3367 3233.029 3217.6208 3202.3132 3186.7034 3171.2952 3155.9875 3140.7805 3125.5737 3110.669 
-2209.6343 -1798.7457 -1334.6832 -844.1345 -449.86267 -88.723755 164.45618 383.29468 594.37866 1263.7848 2875.717 3299.8992 3299.8992 3299.8992 3299.8992 3299.8992 3299.8992 3299.8992 3299.8992 3299.8992 3299.8992 3299.8992 3299.8992 2972.3967 379.16565 -1791.7969 -3146.823 -3131.7168 -3116.812 -3102.1086 -3087.6067 -3073.0042 -3058.7036 -3044.5037 -3030.4045 -3016.6077 -3002.9114 -2989.1143 -2932.6172 -2475.7048 -1933.9966 -1603.5736 -1381.6132 -954.4098 -533.95386 -216.52222 53.274536 357.81555 530.9326 1227.6306 2948.0254 3299.8992 3299.8992 3299.8992 3299.8992 3299.8992 3299.8992 3299.8992 3299.8992 3299.8992 3299.8992 3299.8992 3299.8992 2838.858 140.58838 -1878.8086 -3148.3337 -3133.3281 -3118.4233 -3103.6194 -3089.0166 -3074.6155 -3060.315 -3046.115 -3032.2173 -3018.219 -3004.4219 -2990.7256 -2976.9287 -2719.519 -2223.0286 -1853.0273 -1304.8737 -731.6437 -629.32434 -268.58826 111.78589 384.50317 572.72644 1392.691 3053.2654 3299.8992 3299.8992 3299.8992 3299.8992 3299.8992 3299.8992 3299.8992 3299.8992 3299.8992 3299.8992 3299.8992 3299.8992 2870.1782 206.85425 -1836.8134 -3148.7366 -3133.6304 -3118.7256 -3103.9214 -3089.4194 -3075.119 -3060.7178 -3046.5178 -3032.4187 -3018.4204 -3004.6233 -2990.8264 -2910.1592 -2449.6216 -2001.8738 -1655.1361 -1089.4592 -561.0443 -220.34912 23.565674 249.95728 444.62585 543.1183 1393.7988 3101.9072 3299.8992 3299.8992 3299.8992 3299.8992 3299.8992 3299.8992 3299.8992 3299.8992 3299.8992 3299.8992 3299.8992 3299.8992 2586.4836 -153.57971 -2018.4906 -3154.074 -3138.9678 -3124.2644 -3109.4604 -3094.757 -3080.4565 -3066.156 -3051.7546 -3037.7563 -3023.7578 -3009.961 -2996.1638 -2982.4675 -2689.81 -2130.9814 -1611.2274 -1152.5024 -720.16296 -438.48267 -210.88257 -5.4382324 208.96912 492.865 1467.215 3283.081 3299.8992 3299.8992 3299.8992 3299.8992 3299.8992 3299.8992 3299.8992 3299.8992 3299.8992 3299.8992 3299.8992 3299.8992 2655.4688 -109.67102 -2089.6912 -3153.2683 -3138.3635 -3123.4587 -3108.7554 -3093.9514 -3079.651 -3065.2495 -3051.0498 -3036.9507 -3022.9521 -3009.1553 -2995.459 -2901.4983 -2585.5774 

91.34216 59.417725 29.910278 31.924438 28.399658 23.364258 6.0424805 8.157349 -2.7191162 -0.70495605 -17.120361 -52.972412 -31.118774 -2.2155762 27.694702 54.785156 49.44763 10.272217 5.8410645 28.500366 7.2509766 -8.157349 -22.457886 -32.42798 -8.862305 33.032227 56.900024 22.055054 -57.10144 -114.4043 -121.75598 -81.7749 -39.47754 -14.199829 3.3233643 6.8481445 3.0212402 7.2509766 11.581421 15.811157 10.977173 26.184082 29.608154 42.297363 54.0802 27.493286 2.1148682 5.4382324 37.664795 51.965332 61.12976 69.08569 55.892944 27.29187 -13.092041 -10.675049 -19.033813 -14.300537 16.314697 -3.3233643 7.6538086 30.715942 45.117188 52.166748 73.91968 70.79773 9.466553 -54.68445 -39.88037 -20.544434 -14.099121 -44.51294 -106.54907 -123.87085 -110.27527 -83.58765 -74.12109 -50.354004 -5.2368164 32.125854 45.620728 80.36499 94.66553 72.10693 21.24939 10.574341 11.178589 21.148682 27.191162 48.843384 65.25879 72.81189 103.52783 121.65527 103.62854 25.78125 -67.77649 -120.14465 -135.35156 -111.18164 -111.18164 -111.18164 -111.18164 -111.18164 -111.18164 -111.18164 -111.18164 -111.18164 -111.18164 -111.18164 -111.18164 -111.18164 -111.18164 -111.18164 -111.18164 -111.18164 -111.18164 -111.18164 -111.18164 -111.18164 -111.18164 -111.18164 -111.18164 -111.18164 -111.18164 -111.18164 -111.18164 -111.18164 -111.18164 -111.18164 -111.18164 -111.18164 -111.18164 -111.18164 -111.18164 -111.18164 -111.18164 -111.18164 -111.18164 -111.18164 46.224976 41.189575 14.199829 16.516113 45.01648 50.756836 31.420898 21.551514 26.889038 23.062134 14.199829 21.853638 25.78125 15.106201 -5.3375244 -56.497192 -57.302856 -51.461792 -33.33435 -63.24463 -102.420044 -85.60181 -41.99524 -13.293457 2.6184082 4.4311523 13.796997 24.874878 38.671875 58.813477 51.159668 40.786743 66.36658 83.58765 121.35315 145.12024 123.16589 106.04553 107.15332 108.36182 78.35083 -21.652222 -96.98181 -80.163574 -27.090454 -7.7545166 15.408325 -12.588501 -77.645874 -126.086426 -117.022705 -101.412964 -104.73633 -117.82837 -100.40588 -90.33508 -77.44446 -60.827637 -45.217896 -16.516113 8.258057 20.443726 11.279297 11.480713 45.620728 103.22571 157.91016 213.60168 272.41516 305.6488 299.4049 246.13037 148.84644 55.490112 -31.924438 -104.837036 -183.89282 -222.06116 -237.97302 -243.51196 
-38.974 -39.47754 -30.31311 -3.1219482 6.9488525 16.818237 19.134521 31.622314 22.357178 31.118774 35.34851 15.710449 -11.380005 -22.961426 -22.25647 -0.60424805 48.843384 79.96216 89.63013 103.72925 117.92908 87.01172 35.34851 17.825317 28.500366 28.198242 0.50354004 -18.127441 -36.053467 -49.0448 -53.878784 -44.41223 -40.38391 -58.813477 -67.37366 -60.12268 -42.297363 -18.530273 3.4240723 39.678955 75.83313 122.15881 129.5105 135.35156 132.33032 123.77014 82.47986 34.039307 18.73169 3.7261963 -20.645142 -41.088867 -58.10852 -70.89844 -85.40039 -97.283936 -66.26587 -32.93152 -26.889038 -29.910278 -34.94568 -48.339844 -66.56799 -71.20056 -47.836304 -36.758423 -58.914185 -66.06445 -48.843384 -32.730103 -22.055054 -15.206909 -23.364258 -14.804077 -8.258057 -5.1361084 -8.761597 -2.6184082 -2.0141602 4.3304443 9.567261 30.615234 31.118774 25.881958 35.44922 42.700195 54.986572 68.68286 105.03845 128.60413 108.966064 77.142334 63.446045 83.184814 79.45862 35.650635 -48.44055 -81.47278 -83.99048 -51.260376 -28.701782 -24.77417 -34.240723 -40.081787 -54.986572 -69.992065 -60.928345 -58.309937 -57.20215 -61.834717 -42.700195 -24.371338 -20.544434 -23.26355 -25.680542 -7.1502686 3.7261963 13.293457 37.96692 65.460205 72.61047 85.40039 85.29968 65.56091 59.71985 63.24463 67.07153 70.59631 73.21472 59.014893 33.132935 33.9386 35.34851 29.910278 19.839478 -3.7261963 -51.864624 -97.08252 -110.17456 -107.35474 -86.8103 -87.41455 -82.27844 -52.670288 -21.047974 -4.7332764 -6.9488525 -3.0212402 -16.012573 -18.832397 7.7545166 36.657715 43.606567 45.620728 27.593994 20.947266 32.528687 30.615234 2.7191162 -40.081787 -83.08411 -48.239136 -18.026733 -5.8410645 1.8127441 -4.7332764 -14.602661 -37.664795 -21.24939 -1.6113281 -2.1148682 -8.660889 -4.4311523 4.0283203 17.72461 11.682129 3.9276123 -7.4523926 -10.675049 -14.099121 -10.775757 -0.20141602 -14.501953 -15.005493 12.991333 44.0094 60.12268 57.907104 64.75525 68.17932 91.241455 99.90234 121.85669 113.1958 102.420044 85.80322 60.928345 35.247803 28.097534 37.161255 61.935425 80.26428 49.246216 5.6396484 -1.7120361 -10.473633 -16.415405 -7.4523926 1.4099121 -11.178589 -35.34851 -33.33435 -34.44214 -42.095947 -22.961426 -9.768677 -25.378418 -58.61206 -78.25012 -114.30359 
