-9.970093 -9.970093 -9.970093 -9.970093 -9.970093 -9.970093 -9.970093 -9.970093 -9.970093 -9.970093 -9.970093 -9.970093 -9.970093 -9.970093 -9.970093 -9.970093 -9.970093 -9.970093 -9.970093 -9.970093 -9.970093 -9.970093 -9.970093 -9.970093 -9.970093 -9.970093 -9.970093 -9.970093 -9.970093 -9.970093 -9.970093 -9.970093 -9.970093 -9.970093 -9.970093 -9.970093 -9.970093 -9.970093 -9.970093 -9.970093 -9.970093 -9.970093 -9.970093 -9.970093 -9.970093 -9.970093 -9.970093 -9.970093 -9.970093 -9.970093 -9.970093 -9.970093 -9.970093 -9.970093 -9.970093 -9.970093 -9.970093 -9.970093 -9.970093 -9.970093 -9.970093 -9.970093 -9.970093 -9.970093 -9.970093 -9.970093 -9.970093 -9.970093 -9.970093 -9.970093 -9.970093 -9.970093 -9.970093 -9.970093 -9.970093 -9.970093 -9.970093 -9.970093 -9.970093 -9.970093 -9.970093 -9.970093 -9.970093 -9.970093 -9.970093 -9.970093 -9.970093 -9.970093 -9.970093 -9.970093 -9.970093 -9.970093 -9.970093 -9.970093 -9.970093 -9.970093 -9.970093 -9.970093 -9.970093 -9.970093 -9.970093 -9.970093 -9.970093 -9.970093 -9.970093 -9.970093 -9.970093 -9.970093 -9.970093 -9.970093 -9.970093 -9.970093 -9.970093 -9.970093 -9.970093 -9.970093 -9.970093 -9.970093 -9.970093 -9.970093 -9.970093 -9.970093 -9.970093 -9.970093 -9.970093 -9.970093 -9.970093 -9.970093 -9.970093 -9.970093 -9.970093 -9.970093 -9.970093 -9.970093 -9.970093 -9.970093 -9.970093 -9.970093 -9.970093 -9.970093 -9.970093 -9.970093 -9.970093 -9.970093 -9.970093 -9.970093 -9.970093 -9.970093 -9.970093 -9.970093 -9.970093 -9.970093 -9.970093 -9.970093 -9.970093 -9.970093 -9.970093 -9.970093 -9.970093 -9.970093 -9.970093 -9.970093 -9.970093 -9.970093 -9.970093 -9.970093 -9.970093 -9.970093 -9.970093 -9.970093 -9.970093 -9.970093 -9.970093 -9.970093 -9.970093 -9.970093 -9.970093 -9.970093 -9.970093 -9.970093 -9.970093 -9.970093 -9.970093 -9.970093 -9.970093 -9.970093 -9.970093 -9.970093 -9.970093 -9.970093 -9.970093 -9.970093 -9.970093 -9.970093 -9.970093 -9.970093 -9.970093 -9.970093 -9.970093 -9.970093 
38.269043 37.261963 41.39099 56.396484 78.35083 86.00464 135.35156 186.81335 228.9093 258.11462 251.4679 228.30505 231.52771 254.28772 252.67639 216.01868 180.56946 155.09033 131.52466 92.752075 16.516113 -71.80481 -135.45227 -182.48291 -212.09106 -202.72522 -168.78662 -123.16589 -94.06128 -107.35474 -81.47278 -45.217896 -28.601074 -33.9386 -51.361084 -89.93225 -134.14307 -136.15723 -132.53174 -122.76306 -88.32092 -26.889038 19.940186 35.751343 31.420898 11.178589 8.056641 14.804077 0.70495605 -11.682129 -51.965332 -96.07544 -129.40979 -142.90466 -121.051025 -91.8457 -79.45862 -100.6073 -93.65845 -89.93225 -67.474365 -36.95984 -13.696289 -24.874878 -32.730103 -42.39807 -47.735596 -54.483032 -75.027466 -61.331177 -39.175415 -13.595581 6.5460205 19.940186 16.616821 13.897705 19.638062 27.694702 41.290283 49.246216 51.05896 48.843384 77.24304 125.582886 201.51672 296.18225 360.63538 455.3009 560.6415 661.2488 694.5831 674.1394 624.38965 543.92395 425.59204 266.97693 125.18005 -46.124268 -261.5387 -457.01294 -584.5093 -644.53125 -637.7838 -591.65955 -523.88306 -488.93738 -453.38745 -413.7085 -355.9021 -281.8817 -213.90381 -150.75989 -105.03845 -87.91809 -82.78198 -71.20056 -32.730103 -5.7403564 10.876465 18.933105 30.715942 14.804077 -7.8552246 -2.8198242 1.5106201 -1.5106201 -6.1431885 -20.544434 -16.71753 -8.963013 -0.70495605 -16.012573 -5.0354004 18.630981 40.081787 68.78357 79.559326 69.08569 -2.5177002 -37.96692 -47.634888 -38.671875 -28.198242 -15.811157 2.8198242 15.206909 26.889038 26.989746 16.616821 9.063721 4.6325684 1.8127441 11.782837 15.911865 20.846558 18.530273 26.687622 37.664795 58.71277 61.935425 68.78357 66.36658 74.72534 93.255615 95.47119 95.06836 89.227295 115.008545 153.3783 184.39636 173.5199 157.00378 139.5813 125.68359 116.015625 96.276855 92.65137 79.660034 82.78198 51.5625 -0.20141602 -80.26428 -167.57812 -188.02185 -172.3114 -136.66077 -103.427124 -53.17383 -11.682129 -32.528687 -60.424805 -52.670288 -24.874878 -7.7545166 7.8552246 11.883545 18.22815 22.155762 34.643555 48.94409 
-3078.4424 -3064.3433 -3049.539 -3035.6414 -855.71594 2205.2031 3299.8992 3299.8992 3299.8992 3299.8992 3299.8992 3299.8992 3299.8992 3299.8992 3299.8992 3299.8992 3299.8992 3299.8992 3299.8992 3299.8992 3299.8992 3299.8992 3289.0227 3271.8018 3272.9094 3290.1306 -3293.051 -3276.535 -3260.2202 -3244.0063 -3228.0945 -3212.1826 -3196.4722 -3180.8623 -3165.5547 -3150.247 -3135.1409 -3120.236 -3105.3313 -3090.5273 -3075.9246 -3061.8254 -3047.525 -2986.4958 -477.8595 2694.4426 3299.8992 3299.8992 3299.8992 3299.8992 3299.8992 3299.8992 3299.8992 3299.8992 3299.8992 3299.8992 3299.8992 3299.8992 3299.8992 3299.8992 3299.8992 3299.8992 3286.8071 3270.0896 3273.5137 3290.4326 -3292.9504 -3276.4343 -3260.1196 -3244.0063 -3227.9937 -3212.1826 -3196.4722 -3180.8623 -3165.454 -3150.247 -3135.0403 -3120.1355 -3105.3313 -3090.5273 -3075.9246 -3061.2212 -3046.7192 -2828.9885 -50.958252 3042.5903 3299.8992 3299.8992 3299.8992 3299.8992 3299.8992 3299.8992 3299.8992 3299.8992 3299.8992 3299.8992 3299.8992 3299.8992 3299.8992 3299.8992 3299.8992 3299.4963 3283.8867 3253.5735 3272.708 3289.9292 -3293.3533 -3276.8372 -3260.4216 -3244.3083 -3228.296 -3212.4846 -3196.7742 -3181.1646 -3165.756 -3150.5493 -3135.3423 -3120.5383 -3105.6335 -3090.9302 -3076.2268 -3062.0269 -3047.4243 -2790.4175 -58.914185 3089.7217 3299.8992 3299.8992 3299.8992 3299.8992 3299.8992 3299.8992 3299.8992 3299.8992 3299.8992 3299.8992 3299.8992 3299.8992 3299.8992 3299.8992 3299.8992 3298.59 3282.4768 3113.5894 3273.715 3290.634 -3292.9504 -3276.4343 -3260.2202 -3244.107 -3227.9937 -3212.2832 -3196.4722 -3180.9631 -3165.6555 -3150.247 -3135.2417 -3120.236 -3105.3313 -3090.628 -3076.126 -3061.2212 -3047.3235 -2786.3892 -119.94324 2989.7185 3299.8992 3299.8992 3299.8992 3299.8992 3299.8992 3299.8992 3299.8992 3299.8992 3299.8992 3299.8992 3299.8992 3299.8992 3299.8992 3299.8992 3299.8992 3299.8992 3283.484 2642.1753 3277.6428 3294.461 -3289.0227 -3272.6074 -3256.3933 -3240.28 -3224.2676 -3208.4563 -3192.8467 -3177.2368 -3161.9292 -3146.6216 -3131.6162 -3116.6106 -3101.8066 -3087.2039 
-3112.4817 -3098.9868 -3085.089 -2480.5388 -171.90857 2286.676 3299.8992 3299.8992 3299.8992 3299.8992 3299.8992 3299.8992 3299.8992 3299.8992 3299.8992 3299.8992 3299.8992 3299.8992 3299.8992 3299.8992 3297.3816 3282.1746 3267.3706 3251.5593 3252.6672 3268.881 3284.3901 3299.8992 -3284.8938 -3269.5862 -3254.5806 -3239.6758 -3224.9724 -3210.3699 -3195.767 -3181.366 -3167.166 -3152.9663 -3138.8672 -3124.9695 -3111.0718 -3097.6775 -3083.7798 -2724.1516 -177.3468 2375.1982 3299.8992 3299.8992 3299.8992 3299.8992 3299.8992 3299.8992 3299.8992 3299.8992 3299.8992 3299.8992 3299.8992 3299.8992 3299.8992 3299.8992 3299.295 3284.0881 3269.1833 3246.222 3256.9976 3272.708 3288.6199 3299.8992 -3280.664 -3265.3564 -3250.4517 -3235.5469 -3220.8435 -3206.1401 -3191.6382 -3177.4382 -3163.1377 -3148.938 -3134.9395 -3120.9412 -3107.2449 -3093.2463 -3079.953 -2168.1426 448.45276 2922.5464 3299.8992 3299.8992 3299.8992 3299.8992 3299.8992 3299.8992 3299.8992 3299.8992 3299.8992 3299.8992 3299.8992 3299.8992 3299.8992 3299.8992 3296.2737 3281.4697 3266.2627 3070.99 3256.4941 3272.2046 3288.1165 3299.8992 -3281.067 -3265.9607 -3250.955 -3236.0503 -3221.347 -3206.6436 -3192.2424 -3177.7405 -3163.5405 -3149.4414 -3135.443 -3121.646 -3107.7483 -3093.8506 -3080.4565 -2077.002 398.5016 2860.0066 3299.8992 3299.8992 3299.8992 3299.8992 3299.8992 3299.8992 3299.8992 3299.8992 3299.8992 3299.8992 3299.8992 3299.8992 3299.8992 3299.8992 3295.7703 3281.067 3265.8599 2794.5464 3258.1055 3273.715 3289.627 3299.8992 -3279.657 -3264.45 -3249.4446 -3234.6404 -3219.937 -3205.2336 -3190.8325 -3176.4312 -3162.1306 -3148.0315 -3134.0332 -3120.1355 -3106.3384 -3092.4407 -3079.1472 -2381.3416 325.8911 2905.9294 3299.8992 3299.8992 3299.8992 3299.8992 3299.8992 3299.8992 3299.8992 3299.8992 3299.8992 3299.8992 3299.8992 3299.8992 3299.8992 3299.8992 3298.3887 3283.6853 3268.2769 2415.5823 3262.3352 3277.9448 3293.8567 3299.8992 -3275.5278 -3260.321 -3245.3154 -3230.5115 -3215.808 -3201.2053 -3186.7034 -3172.5037 -3158.2031 -3144.104 -3130.1055 -3116.3086 
3140.4785 3126.178 3073.8098 1626.2329 -246.73462 -1693.5059 -2928.3875 3132.8247 3148.233 3163.9434 3179.4524 3194.8608 3210.1685 3225.3752 3240.5823 3255.5876 3270.5933 3285.498 3299.8992 -3285.0952 -3270.4924 -3256.0913 -3241.388 -3166.159 3213.2903 3299.8992 3299.8992 3299.8992 3299.8992 3297.6836 3283.081 3268.2769 3253.775 3238.971 3223.8647 3209.1614 3194.3572 3179.7546 3165.1519 3150.8513 3136.3494 3122.0488 2911.569 1190.1672 -584.00574 -1985.6598 -3082.2693 3135.1409 3151.0527 3166.5618 3182.1716 3197.4792 3212.7869 3227.9937 3243.2007 3258.206 3273.2117 3288.0156 3299.8992 -3282.5774 -3267.9749 -3253.473 -3239.273 -2893.341 3299.8992 3299.8992 3299.8992 3299.8992 3299.8992 3297.3816 3282.6782 3267.9749 3253.1707 3238.3667 3223.5625 3208.8591 3194.0552 3179.4524 3164.8499 3150.4485 3136.148 3121.7468 2828.9885 1121.8872 -642.01355 -2010.9375 -3163.44 3135.745 3151.5564 3167.2668 3182.675 3198.0835 3213.391 3228.598 3243.704 3258.7097 3273.6145 3288.5193 3299.8992 -3282.074 -3267.3706 -3252.9692 -3238.7695 -2663.9282 3299.8992 3299.8992 3299.8992 3299.8992 3299.8992 3296.0723 3281.6711 3266.867 3252.063 3237.1582 3222.354 3207.4492 3192.8467 3178.1433 3163.742 3149.24 3134.8389 3120.4375 2920.7336 1195.5048 -496.8933 -1968.5394 -3286.6057 3134.0332 3149.4414 3165.1519 3180.5603 3195.9685 3211.2761 3226.4832 3241.5894 3256.6956 3271.6003 3286.4043 3299.8992 -3284.1887 -3269.4854 -3255.0842 -3240.4814 -2404.7058 3299.8992 3299.8992 3299.8992 3299.8992 3299.8992 3293.051 3278.3477 3263.745 3248.941 3234.137 3219.3328 3204.5288 3189.926 3175.424 3160.7207 3146.3196 3132.019 3117.2148 2670.9778 865.1825 -784.11255 -2190.7012 3180.4595 3135.846 3151.657 3167.2668 3182.675 3198.0835 3213.4917 3228.598 3243.704 3258.7097 3273.715 3288.7207 3299.8992 -3281.9731 -3267.4712 -3252.9692 -3238.7695 -1952.6276 3299.8992 3299.8992 3299.8992 3299.8992 3299.8992 3291.8425 3277.1392 3262.4358 3247.7324 3232.9285 3218.0237 3203.3203 3188.617 3174.0142 3159.4116 3145.0103 
-2976.526 -2962.8296 -2949.0325 -2899.0813 -1534.2865 48.94409 1483.8318 2853.2593 3299.8992 3299.8992 3299.8992 3299.8992 3299.8992 3299.8992 3299.8992 3299.8992 3299.8992 3299.8992 3299.8992 3299.8992 3299.8992 3299.8992 3299.8992 3299.8992 -541.20483 -3197.7812 -3182.2722 -3166.7632 -3151.4556 -3136.3494 -3121.5454 -3106.7412 -3092.0378 -3077.536 -3063.034 -3048.7334 -3034.5337 -3020.4346 -3006.436 -2992.5383 -2978.842 -2965.1458 -2951.3489 -2903.311 -1843.3594 -308.2672 1063.7787 2513.3696 3299.8992 3299.8992 3299.8992 3299.8992 3299.8992 3299.8992 3299.8992 3299.8992 3299.8992 3299.8992 3299.8992 3299.8992 3299.8992 3299.8992 3299.8992 3299.8992 -1368.0176 -3189.926 -3174.2156 -3158.908 -3143.7012 -3128.4941 -3113.6902 -3098.886 -3084.2834 -3069.7815 -3055.481 -3041.1804 -3026.9805 -3012.8813 -2998.9836 -2985.086 -2971.3896 -2957.7942 -2944.5007 -2902.8076 -1634.6924 -20.74585 1445.6635 2929.0923 3299.8992 3299.8992 3299.8992 3299.8992 3299.8992 3299.8992 3299.8992 3299.8992 3299.8992 3299.8992 3299.8992 3299.8992 3299.8992 3299.8992 3299.8992 3299.8992 -1884.549 -3187.207 -3171.4966 -3156.189 -3141.0828 -3125.9766 -3111.1724 -3096.2676 -3081.665 -3067.163 -3052.9631 -3038.562 -3024.463 -3010.4644 -2996.466 -2982.7698 -2968.9727 -2955.2764 -2941.681 -2808.142 -1276.1719 347.84546 1754.0314 3110.971 3299.8992 3299.8992 3299.8992 3299.8992 3299.8992 3299.8992 3299.8992 3299.8992 3299.8992 3299.8992 3299.8992 3299.8992 3299.8992 3299.8992 3299.8992 3299.8992 -2303.2927 -3188.8184 -3173.2085 -3157.901 -3142.5933 -3127.588 -3112.683 -3097.9797 -3083.2764 -3068.7744 -3054.4739 -3040.1733 -3025.9734 -3011.975 -2998.0774 -2984.1797 -2970.4834 -2956.8877 -2943.2922 -2756.9824 -1278.7903 358.5205 1875.3845 3233.2305 3299.8992 3299.8992 3299.8992 3299.8992 3299.8992 3299.8992 3299.8992 3299.8992 3299.8992 3299.8992 3299.8992 3299.8992 3299.8992 3299.8992 3299.8992 3299.8992 -2845.3032 -3188.919 -3173.3093 -3157.901 -3142.694 -3127.6885 -3112.8845 -3098.1812 -3083.4778 -3069.0764 -3054.5745 -3040.3748 -3026.1748 -3012.1765 -2998.178 -2984.381 
3086.0962 3068.6736 2654.8645 1243.4418 -194.56787 -1263.7848 -2181.7383 -3282.376 3091.7358 3108.4534 3124.9695 3141.5862 3158.1023 3174.417 3190.631 3206.543 3222.5554 3238.568 3254.2786 3269.989 3285.6995 3299.8992 -3283.1816 -3054.373 1885.4553 3299.8992 3299.8992 3286.5051 3271.0967 3255.3862 3240.4814 3225.2747 3210.0676 3194.76 3179.251 3163.8428 3148.5352 3133.3281 3118.3228 3103.3171 3088.4124 3069.58 2502.7954 1076.0651 -279.66614 -1340.3229 -2236.322 3260.5225 3096.6704 3113.388 3130.2063 3146.521 3162.9363 3179.251 3195.465 3211.5784 3227.2888 3243.2007 3259.1125 3274.7222 3290.332 3299.8992 -3278.549 -2834.024 2288.6902 3299.8992 3299.8992 3288.922 3273.5137 3257.6018 3242.697 3227.3894 3212.384 3196.9756 3181.5674 3166.0583 3150.7507 3135.5437 3120.337 3105.6335 3090.628 3072.9033 2697.5647 1343.5455 -15.609741 -1050.1831 -1979.5166 -3093.4478 3109.0576 3108.1511 3124.8687 3141.3848 3157.8003 3174.0142 3190.3289 3206.2407 3222.2534 3238.2659 3254.0771 3269.6868 3285.2966 3299.8992 -3283.383 -2515.988 2779.541 3299.8992 3296.2737 3281.067 3265.8599 3249.948 3235.0432 3219.8364 3204.7302 3189.4226 3174.0142 3158.606 3143.2983 3128.1921 3113.086 3098.2817 3083.377 3063.034 2376.6082 939.6057 -337.47253 -1312.1246 -2261.801 3236.1511 3093.5486 3110.3667 3126.9836 3143.399 3159.915 3176.1292 3192.343 3208.3557 3224.2676 3240.1794 3255.9905 3271.701 3287.3108 3299.8992 -3281.9731 -2278.9214 3111.5752 3299.8992 3296.475 3281.2683 3265.9607 3250.1494 3235.0432 3220.1384 3204.8308 3189.5232 3174.115 3158.606 3143.4998 3128.1921 3113.2874 3098.3826 3083.4778 3037.454 2200.0671 755.20935 -512.60376 -1494.3054 -2415.1794 3115.2007 3098.6846 3115.2007 3131.9182 3148.4343 3164.8499 3180.9631 3197.0764 3213.1897 3229.0007 3244.9126 3260.9253 3276.3335 3292.2454 3299.8992 -3277.4414 -1935.8093 3299.8992 3299.8992 3299.0935 3283.786 3268.579 3252.5664 3237.561 3222.5554 3207.2478 3191.8396 3176.532 3161.1235 3145.816 3130.6091 3115.6035 3100.7996 
-2042.7612 -1575.8789 -1416.861 -1024.9054 -668.8019 -367.0807 54.785156 427.90833 632.6477 1357.1411 3042.9932 3299.8992 3299.8992 3299.8992 3299.8992 3299.8992 3299.8992 3299.8992 3299.8992 3299.8992 3299.8992 3299.8992 3299.8992 2743.2861 -26.184082 -2084.7563 -3137.5579 -3122.4517 -3107.7483 -3093.045 -3078.4424 -3064.2424 -3049.8413 -3035.7422 -3021.7437 -3007.9468 -2994.1497 -2980.3528 -2899.7864 -2485.5742 -2097.0427 -1683.6365 -1462.7838 -1049.9817 -657.32117 -338.58032 -111.987305 200.30823 560.7422 1312.6282 3081.967 3299.8992 3299.8992 3299.8992 3299.8992 3299.8992 3299.8992 3299.8992 3299.8992 3299.8992 3299.8992 3299.8992 3299.8992 2881.961 172.51282 -1765.6128 -3138.263 -3123.1567 -3108.252 -3093.6492 -3079.1472 -3064.746 -3050.4456 -3036.3464 -3022.348 -3008.3496 -2994.5525 -2980.8562 -2965.2466 -2702.902 -2453.549 -2232.898 -1727.3438 -1187.5488 -810.0952 -494.2749 -324.17908 -28.399658 451.3733 1267.4103 3000.8972 3299.8992 3299.8992 3299.8992 3299.8992 3299.8992 3299.8992 3299.8992 3299.8992 3299.8992 3299.8992 3299.8992 3299.8992 2417.2942 -361.34033 -2243.875 -3120.7397 -3105.7341 -3090.9302 -3076.3274 -3061.9263 -3047.6257 -3033.3252 -3019.3267 -3005.5298 -2991.632 -2977.835 -2964.34 -2947.7234 -2647.412 -2206.311 -1598.2361 -1205.6763 -797.5067 -438.9862 -136.76147 129.20837 408.27026 551.27563 1449.3896 3163.2385 3299.8992 3299.8992 3299.8992 3299.8992 3299.8992 3299.8992 3299.8992 3299.8992 3299.8992 3299.8992 3299.8992 3299.8992 2505.011 -173.5199 -2030.3741 -3124.2644 -3109.259 -3094.4548 -3079.953 -3065.3503 -3051.0498 -3036.8499 -3022.7507 -3008.853 -2994.9553 -2981.259 -2967.6636 -2954.0679 -2728.5828 -2218.0938 -1892.4042 -1285.0342 -771.1212 -385.40955 -111.58447 264.86206 630.53284 925.6073 1892.6056 3299.8992 3299.8992 3299.8992 3299.8992 3299.8992 3299.8992 3299.8992 3299.8992 3299.8992 3299.8992 3299.8992 3299.8992 3299.8992 2155.1514 -530.8319 -2374.7954 -3127.2856 -3112.2803 -3097.577 -3082.8735 -3068.3716 -3054.1716 -3039.972 -3025.8728 -3011.8743 -2998.178 -2984.381 -2970.7854 -2736.6394 -2284.7625 

-9.970093 -9.970093 -9.970093 -9.970093 -9.970093 -9.970093 -9.970093 -9.970093 -9.970093 -9.970093 -9.970093 -9.970093 -9.970093 -9.970093 -9.970093 -9.970093 -9.970093 -9.970093 -9.970093 -9.970093 -9.970093 -9.970093 -9.970093 -9.970093 -9.970093 -9.970093 -9.970093 -9.970093 -9.970093 -9.970093 -9.970093 -9.970093 -9.970093 -9.970093 -9.970093 -9.970093 -9.970093 -9.970093 -9.970093 -9.970093 -9.970093 -9.970093 -9.970093 -9.970093 -9.970093 -9.970093 -9.970093 -9.970093 -9.970093 -9.970093 -9.970093 -9.970093 -9.970093 -9.970093 -9.970093 -9.970093 -9.970093 -9.970093 -9.970093 -9.970093 -9.970093 -9.970093 -9.970093 -9.970093 -9.970093 -9.970093 -9.970093 -9.970093 -9.970093 -9.970093 -9.970093 -9.970093 -9.970093 -9.970093 -9.970093 -9.970093 -9.970093 -9.970093 -9.970093 -9.970093 -9.970093 -9.970093 -9.970093 -9.970093 -9.970093 -9.970093 -9.970093 -9.970093 -9.970093 -9.970093 -9.970093 -9.970093 -9.970093 -9.970093 -9.970093 -9.970093 -9.970093 -9.970093 -9.970093 -9.970093 -9.970093 -9.970093 -9.970093 -9.970093 -9.970093 -9.970093 
-48.138428 -70.29419 -99.60022 -105.03845 -80.26428 -41.99524 -0.70495605 23.26355 45.620728 62.841797 51.05896 59.921265 66.16516 67.07153 58.511353 54.382324 43.807983 45.822144 36.053467 17.422485 20.544434 32.83081 44.210815 67.977905 90.43579 86.206055 88.723755 68.78357 60.22339 45.117188 52.368164 64.35242 72.20764 73.61755 70.495605 56.69861 58.20923 54.382324 51.763916 65.3595 74.2218 63.74817 33.737183 3.5247803 -30.111694 -56.900024 -83.78906 -129.71191 -165.86609 -157.00378 -158.01086 -151.06201 -136.25793 -110.37598 -77.645874 -30.010986 1.8127441 10.070801 -2.2155762 -12.789917 -37.060547 -61.23047 -48.843384 -25.680542 11.279297 29.80957 39.98108 33.9386 -4.5318604 -47.232056 -75.93384 -90.13367 -50.152588 -12.789917 13.293457 29.608154 45.41931 53.979492 66.76941 76.33667 79.35791 42.90161 3.7261963 -11.581421 -7.1502686 -15.710449 -43.40515 -59.21631 -47.131348 -54.58374 -48.54126 -11.380005 22.357178 58.10852 69.38782 71.90552 52.670288 48.44055 62.338257 72.40906 94.3634 109.67102 100.909424 90.234375 89.52942 115.512085 
-3160.62 -3145.413 -3130.307 -3115.3015 -3100.5981 -3085.8948 -3071.292 -3057.1929 -3043.0938 -1948.2971 1067.7063 3299.8992 3299.8992 3299.8992 3299.8992 3299.8992 3299.8992 3299.8992 3299.8992 3299.8992 3299.8992 3299.8992 3299.8992 3299.8992 3299.8992 3299.8992 3299.8992 3292.8496 3276.3335 -315.6189 3279.7576 3296.3745 -3287.21 -3270.7947 -3254.48 -3238.3667 -3222.4548 -3206.7444 -3191.1345 -3175.525 -3160.2173 -3145.111 -3130.005 -3114.9993 -3100.1953 -3085.492 -3070.99 -3056.1858 -3042.389 -1638.9221 1517.9718 3299.8992 3299.8992 3299.8992 3299.8992 3299.8992 3299.8992 3299.8992 3299.8992 3299.8992 3299.8992 3299.8992 3299.8992 3299.8992 3299.8992 3299.8992 3299.8992 3289.5264 3273.5137 -1230.4504 3278.3477 3295.3674 -3288.0156 -3271.4995 -3255.1848 -3239.1724 -3223.1597 -3207.4492 -3191.8396 -3176.3306 -3160.922 -3145.7153 -3130.6091 -3115.7043 -3100.7996 -3086.1968 -3071.5942 -3057.495 -3042.8923 -1589.4745 1475.5737 3299.8992 3299.8992 3299.8992 3299.8992 3299.8992 3299.8992 3299.8992 3299.8992 3299.8992 3299.8992 3299.8992 3299.8992 3299.8992 3299.8992 3299.8992 
-3189.5232 -3175.122 -3160.922 -3146.7224 -3132.8247 -3118.927 -3105.2307 -3091.635 -3075.119 -692.8711 1892.7063 3299.8992 3299.8992 3299.8992 3299.8992 3299.8992 3299.8992 3299.8992 3299.8992 3299.8992 3299.8992 3299.8992 3299.8992 3299.8992 3299.8992 3297.7844 3282.8796 3267.6726 3252.7678 -259.32312 3255.6885 3271.8018 3287.1094 3299.8992 -3282.1746 -3267.0684 -3252.063 -3237.2588 -3222.4548 -3207.953 -3193.451 -3179.0496 -3164.749 -3150.5493 -3136.6516 -3122.653 -3108.9568 -3095.462 -3081.2622 -1035.8826 1601.0559 3299.8992 3299.8992 3299.8992 3299.8992 3299.8992 3299.8992 3299.8992 3299.8992 3299.8992 3299.8992 3299.8992 3299.8992 3299.8992 3299.8992 3297.1802 3282.2754 3267.1692 3252.063 -1324.5117 3257.8032 3273.816 3289.224 3299.8992 -3280.1604 -3264.9536 -3250.0488 -3235.2446 -3220.4407 -3205.9387 -3191.4368 -3177.0354 -3162.8357 -3148.7366 -3134.738 -3120.9412 -3107.0435 -3093.5486 -3073.2056 -921.9818 1687.4634 3299.8992 3299.8992 3299.8992 3299.8992 3299.8992 3299.8992 3299.8992 3299.8992 3299.8992 3299.8992 3299.8992 3299.8992 3299.8992 3299.8992 3297.7844 
3218.628 3203.7231 3189.1204 3174.5178 3159.915 3145.6145 3131.2134 3113.4888 2318.097 353.18298 -1302.7588 -2571.3774 3127.6885 3143.8018 3159.613 3175.122 3190.631 3205.9387 3221.1455 3236.3525 3251.4587 3266.464 3281.369 3296.0723 -3289.1235 -3274.5208 -3260.0188 -3245.5168 -3231.3171 -21.954346 3299.8992 3299.8992 3299.8992 3299.8992 3299.8992 3291.339 3276.7363 3262.033 3247.0276 3232.3242 3217.52 3202.716 3188.1133 3173.41 3158.908 3144.5068 3130.307 3112.1794 2176.1992 227.7008 -1366.4062 -2611.3586 3128.4941 3144.406 3159.8145 3175.3235 3190.8325 3206.1401 3221.347 3236.4531 3251.5593 3266.565 3281.5703 3296.2737 -3289.0227 -3274.3193 -3259.9182 -3245.5168 -3231.015 419.65027 3299.8992 3299.8992 3299.8992 3299.8992 3299.8992 3289.627 3275.0244 3260.2202 3245.5168 3230.612 3215.808 3201.1047 3186.4014 3171.7986 3157.3975 3142.8955 3128.6956 3110.568 2044.6747 4.2297363 -1491.4856 -2677.725 3129.5012 3145.6145 3161.4258 3176.9348 3192.343 3207.7515 3222.9583 3238.0645 3253.1707 3268.1763 3282.9802 3297.7844 -3287.4114 -3272.8088 
-3045.108 -3030.9082 -3016.7083 -3002.8105 -2988.9128 -2975.116 -2961.5203 -2947.9248 -2934.329 -2209.8357 -624.7925 851.3855 2228.1646 3299.8992 3299.8992 3299.8992 3299.8992 3299.8992 3299.8992 3299.8992 3299.8992 3299.8992 3299.8992 3299.8992 3299.8992 3299.8992 3299.8992 3299.8992 3299.8992 2189.392 -3197.3784 -3181.5674 -3166.0583 -3150.7507 -3135.745 -3120.639 -3105.835 -3091.1316 -3076.5288 -3062.1277 -3047.8271 -3033.5266 -3019.528 -3005.5298 -2991.632 -2977.835 -2964.2395 -2950.6438 -2936.9475 -2293.6248 -598.20557 1087.6465 2556.0698 3299.8992 3299.8992 3299.8992 3299.8992 3299.8992 3299.8992 3299.8992 3299.8992 3299.8992 3299.8992 3299.8992 3299.8992 3299.8992 3299.8992 3299.8992 3299.8992 1973.2727 -3201.2053 -3185.2935 -3169.8853 -3154.6782 -3139.4714 -3124.5667 -3109.7625 -3094.9585 -3080.3557 -3065.9546 -3051.4526 -3037.3535 -3023.1536 -3009.1553 -2995.2576 -2981.4604 -2967.865 -2954.1687 -2941.0767 -2031.1798 -485.91614 1035.8826 2539.5537 3299.8992 3299.8992 3299.8992 3299.8992 3299.8992 3299.8992 3299.8992 3299.8992 3299.8992 3299.8992 3299.8992 3299.8992 3299.8992 
3170.4895 3155.081 3139.8743 3124.6672 3109.6619 3094.757 3078.4424 2914.6912 1867.63 357.2113 -789.4501 -1665.7104 -2487.8906 3086.2976 3102.008 3118.7256 3135.3423 3151.7578 3168.173 3184.2864 3200.3997 3216.4124 3232.4248 3248.236 3264.047 3279.657 3295.2666 -3289.224 -3273.6145 -422.97363 3299.8992 3299.8992 3293.2524 3278.0457 3262.6372 3246.8262 3231.8206 3216.8152 3201.5076 3186.099 3170.691 3155.3833 3140.0757 3124.9695 3109.9639 3094.9585 3078.543 2809.2498 1644.9646 304.03748 -752.49023 -1810.025 -2708.7432 3089.3188 3106.137 3122.754 3139.27 3155.7861 3172 3188.214 3204.3274 3220.4407 3236.3525 3252.063 3267.9749 3283.484 3298.993 -3285.498 -3270.5933 -99.90234 3299.8992 3299.8992 3295.166 3279.959 3264.6514 3248.639 3233.6333 3218.4265 3203.119 3187.9119 3172.5037 3157.0952 3141.687 3126.7822 3111.7766 3096.8718 3081.7656 2889.7156 1715.2588 243.61267 -900.3296 -1776.7914 -2505.313 3134.1338 3106.3384 3122.8545 3139.572 3156.0881 3172.4028 3188.4155 3204.7302 3220.5413 3236.4531 3252.4658 3267.9749 3283.8867 
-3013.4856 -2999.588 -2985.8916 -2972.1953 -2867.0562 -2563.3208 -2139.8438 -1664.3005 -1312.326 -965.38696 -661.1481 -372.51892 -152.37122 201.61743 635.0647 1867.7307 3299.8992 3299.8992 3299.8992 3299.8992 3299.8992 3299.8992 3299.8992 3299.8992 3299.8992 3299.8992 3299.8992 3299.8992 3299.8992 1737.3138 -456.20728 -2013.4552 -3084.384 -3105.13 -3093.4478 -3080.96 -3066.2566 -3048.9348 -2898.477 -2696.9604 -2503.601 -2369.9614 -2292.517 -2033.0933 -1583.1299 -1084.021 -812.6129 -269.39392 244.51904 755.00793 985.73 1053.2043 1223.9044 1334.3811 1751.3123 2897.2686 3299.8992 3299.8992 3299.8992 3299.8992 3299.8992 3299.8992 3299.8992 3299.8992 3299.8992 3299.8992 3299.8992 3299.8992 2712.973 -86.60889 -2530.49 -2750.3357 -2829.4922 -2878.134 -2962.9302 -3079.953 -3093.5486 -3081.3628 -3064.746 -3045.9136 -3005.0261 -2965.1458 -2931.8115 -2887.5 -2890.4204 -2891.0247 -2898.7793 -2525.4546 -1992.9108 -1537.8113 -1013.02185 -594.6808 -153.78113 300.21057 956.52466 2444.3848 3299.8992 3299.8992 3299.8992 3299.8992 3299.8992 3299.8992 3299.8992 3299.8992 3299.8992 3299.8992 

-9.970093 -9.970093 -9.970093 -9.970093 -9.970093 -9.970093 -9.970093 -9.970093 -9.970093 -9.970093 -9.970093 -9.970093 -9.970093 -9.970093 -9.970093 -9.970093 -9.970093 -9.970093 -9.970093 -9.970093 -9.970093 -9.970093 -9.970093 -9.970093 -9.970093 -9.970093 -9.970093 -9.970093 -9.970093 -9.970093 -9.970093 -9.970093 -9.970093 -9.970093 -9.970093 -9.970093 -9.970093 -9.970093 -9.970093 -9.970093 -9.970093 -9.970093 -9.970093 -9.970093 -9.970093 -9.970093 -9.970093 -9.970093 -9.970093 -9.970093 -9.970093 -9.970093 -9.970093 -9.970093 -9.970093 -9.970093 -9.970093 -9.970093 -9.970093 -9.970093 -9.970093 -9.970093 -9.970093 -9.970093 -9.970093 -9.970093 -9.970093 -9.970093 -9.970093 -9.970093 -9.970093 -9.970093 -9.970093 -9.970093 -9.970093 -9.970093 -9.970093 -9.970093 -9.970093 -9.970093 -9.970093 -9.970093 -9.970093 -9.970093 -9.970093 -9.970093 -9.970093 -9.970093 -9.970093 -9.970093 -9.970093 -9.970093 -9.970093 -9.970093 -9.970093 -9.970093 -9.970093 -9.970093 -9.970093 -9.970093 -9.970093 -9.970093 -9.970093 -9.970093 -9.970093 -9.970093 -9.970093 -9.970093 -9.970093 -9.970093 -9.970093 -9.970093 -9.970093 -9.970093 -9.970093 -9.970093 -9.970093 -9.970093 -9.970093 -9.970093 -9.970093 -9.970093 -9.970093 -9.970093 -9.970093 -9.970093 -9.970093 -9.970093 -9.970093 -9.970093 -9.970093 -9.970093 -9.970093 -9.970093 -9.970093 -9.970093 -9.970093 -9.970093 -9.970093 -9.970093 -9.970093 -9.970093 -9.970093 -9.970093 -9.970093 -9.970093 -9.970093 -9.970093 -9.970093 -9.970093 -9.970093 -9.970093 -9.970093 -9.970093 -9.970093 -9.970093 -9.970093 -9.970093 -9.970093 -9.970093 -9.970093 -9.970093 -9.970093 -9.970093 -9.970093 -9.970093 -9.970093 -9.970093 -9.970093 -9.970093 -9.970093 -9.970093 -9.970093 -9.970093 -9.970093 -9.970093 -9.970093 -9.970093 -9.970093 -9.970093 -9.970093 -9.970093 -9.970093 -9.970093 -9.970093 -9.970093 -9.970093 -9.970093 -9.970093 -9.970093 -9.970093 -9.970093 -9.970093 -9.970093 -9.970093 -9.970093 -9.970093 -9.970093 -9.970093 -9.970093 
112.490845 81.37207 48.843384 -4.7332764 -46.325684 -100.6073 -126.690674 -102.21863 -65.76233 -34.84497 -11.480713 9.567261 53.274536 98.0896 122.66235 120.64819 95.67261 94.46411 93.0542 70.19348 63.64746 30.111694 -13.192749 -37.564087 -78.85437 -127.29492 -204.43726 -226.49231 -209.27124 -181.47583 -174.22485 -164.35547 -148.84644 -141.49475 -150.45776 -136.56006 -136.66077 -124.072266 -103.930664 -92.65137 -73.91968 -63.74817 -51.663208 -15.509033 25.378418 46.325684 51.05896 70.3949 87.31384 103.125 117.62695 121.051025 106.8512 101.815796 88.723755 64.55383 28.80249 5.3375244 -12.084961 -27.392578 -65.963745 -73.21472 -58.20923 -73.516846 -71.20056 -46.92993 -21.75293 -21.148682 -8.358765 -3.0212402 -7.0495605 -22.457886 -38.571167 -36.053467 -24.975586 5.0354004 22.659302 22.76001 36.053467 49.95117 72.20764 85.5011 99.70093 116.922 150.55847 185.50415 195.57495 188.82751 166.47034 120.7489 69.488525 0.80566406 -15.307617 28.500366 69.68994 103.125 118.13049 102.822876 72.81189 20.141602 -5.3375244 -26.687622 -18.630981 -12.991333 -17.422485 3.4240723 55.993652 96.8811 100.40588 83.184814 47.836304 10.070801 9.164429 35.34851 55.389404 10.171509 -98.89526 -219.03992 -257.00684 -257.61108 -267.17834 -264.76135 -259.32312 -239.58435 -190.64026 -142.50183 -104.53491 -85.80322 -74.12109 -60.324097 -50.454712 -23.464966 27.090454 62.23755 108.66394 168.88733 192.15088 234.14612 273.42224 265.3656 245.92896 199.60327 140.68909 97.283936 23.364258 -36.557007 -128.70483 -156.90308 -141.59546 -143.00537 -181.57654 -210.88257 -226.2909 -210.68115 -186.41052 -145.22095 -96.276855 -69.08569 -41.088867 -19.940186 -23.666382 -18.127441 -11.279297 22.25647 45.822144 49.850464 56.295776 75.531006 105.6427 158.5144 192.85583 231.427 223.37036 197.68982 151.66626 116.519165 41.39099 -13.595581 -41.592407 -61.6333 -83.78906 -120.95032 -114.4043 -137.36572 -173.92273 -186.2091 -190.53955 -179.05884 -136.96289 -72.006226 -25.680542 7.3516846 10.675049 41.693115 111.38306 203.32947 241.19568 249.95728 266.7755 274.3286 
3299.8992 3288.5193 3272.3052 -2122.4211 3279.959 3296.576 -3287.0085 -3270.6938 -3254.3792 -3238.2659 -3222.354 -3206.4421 -3190.933 -3175.424 -3160.1165 -3144.8088 -3129.8035 -3114.7979 -3100.0945 -3085.391 -3070.8892 -3056.0852 -3042.288 -1434.3842 1863.7024 3299.8992 3299.8992 3299.8992 3299.8992 3299.8992 3299.8992 3299.8992 3299.8992 3299.8992 3299.8992 3299.8992 3299.8992 3299.8992 3299.8992 3299.8992 3299.8992 3287.21 3270.996 -3215.6067 3281.2683 3298.2878 -3284.9944 -3268.6797 -3252.4658 -3236.6545 -3220.3398 -3204.6294 -3189.1204 -3173.5107 -3158.2031 -3143.097 -3128.1921 -3113.086 -3098.2817 -3083.6792 -3069.0764 -3054.9773 -2711.563 -2148.3032 530.5298 3299.8992 3299.8992 3299.8992 3299.8992 3299.8992 3299.8992 3299.8992 3299.8992 3299.8992 3299.8992 3299.8992 3299.8992 3299.8992 3299.8992 3299.8992 3299.8992 3299.8992 3283.6853 3279.0527 3296.2737 -3286.908 -3270.1904 -3253.9763 -3237.7625 -3221.7498 -3205.9387 -3190.3289 -3174.7192 -3159.4116 -3144.104 -3129.0984 -3114.1936 -3099.2888 -3084.5854 -3070.0835 -3055.5815 -3041.6838 -3021.643 -475.3418 2694.1406 3299.8992 3299.8992 3299.8992 3299.8992 3299.8992 3299.8992 3299.8992 3299.8992 3299.8992 3299.8992 3299.8992 3299.8992 3299.8992 3299.8992 3299.8992 3299.8992 3292.4468 3275.7292 3273.2117 3290.332 -3293.051 -3276.6357 -3260.4216 -3244.3083 -3228.0945 -3212.384 -3196.5728 -3181.0637 -3165.5547 -3150.4485 -3135.2417 -3120.337 -3105.4321 -3090.628 -3076.0254 -3061.5234 -3046.9207 -3033.023 -646.7468 2485.1714 3299.8992 3299.8992 3299.8992 3299.8992 3299.8992 3299.8992 3299.8992 3299.8992 3299.8992 3299.8992 3299.8992 3299.8992 3299.8992 3299.8992 3299.8992 3299.8992 3289.325 3272.6074 3272.406 3289.5264 -3293.6553 -3276.9377 -3260.623 -3244.4092 -3228.3965 -3212.5854 -3196.7742 -3181.366 -3165.857 -3150.5493 -3135.443 -3120.4375 -3105.6335 -3090.9302 -3076.3274 -3061.7249 -3047.7263 -3030.7068 -855.1117 2229.776 3299.8992 3299.8992 3299.8992 3299.8992 3299.8992 3299.8992 3299.8992 3299.8992 3299.8992 3299.8992 3299.8992 3299.8992 3299.8992 3299.8992 3299.8992 
3282.8796 3267.6726 3252.5664 -2069.751 3260.2202 3275.7292 3291.641 3299.8992 -3277.8442 -3262.738 -3247.7324 -3232.9285 -3218.3257 -3203.7231 -3189.2212 -3174.9207 -3160.7207 -3146.521 -3132.5225 -3118.6248 -3104.9285 -3091.1316 -3004.5227 -863.974 1657.9559 3299.8992 3299.8992 3299.8992 3299.8992 3299.8992 3299.8992 3299.8992 3299.8992 3299.8992 3299.8992 3299.8992 3299.8992 3299.8992 3299.8992 3299.7986 3284.793 3269.5862 3254.3792 -2905.5266 3264.148 3279.657 3295.468 -3289.1235 -3273.9165 -3258.9111 -3243.9055 -3229.1016 -3214.3982 -3199.8962 -3185.3943 -3171.0938 -3156.8938 -3142.8955 -3128.897 -3114.9993 -3101.2024 -3087.4053 -2848.6267 -308.67004 2398.8647 3299.8992 3299.8992 3299.8992 3299.8992 3299.8992 3299.8992 3299.8992 3299.8992 3299.8992 3299.8992 3299.8992 3299.8992 3299.8992 3299.8992 3296.6765 3281.8726 3267.0684 3251.358 3247.0276 3263.2415 3278.7505 3294.5618 -3290.1306 -3274.9236 -3259.8174 -3245.0134 -3230.1086 -3215.4053 -3200.8025 -3186.502 -3172.1008 -3157.901 -3143.9026 -3129.904 -3116.0063 -3102.31 -3088.4124 -2656.375 1.0070801 2457.8796 3299.8992 3299.8992 3299.8992 3299.8992 3299.8992 3299.8992 3299.8992 3299.8992 3299.8992 3299.8992 3299.8992 3299.8992 3299.8992 3299.8992 3293.5547 3278.65 3263.8457 3248.0347 3246.0205 3262.2344 3277.7434 3293.4539 3299.8992 -3275.9307 -3260.8245 -3245.9197 -3231.1157 -3216.4124 -3201.9104 -3187.4084 -3173.108 -3158.908 -3144.8088 -3130.8105 -3117.0134 -3103.1157 -3089.3188 -2787.2954 -354.19006 2218.698 3299.8992 3299.8992 3299.8992 3299.8992 3299.8992 3299.8992 3299.8992 3299.8992 3299.8992 3299.8992 3299.8992 3299.8992 3299.8992 3299.8992 3295.468 3280.5632 3265.8599 3249.7466 3250.2502 3266.2627 3281.6711 3297.3816 -3287.21 -3271.9023 -3256.897 -3241.9922 -3227.2888 -3212.5854 -3198.184 -3183.6821 -3169.3816 -3155.2825 -3141.1833 -3127.185 -3113.2874 -3099.591 -3085.794 -2390.5059 181.27441 2580.542 3299.8992 3299.8992 3299.8992 3299.8992 3299.8992 3299.8992 3299.8992 3299.8992 3299.8992 3299.8992 3299.8992 3299.8992 3299.8992 3299.8992 3293.8567 
-3258.307 -3243.805 -3229.7058 669.3054 3299.8992 3299.8992 3299.8992 3299.8992 3299.8992 3290.2312 3275.5278 3260.8245 3246.0205 3231.1157 3216.4124 3201.6082 3187.0056 3172.3022 3157.8003 3143.4998 3129.0984 3109.1582 1944.9738 30.514526 -1507.196 -2764.1326 3130.9111 3146.7224 3161.9292 3177.539 3192.9473 3208.3557 3223.462 3238.6687 3253.775 3268.6797 3283.6853 3298.3887 -3286.908 -3272.2046 -3257.8032 -3243.402 -3228.9001 1520.2881 3299.8992 3299.8992 3299.8992 3299.8992 3299.8992 3287.5122 3272.9094 3258.1055 3243.3013 3228.598 3213.5925 3198.8892 3184.3872 3169.6838 3155.182 3140.7805 3126.3794 3105.0293 1826.4404 -99.3988 -1623.9166 -2904.419 3130.8105 3146.823 3162.6343 3178.1433 3193.6523 3208.96 3224.1667 3239.273 3254.3792 3269.3848 3284.1887 3298.993 -3286.3037 -3271.701 -3257.199 -3242.697 -3228.598 1988.1775 3299.8992 3299.8992 3299.8992 3299.8992 3299.8992 3286.5051 3271.8018 3257.0984 3242.1936 3227.3894 3212.686 3197.882 3183.2793 3168.7773 3154.1748 3139.7734 3125.473 2996.6675 1483.7311 -335.15625 -1756.9519 -3006.7383 3133.5295 3149.5422 3165.3533 3180.7617 3196.2708 3211.5784 3226.7852 3241.8914 3256.9976 3271.9023 3286.908 3299.8992 -3283.6853 -3269.0825 -3254.6814 -3240.1794 -3226.181 2512.0605 3299.8992 3299.8992 3299.8992 3299.8992 3299.8992 3286.5051 3271.9023 3256.9976 3242.1936 3227.3894 3212.686 3197.9827 3183.2793 3168.6768 3154.1748 3139.9749 3125.3723 3013.9893 1572.1527 -289.1327 -1756.247 -3005.3284 3133.3281 3149.3408 3165.0513 3180.5603 3195.9685 3211.2761 3226.4832 3241.5894 3256.6956 3271.701 3286.5051 3299.8992 -3283.9873 -3269.3848 -3254.8828 -3240.5823 -3210.3699 3101.1016 3299.8992 3299.8992 3299.8992 3299.8992 3298.993 3284.491 3269.7876 3254.8828 3240.28 3225.5767 3210.8733 3196.0693 3181.5674 3166.9646 3152.4626 3138.263 3123.6602 2863.0278 1698.1384 -80.96924 -1484.436 -2706.5276 -3206.7444 -3286.7065 3159.3108 3174.9207 3190.3289 3205.7373 3220.944 3236.0503 3251.1565 3266.162 3281.067 3295.8708 -3289.4255 -3274.823 
3299.8992 3299.8992 3299.8992 1349.0845 -3202.6152 -3186.8042 -3171.2952 -3156.0881 -3140.982 -3125.8757 -3111.0718 -3096.469 -3081.8665 -3067.3645 -3052.9631 -3038.7634 -3024.5635 -3010.6658 -2996.6675 -2982.8704 -2969.174 -2955.5786 -2941.983 -2030.6763 -519.2505 945.4468 2439.2485 3299.8992 3299.8992 3299.8992 3299.8992 3299.8992 3299.8992 3299.8992 3299.8992 3299.8992 3299.8992 3299.8992 3299.8992 3299.8992 3299.8992 3299.8992 3299.8992 1006.67725 -3201.2053 -3185.4949 -3170.0867 -3154.779 -3139.6729 -3124.6672 -3109.8633 -3095.059 -3080.5571 -3066.156 -3051.7546 -3037.555 -3023.4558 -3009.3567 -2995.459 -2981.5613 -2968.0664 -2954.37 -2940.6738 -2233.2 -716.6382 848.46497 2252.8381 3299.8992 3299.8992 3299.8992 3299.8992 3299.8992 3299.8992 3299.8992 3299.8992 3299.8992 3299.8992 3299.8992 3299.8992 3299.8992 3299.8992 3299.8992 3299.8992 471.91772 -3194.5586 -3178.949 -3163.44 -3148.233 -3133.1267 -3118.1213 -3103.3171 -3088.7146 -3074.1118 -3059.7107 -3045.3093 -3031.2102 -3017.212 -3003.2134 -2989.215 -2975.6194 -2961.923 -2948.3276 -2935.1348 -2110.739 -606.56433 860.4492 2336.9292 3299.8992 3299.8992 3299.8992 3299.8992 3299.8992 3299.8992 3299.8992 3299.8992 3299.8992 3299.8992 3299.8992 3299.8992 3299.8992 3299.8992 3299.8992 3299.8992 -210.0769 -3187.509 -3171.8994 -3156.491 -3141.2842 -3126.178 -3111.2732 -3096.5698 -3081.967 -3067.3645 -3053.064 -3038.6626 -3024.5635 -3010.5652 -2996.6675 -2982.7698 -2968.9727 -2955.4778 -2941.8823 -2790.3167 -1186.6425 412.80212 1756.5491 3072.8027 3299.8992 3299.8992 3299.8992 3299.8992 3299.8992 3299.8992 3299.8992 3299.8992 3299.8992 3299.8992 3299.8992 3299.8992 3299.8992 3299.8992 3299.8992 3299.8992 -634.7626 -3196.4722 -3180.7617 -3165.3533 -3150.1465 -3135.1409 -3119.934 -3105.3313 -3090.5273 -3076.126 -3061.624 -3047.3235 -3033.2244 -3019.0247 -3005.0261 -2991.1284 -2977.4321 -2963.8367 -2950.1404 -2886.6943 -1490.8813 101.412964 1345.8618 2704.2114 3299.8992 3299.8992 3299.8992 3299.8992 3299.8992 3299.8992 3299.8992 3299.8992 3299.8992 3299.8992 3299.8992 3299.8992 3299.8992 
3299.3958 -3285.1958 -3270.291 299.4049 3299.8992 3299.8992 3293.4539 3278.1462 3262.9395 3246.8262 3231.9214 3216.8152 3201.6082 3185.9985 3170.691 3155.2825 3140.0757 3125.07 3109.9639 3094.9585 3079.7515 2849.7344 1707.4036 228.8086 -860.65063 -1791.5955 -2580.9448 3102.2095 3105.3313 3121.8474 3138.6658 3154.9805 3171.2952 3187.6099 3203.6223 3219.5342 3235.5469 3251.358 3267.1692 3282.7788 3298.4893 -3286.1023 -3270.7947 546.54236 3299.8992 3299.8992 3290.8354 3275.6287 3260.2202 3244.5098 3229.5044 3214.3982 3199.0906 3183.6821 3168.274 3152.9663 3137.6587 3122.5525 3107.5469 3092.8435 3074.9175 2695.8525 1419.1772 -7.3516846 -1159.6527 -2083.5479 -2919.1223 3094.052 3110.7695 3127.3865 3144.0032 3160.4187 3176.7334 3192.8467 3208.8591 3224.8718 3240.7837 3256.5947 3272.3052 3288.0156 3299.8992 -3281.1675 -3265.5579 1056.7291 3299.8992 3299.8992 3293.2524 3278.0457 3262.6372 3246.9268 3231.9214 3216.7144 3201.4067 3185.8977 3170.4895 3154.9805 3139.8743 3124.768 3109.8633 3094.9585 3076.6296 2622.4365 1332.8705 -76.034546 -1122.0886 -1906.3019 -2670.474 3094.8577 3111.5752 3128.1921 3144.8088 3161.2244 3177.539 3193.6523 3209.7656 3225.6775 3241.69 3257.2998 3273.2117 3288.7207 3299.8992 -3280.2612 -3261.3281 1611.8317 3299.8992 3299.8992 3291.8425 3276.535 3261.1267 3245.4163 3230.31 3215.2039 3199.7954 3184.3872 3169.0796 3153.772 3138.565 3123.4587 3108.554 3093.4478 3078.9458 2876.3213 1832.1808 573.23 -515.22217 -1485.6445 -2178.3142 -3139.8743 3240.28 3117.1143 3133.8318 3150.247 3166.5618 3182.776 3198.8892 3215.103 3230.9143 3246.8262 3262.6372 3278.247 3293.8567 -3290.7349 -2834.6282 505.6549 3299.8992 3299.8992 3287.4114 3272.2046 3256.9976 3241.1865 3226.2817 3211.1755 3195.767 3180.258 3164.8499 3149.6428 3134.436 3119.229 3104.3242 3086.5996 3034.1309 2154.7485 599.8169 -684.71375 -1537.5092 -2247.6013 -2958.3984 3103.3171 3119.934 3136.5508 3153.067 3169.281 3185.4949 3201.709 3217.8223 3233.7341 3249.5452 3265.3564 3280.8655 3296.6765 
3299.8992 3299.8992 3299.8992 965.9912 -1265.799 -2864.1357 -3127.487 -3112.5823 -3097.9797 -3083.377 -3068.875 -3054.6753 -3040.5762 -3026.5776 -3012.5793 -2998.7822 -2984.9854 -2910.562 -2462.1094 -1916.3727 -1464.4958 -1120.4773 -589.6454 -312.39624 -31.924438 246.33179 493.87207 817.2455 1359.6588 2786.3892 3299.8992 3299.8992 3299.8992 3299.8992 3299.8992 3299.8992 3299.8992 3299.8992 3299.8992 3299.8992 3299.8992 3299.8992 3295.0652 793.4784 -1468.0206 -3159.3108 -3144.3054 -3129.2998 -3114.5964 -3099.893 -3085.391 -3071.1914 -3056.8909 -3042.7917 -3028.7932 -3014.795 -3000.9978 -2987.3015 -2725.9644 -2236.0198 -1792.804 -1350.5951 -856.5216 -625.3967 -341.80298 64.25171 252.37427 488.43384 954.00696 2395.642 3299.8992 3299.8992 3299.8992 3299.8992 3299.8992 3299.8992 3299.8992 3299.8992 3299.8992 3299.8992 3299.8992 3299.8992 3165.5547 652.4872 -1427.6367 -3144.3054 -3142.0898 -3127.185 -3112.5823 -3097.9797 -3083.4778 -3068.9758 -3054.776 -3040.5762 -3026.6785 -3012.7808 -2999.0845 -2975.7202 -2572.9888 -2037.1216 -1518.8782 -1232.666 -687.33215 -272.9187 -21.148682 155.59387 454.39453 627.713 1174.6582 2675.711 3299.8992 3299.8992 3299.8992 3299.8992 3299.8992 3299.8992 3299.8992 3299.8992 3299.8992 3299.8992 3299.8992 3299.8992 3049.7405 311.59058 -1759.1675 -3162.4329 -3147.3267 -3132.4219 -3117.7185 -3103.2166 -3088.6138 -3074.2126 -3059.912 -3045.9136 -3031.8145 -3017.9167 -3004.1199 -2988.6108 -2558.5876 -2084.4543 -1732.2784 -1349.4873 -879.48303 -431.4331 20.846558 194.06433 388.4308 523.1781 1080.899 2556.372 3299.8992 3299.8992 3299.8992 3299.8992 3299.8992 3299.8992 3299.8992 3299.8992 3299.8992 3299.8992 3299.8992 3299.8992 2892.2332 186.91406 -1859.2712 -3161.2244 -3146.0173 -3131.2134 -3116.51 -3101.8066 -3087.4053 -3073.1047 -3058.8042 -3044.705 -3030.8074 -3016.9097 -3003.012 -2989.3157 -2674.301 -2260.089 -1762.9944 -1561.4777 -1079.892 -588.3362 -153.78113 295.578 610.8948 821.3745 1558.255 3089.3188 3299.8992 3299.8992 3299.8992 3299.8992 3299.8992 3299.8992 3299.8992 3299.8992 3299.8992 3299.8992 

-9.970093 -9.970093 -9.970093 -9.970093 -9.970093 -9.970093 -9.970093 -9.970093 -9.970093 -9.970093 -9.970093 -9.970093 -9.970093 -9.970093 -9.970093 -9.970093 -9.970093 -9.970093 -9.970093 -9.970093 -9.970093 -9.970093 -9.970093 -9.970093 -9.970093 -9.970093 -9.970093 -9.970093 -9.970093 -9.970093 -9.970093 -9.970093 -9.970093 -9.970093 -9.970093 -9.970093 -9.970093 -9.970093 -9.970093 -9.970093 -9.970093 -9.970093 -9.970093 -9.970093 -9.970093 -9.970093 -9.970093 -9.970093 -9.970093 -9.970093 -9.970093 -9.970093 -9.970093 -9.970093 -9.970093 -9.970093 -9.970093 -9.970093 -9.970093 -9.970093 -9.970093 -9.970093 -9.970093 -9.970093 -9.970093 -9.970093 -9.970093 -9.970093 -9.970093 -9.970093 -9.970093 -9.970093 -9.970093 -9.970093 -9.970093 -9.970093 -9.970093 -9.970093 -9.970093 -9.970093 -9.970093 -9.970093 -9.970093 -9.970093 -9.970093 -9.970093 -9.970093 -9.970093 -9.970093 -9.970093 -9.970093 -9.970093 -9.970093 -9.970093 -9.970093 -9.970093 -9.970093 -9.970093 -9.970093 -9.970093 -9.970093 -9.970093 -9.970093 -9.970093 -9.970093 -9.970093 -9.970093 -9.970093 -9.970093 -9.970093 -9.970093 -9.970093 -9.970093 -9.970093 -9.970093 -9.970093 -9.970093 -9.970093 -9.970093 -9.970093 -9.970093 -9.970093 -9.970093 -9.970093 -9.970093 -9.970093 -9.970093 -9.970093 -9.970093 -9.970093 -9.970093 -9.970093 -9.970093 -9.970093 -9.970093 -9.970093 -9.970093 -9.970093 -9.970093 -9.970093 -9.970093 -9.970093 -9.970093 -9.970093 -9.970093 -9.970093 -9.970093 -9.970093 -9.970093 -9.970093 -9.970093 -9.970093 -9.970093 -9.970093 -9.970093 -9.970093 -9.970093 -9.970093 -9.970093 -9.970093 -9.970093 -9.970093 -9.970093 -9.970093 -9.970093 -9.970093 -9.970093 -9.970093 -9.970093 -9.970093 -9.970093 -9.970093 -9.970093 -9.970093 -9.970093 -9.970093 -9.970093 -9.970093 -9.970093 -9.970093 -9.970093 -9.970093 -9.970093 -9.970093 -9.970093 -9.970093 -9.970093 -9.970093 -9.970093 -9.970093 -9.970093 -9.970093 -9.970093 -9.970093 -9.970093 -9.970093 -9.970093 -9.970093 -9.970093 -9.970093 -9.970093 -9.970093 -9.970093 -9.970093 -9.970093 -9.970093 -9.970093 -9.970093 -9.970093 -9.970093 -9.970093 -9.970093 -9.970093 -9.970093 -9.970093 -9.970093 -9.970093 -9.970093 -9.970093 -9.970093 
246.5332 205.94788 143.71033 82.88269 46.728516 15.609741 -13.092041 -46.728516 -85.90393 -109.469604 -134.74731 -151.76697 -177.54822 -180.97229 -185.50415 -183.18787 -187.21619 -185.30273 -156.70166 -143.4082 -105.13916 -56.799316 -11.782837 14.199829 26.78833 61.73401 78.048706 63.546753 38.974 -10.574341 -64.65454 -134.14307 -151.56555 -105.84412 -44.0094 -1.6113281 6.8481445 19.73877 31.723022 36.053467 36.557007 35.147095 31.420898 11.984253 -14.602661 -27.29187 -29.205322 -36.154175 -30.010986 -12.991333 -19.73877 -22.961426 35.549927 92.95349 148.3429 197.68982 234.24683 249.85657 277.7527 262.34436 263.25073 225.78735 182.18079 112.28943 29.003906 -66.06445 -139.17847 -163.04626 -157.40662 -164.7583 -186.1084 -164.55688 -144.31458 -128.10059 -99.19739 -58.61206 -33.9386 -3.5247803 12.084961 9.970093 21.551514 13.998413 -2.1148682 5.2368164 18.328857 45.318604 71.502686 82.78198 87.11243 62.23755 48.03772 67.8772 67.67578 67.57507 54.483032 28.701782 -13.293457 -74.12109 -139.98413 -210.27832 -207.15637 -183.79211 -138.07068 -80.56641 -35.147095 -1.6113281 5.9417725 20.645142 43.606567 63.043213 54.785156 60.928345 47.43347 15.005493 -18.933105 -17.321777 -17.019653 -4.1290283 0.70495605 -43.50586 -41.793823 -49.649048 -67.07153 -82.27844 -86.60889 -54.483032 -31.82373 -1.2084961 9.768677 9.063721 0.80566406 35.650635 72.509766 101.11084 99.70093 91.04004 98.0896 109.67102 92.65137 66.87012 6.4453125 -39.98108 -47.332764 -46.627808 -50.756836 -56.295776 -45.41931 -27.29187 -25.076294 -36.053467 -58.10852 -50.454712 -31.521606 -15.408325 15.911865 37.664795 48.843384 56.09436 69.08569 75.22888 85.80322 90.83862 94.262695 96.8811 76.638794 63.949585 68.38074 91.14075 89.227295 76.638794 72.61047 66.970825 85.198975 73.41614 100.10376 120.64819 111.38306 47.735596 -6.8481445 -34.44214 2.2155762 54.785156 76.23596 47.634888 -23.464966 -68.984985 -98.69385 -88.62305 -46.92993 -40.48462 -77.24304 -105.03845 -118.029785 -129.30908 -173.01636 -208.86841 -237.26807 -245.12329 -239.38293 -223.16895 -188.22327 -161.13281 -137.86926 -89.93225 -46.627808 -18.933105 -6.7474365 10.372925 2.8198242 4.1290283 15.911865 20.544434 13.897705 29.507446 39.578247 51.461792 35.751343 19.23523 10.675049 7.1502686 
3299.8992 3290.332 3273.715 3275.2258 3292.2454 -3290.9363 -3274.2188 -3257.904 -3241.7908 -3225.879 -3209.967 -3194.2566 -3178.6467 -3163.339 -3148.0315 -3132.9253 -3118.0205 -3103.1157 -3088.4124 -3073.8098 -3059.4084 -3045.3093 -2959.506 -374.7345 2639.9597 3299.8992 3299.8992 3299.8992 3299.8992 3299.8992 3299.8992 3299.8992 3299.8992 3299.8992 3299.8992 3299.8992 3299.8992 3299.8992 3299.8992 3299.8992 3299.8992 3288.7207 3268.7805 3276.0315 3292.9504 -3290.2312 -3273.6145 -3257.199 -3241.0857 -3225.1738 -3209.262 -3193.5515 -3178.0425 -3162.6343 -3147.4272 -3132.4219 -3117.3157 -3102.5115 -3087.7075 -3073.2056 -3058.8042 -3044.705 -2802.2002 -222.06116 2799.0784 3299.8992 3299.8992 3299.8992 3299.8992 3299.8992 3299.8992 3299.8992 3299.8992 3299.8992 3299.8992 3299.8992 3299.8992 3299.8992 3299.8992 3299.8992 3299.8992 3287.21 3177.841 3277.3406 3294.3604 -3288.8213 -3272.2046 -3255.89 -3239.7766 -3223.8647 -3207.953 -3192.2424 -3176.834 -3161.4258 -3146.2188 -3131.1125 -3116.2078 -3101.303 -3086.5996 -3072.0977 -3057.5957 -3043.5974 -2837.5488 -157.10449 2953.7659 3299.8992 3299.8992 3299.8992 3299.8992 3299.8992 3299.8992 3299.8992 3299.8992 3299.8992 3299.8992 3299.8992 3299.8992 3299.8992 3299.8992 3299.8992 3299.8992 3287.915 2899.887 3280.2612 3297.1802 -3286.3037 -3269.989 -3253.6743 -3237.6616 -3221.6492 -3205.838 -3190.2283 -3174.6184 -3159.3108 -3144.104 -3129.0984 -3114.093 -3099.3896 -3084.5854 -3070.0835 -3055.5815 -3040.979 -2632.306 279.46472 3299.8992 3299.8992 3299.8992 3299.8992 3299.8992 3299.8992 3299.8992 3299.8992 3299.8992 3299.8992 3299.8992 3299.8992 3299.8992 3299.8992 3299.8992 3299.8992 3299.8992 3285.6995 2366.6382 3280.4626 3297.3816 -3285.8 -3269.284 -3252.9692 -3236.7554 -3220.944 -3205.133 -3189.5232 -3173.9136 -3158.5051 -3143.399 -3128.2927 -3113.388 -3098.584 -3083.9812 -3069.4792 -3054.9773 -3040.979 -2454.3547 503.33862 3299.8992 3299.8992 3299.8992 3299.8992 3299.8992 3299.8992 3299.8992 3299.8992 3299.8992 3299.8992 3299.8992 3299.8992 3299.8992 3299.8992 3299.8992 3299.8992 3299.8992 3284.2896 1784.848 3281.067 3298.0864 -3285.1958 -3268.6797 -3252.365 -3236.2517 -3220.3398 -3204.6294 -3188.919 -3173.41 -3158.1023 -3142.7947 -3127.7893 -3112.8845 -3098.0803 -3083.377 -3068.875 
3278.8513 3264.148 3247.4304 3250.3508 3266.3635 3281.7717 3297.583 -3287.21 -3271.9023 -3256.9976 -3241.9922 -3227.188 -3212.5854 -3198.0835 -3183.5815 -3169.3816 -3155.081 -3141.0828 -3127.185 -3113.2874 -3099.4902 -3085.6934 -2411.856 31.018066 2411.7554 3299.8992 3299.8992 3299.8992 3299.8992 3299.8992 3299.8992 3299.8992 3299.8992 3299.8992 3299.8992 3299.8992 3299.8992 3299.8992 3299.8992 3295.166 3280.2612 3265.457 3169.8853 3254.3792 3270.3918 3286.3037 3299.8992 -3283.081 -3267.874 -3252.9692 -3238.0645 -3223.361 -3208.6577 -3194.1558 -3179.7546 -3165.6555 -3151.355 -3137.2559 -3123.3582 -3109.561 -3095.7642 -3082.672 -2017.7856 568.89954 2972.7996 3299.8992 3299.8992 3299.8992 3299.8992 3299.8992 3299.8992 3299.8992 3299.8992 3299.8992 3299.8992 3299.8992 3299.8992 3299.8992 3299.8992 3292.749 3277.9448 3262.6372 2900.0884 3254.3792 3270.4924 3286.3037 3299.8992 -3283.1816 -3268.0754 -3253.07 -3238.1653 -3223.361 -3208.7585 -3194.2566 -3179.956 -3165.6555 -3151.5564 -3137.4573 -3123.5596 -3109.7625 -3095.9656 -3082.672 -2104.495 632.8491 3114.7979 3299.8992 3299.8992 3299.8992 3299.8992 3299.8992 3299.8992 3299.8992 3299.8992 3299.8992 3299.8992 3299.8992 3299.8992 3299.8992 3299.8992 3292.4468 3277.542 3262.2344 2469.8638 3256.3933 3272.2046 3288.1165 3299.8992 -3281.369 -3266.162 -3251.1565 -3236.3525 -3221.5483 -3206.9458 -3192.4438 -3178.1433 -3163.8428 -3149.7437 -3135.6445 -3121.7468 -3108.0505 -3094.2534 -3080.96 -1941.8518 789.34937 3299.8992 3299.8992 3299.8992 3299.8992 3299.8992 3299.8992 3299.8992 3299.8992 3299.8992 3299.8992 3299.8992 3299.8992 3299.8992 3299.8992 3299.8992 3292.044 3277.1392 3261.8315 1951.6205 3257.904 3274.0173 3289.7278 3299.8992 -3279.7576 -3264.6514 -3249.646 -3234.7412 -3220.0378 -3205.435 -3191.034 -3176.6326 -3162.4329 -3148.1323 -3134.2346 -3120.337 -3106.5398 -3092.8435 -3079.55 -1673.3643 940.4114 3299.8992 3299.8992 3299.8992 3299.8992 3299.8992 3299.8992 3299.8992 3299.8992 3299.8992 3299.8992 3299.8992 3299.8992 3299.8992 3299.8992 3299.8992 3291.742 3276.7363 3261.4287 1549.1913 3259.0117 3274.9236 3290.2312 3299.8992 -3278.8513 -3263.6443 -3248.538 -3233.8347 -3219.1313 -3204.5288 -3190.0269 -3175.7263 -3161.4258 -3147.3267 -3133.3281 -3119.4304 -3105.6335 
-3260.2202 -3246.0205 -2819.0186 2570.4712 3299.8992 3299.8992 3299.8992 3299.8992 3295.0652 3280.5632 3265.8599 3251.056 3236.554 3221.7498 3206.845 3192.1416 3177.6396 3163.037 3148.4343 3134.0332 3112.8845 2241.3574 232.53479 -1551.709 -2769.4702 3132.8247 3149.0386 3164.6484 3179.956 3195.3643 3210.6719 3225.9795 3241.0857 3256.0913 3270.996 3286.0015 3299.8992 -3284.491 -3270.0896 -3255.487 -3241.1865 -3226.886 -2669.9707 3299.8992 3299.8992 3299.8992 3299.8992 3299.8992 3299.8992 3293.4539 3278.65 3263.9465 3248.941 3234.2375 3219.3328 3204.5288 3189.926 3175.122 3160.62 3146.3196 3131.6162 2818.6157 1171.7377 -546.1395 -1911.2366 -3150.8513 3144.3054 3160.3179 3175.9277 3191.4368 3206.845 3222.1526 3237.2588 3252.4658 3267.4712 3282.376 3297.2808 -3288.0156 -3273.413 -3258.9111 -3244.5098 -3230.1086 -2463.217 3299.8992 3299.8992 3299.8992 3299.8992 3299.8992 3299.8992 3288.3179 3273.5137 3258.7097 3243.9055 3229.0007 3214.1968 3199.4934 3184.8906 3170.1873 3155.6853 3141.3848 3126.9836 2747.0122 1008.6914 -711.8042 -2129.0679 3251.056 3143.7012 3159.3108 3174.6184 3190.0269 3205.435 3220.7427 3235.9497 3250.955 3265.9607 3280.966 3295.8708 -3289.325 -3274.9236 -3260.321 -3245.819 -3231.72 -2225.1433 3299.8992 3299.8992 3299.8992 3299.8992 3299.8992 3299.8992 3286.0015 3271.298 3256.3933 3241.5894 3226.6846 3211.9812 3197.177 3182.675 3167.9717 3153.5706 3139.1692 3124.5667 2634.2192 783.8104 -910.8032 -2320.816 3128.897 3144.3054 3160.4187 3176.1292 3191.6382 3206.9458 3222.1526 3237.4602 3252.4658 3267.3706 3282.376 3297.1802 -3288.217 -3273.5137 -3259.0117 -3244.6106 -3230.2092 -1726.7395 3299.8992 3299.8992 3299.8992 3299.8992 3299.8992 3298.892 3284.3901 3269.5862 3254.782 3239.978 3225.1738 3210.4705 3195.5657 3180.9631 3166.3604 3151.8584 3137.5579 3120.7397 2404.4036 588.03406 -1043.5364 -2374.1912 3130.5083 3145.9167 3161.9292 3177.6396 3193.048 3208.3557 3223.6633 3238.87 3253.8757 3268.982 3283.786 3298.4893 -3286.7065 -3272.1038 -3257.6018 -3243.0999 -3228.9001 -1332.7698 3299.8992 3299.8992 3299.8992 3299.8992 3299.8992 3298.59 3283.9873 3269.284 3254.48 3239.6758 3224.771 3209.967 3195.2637 3180.661 3166.0583 3151.4556 3137.2559 
3299.8992 3299.8992 3299.8992 -1017.7551 -3196.0693 -3180.359 -3164.9504 -3149.8442 -3134.6375 -3119.7327 -3104.9285 -3090.225 -3075.7231 -3061.322 -3047.0215 -3032.8215 -3018.7224 -3004.724 -2990.8264 -2977.1301 -2963.4338 -2949.8381 -2761.4136 -1245.5566 301.62048 1646.3745 2980.7556 3299.8992 3299.8992 3299.8992 3299.8992 3299.8992 3299.8992 3299.8992 3299.8992 3299.8992 3299.8992 3299.8992 3299.8992 3299.8992 3299.8992 3299.8992 3299.8992 -1759.9731 -3197.3784 -3181.7688 -3166.3604 -3151.1536 -3136.148 -3121.1426 -3106.3384 -3091.635 -3077.0325 -3062.732 -3048.4314 -3034.3323 -3020.1323 -3006.134 -2992.2363 -2978.4392 -2964.8438 -2951.1475 -2726.4678 -1239.4135 294.87305 1588.3667 2988.51 3299.8992 3299.8992 3299.8992 3299.8992 3299.8992 3299.8992 3299.8992 3299.8992 3299.8992 3299.8992 3299.8992 3299.8992 3299.8992 3299.8992 3299.8992 3299.8992 -2098.9563 -3197.0764 -3181.5674 -3166.2598 -3150.9521 -3135.846 -3120.9412 -3106.2378 -3091.635 -3077.0325 -3062.631 -3048.23 -3034.1309 -3020.0317 -3006.0332 -2992.1355 -2978.3386 -2964.743 -2951.1475 -2736.5386 -1407.3944 109.57031 1688.4705 3073.0042 3299.8992 3299.8992 3299.8992 3299.8992 3299.8992 3299.8992 3299.8992 3299.8992 3299.8992 3299.8992 3299.8992 3299.8992 3299.8992 3299.8992 3299.8992 3299.8992 -2672.3877 -3193.9543 -3178.4453 -3163.037 -3147.931 -3132.8247 -3117.92 -3103.1157 -3088.6138 -3074.0112 -3059.6099 -3045.3093 -3031.1096 -3017.111 -3003.1128 -2989.3157 -2975.5188 -2961.923 -2948.2268 -2755.8745 -1325.5188 286.9171 1789.682 3224.8718 3299.8992 3299.8992 3299.8992 3299.8992 3299.8992 3299.8992 3299.8992 3299.8992 3299.8992 3299.8992 3299.8992 3299.8992 3299.8992 3299.8992 3299.8992 3138.6658 -3206.1401 -3190.3289 -3174.7192 -3159.4116 -3144.3054 -3129.1992 -3114.2944 -3099.4902 -3084.8877 -3070.4863 -3056.0852 -3041.6838 -3027.5847 -3013.4856 -2999.6887 -2985.8916 -2972.0947 -2958.499 -2945.0042 -2289.7979 -781.39343 812.91504 2331.0881 3299.8992 3299.8992 3299.8992 3299.8992 3299.8992 3299.8992 3299.8992 3299.8992 3299.8992 3299.8992 3299.8992 3299.8992 3299.8992 3299.8992 3299.8992 3299.8992 2965.9514 -3211.4775 -3195.3643 -3179.8552 -3164.447 -3149.3408 -3134.436 -3119.4304 -3104.6265 -3089.923 -3075.4211 -3061.0198 -3046.82 -3032.62 -3018.521 -3004.5227 -2990.625 -2976.9287 
-3287.915 -3272.5066 -2761.1113 2654.0588 3299.8992 3299.8992 3293.6553 3278.247 3263.04 3247.0276 3231.9214 3216.7144 3201.4067 3185.9985 3170.4895 3155.2825 3139.9749 3124.8687 3109.8633 3094.9585 3077.234 2631.2988 1357.7454 96.47827 -930.8441 -1842.0502 -2656.5764 3092.743 3109.561 3126.0771 3142.7947 3159.3108 3175.525 3191.5374 3207.7515 3223.764 3239.6758 3255.2856 3271.1975 3286.908 3299.8992 -3282.074 -2729.0862 2541.0645 3299.8992 3299.3958 3284.2896 3268.982 3253.6743 3237.7625 3222.7568 3207.6506 3192.2424 3176.834 3161.4258 3146.2188 3131.012 3116.0063 3101.001 3086.0962 3065.8538 2345.691 948.77014 -330.32227 -1300.4425 -2088.2812 -2769.6716 3093.1458 3110.0647 3126.48 3142.996 3159.5122 3175.7263 3191.8396 3207.953 3223.8647 3239.7766 3255.5876 3271.298 3287.21 3299.8992 -3281.8726 -2394.7356 3001.8035 3299.8992 3296.878 3281.5703 3266.3635 3251.056 3235.144 3220.2393 3205.133 3189.8254 3174.3164 3159.1094 3143.8018 3128.595 3113.5894 3098.6846 3083.9812 3064.6453 2326.9592 927.9236 -331.73218 -1335.3882 -2142.6636 -2942.5872 3092.0378 3108.7554 3125.473 3142.0898 3158.4045 3174.7192 3190.8325 3206.9458 3223.059 3238.7695 3254.5806 3270.3918 3286.1023 3299.8992 -3283.081 -2154.1443 3203.421 3299.8992 3294.2595 3279.0527 3263.745 3248.538 3232.727 3217.7214 3202.6152 3187.4084 3172 3156.5918 3141.3848 3126.178 3111.1724 3096.3684 3081.3628 3062.329 2383.5571 1017.1509 -291.14685 -1403.6682 -2259.9883 -2999.8901 3090.326 3107.144 3123.761 3140.277 3156.6924 3173.007 3189.1204 3205.2336 3221.1455 3237.1582 3252.9692 3268.6797 3284.3901 3299.8992 -3284.793 -1767.7277 3299.8992 3299.8992 3290.0298 3274.823 3259.616 3244.4092 3228.4973 3213.4917 3198.4863 3183.1787 3167.7703 3152.362 3137.2559 3122.1497 3107.2449 3092.34 3077.4353 3057.2937 2264.7217 768.7042 -486.8225 -1514.447 -2388.391 -3120.236 3090.628 3107.4463 3124.063 3140.4785 3156.8938 3173.2085 3189.4226 3205.3345 3221.347 3237.2588 3253.07 3268.881 3284.3901 3299.8992 -3284.5916 -1545.5658 3299.8992 3299.8992 3289.224 3274.0173 3258.7097 3243.6035 3227.6917 3212.8875 3197.6807 3182.4736 3167.0654 3151.7578 3136.4502 3121.344 3106.5398 3091.5344 3076.831 
3299.8992 3299.8992 2638.3484 -238.8794 -2335.3179 -3157.2966 -3142.0898 -3127.2856 -3112.5823 -3097.879 -3083.4778 -3069.1772 -3055.0781 -3040.979 -3026.88 -3012.9822 -2999.286 -2983.2732 -2658.1877 -2125.0396 -1684.9457 -1347.3724 -804.05273 -295.4773 105.6427 326.09253 524.4873 792.572 1493.7012 3110.3667 3299.8992 3299.8992 3299.8992 3299.8992 3299.8992 3299.8992 3299.8992 3299.8992 3299.8992 3299.8992 3299.8992 3299.8992 2470.6694 -316.9281 -2203.3904 -3158.2031 -3142.996 -3128.1921 -3113.388 -3098.9868 -3084.384 -3069.983 -3055.8838 -3041.7847 -3027.6855 -3013.9893 -3000.1921 -2850.4395 -2466.4397 -2107.4158 -1747.1832 -1363.2843 -865.78674 -500.31738 -184.39636 132.0282 451.27258 509.4818 1297.6227 2833.621 3299.8992 3299.8992 3299.8992 3299.8992 3299.8992 3299.8992 3299.8992 3299.8992 3299.8992 3299.8992 3299.8992 3299.8992 2273.886 -466.17737 -2322.528 -3151.2542 -3136.148 -3121.4446 -3106.7412 -3092.2393 -3077.7373 -3063.4368 -3049.3376 -3035.2385 -3021.2402 -3007.2417 -2993.6462 -2979.7485 -2731.604 -2221.2158 -1764.1022 -1485.9467 -967.80396 -616.0309 -318.64014 -140.58838 105.74341 347.0398 1346.0632 2994.452 3299.8992 3299.8992 3299.8992 3299.8992 3299.8992 3299.8992 3299.8992 3299.8992 3299.8992 3299.8992 3299.8992 3299.8992 2215.5762 -441.4032 -2315.579 -3138.8672 -3123.761 -3108.9568 -3094.3542 -3079.953 -3065.5518 -3051.2512 -3037.0513 -3023.1536 -3009.1553 -2995.3582 -2981.6619 -2783.7708 -2286.7766 -1846.0785 -1341.1285 -932.8583 -434.65576 -185.20203 -41.39099 318.1366 587.2284 769.5099 1683.8379 3250.2502 3299.8992 3299.8992 3299.8992 3299.8992 3299.8992 3299.8992 3299.8992 3299.8992 3299.8992 3299.8992 3299.8992 3299.8992 2006.2042 -599.41406 -2381.543 -3147.528 -3132.5225 -3117.6177 -3103.0151 -3088.4124 -3073.9104 -3059.7107 -3045.6116 -3031.613 -3017.6147 -3003.8176 -2990.1213 -2975.0151 -2658.3892 -2321.1182 -1802.8748 -1245.1538 -652.9907 -326.9989 -41.39099 264.0564 571.82007 886.12976 1875.6866 3299.8992 3299.8992 3299.8992 3299.8992 3299.8992 3299.8992 3299.8992 3299.8992 3299.8992 3299.8992 3299.8992 3299.8992 3299.8992 1850.3082 -748.76404 -2472.4822 -3145.6145 -3130.6091 -3115.805 -3101.1016 -3086.5996 -3072.1985 -3057.898 -3043.8994 -3029.6997 -3015.802 -3002.005 -2988.208 -2823.2483 -2320.3125 -1936.3129 

-9.970093 -9.970093 -9.970093 -9.970093 -9.970093 -9.970093 -9.970093 -9.970093 -9.970093 -9.970093 -9.970093 -9.970093 -9.970093 -9.970093 -9.970093 -9.970093 -9.970093 -9.970093 -9.970093 -9.970093 -9.970093 -9.970093 -9.970093 -9.970093 -9.970093 -9.970093 -9.970093 -9.970093 -9.970093 -9.970093 -9.970093 -9.970093 -9.970093 -9.970093 -9.970093 -9.970093 -9.970093 -9.970093 -9.970093 -9.970093 -9.970093 -9.970093 -9.970093 -9.970093 -9.970093 -9.970093 -9.970093 -9.970093 -9.970093 -9.970093 -9.970093 -9.970093 -9.970093 -9.970093 -9.970093 -9.970093 -9.970093 -9.970093 -9.970093 -9.970093 -9.970093 -9.970093 -9.970093 -9.970093 -9.970093 -9.970093 -9.970093 -9.970093 -9.970093 -9.970093 -9.970093 -9.970093 -9.970093 -9.970093 -9.970093 -9.970093 -9.970093 -9.970093 -9.970093 -9.970093 -9.970093 -9.970093 -9.970093 -9.970093 -9.970093 -9.970093 -9.970093 -9.970093 -9.970093 -9.970093 -9.970093 -9.970093 -9.970093 -9.970093 -9.970093 -9.970093 -9.970093 -9.970093 -9.970093 -9.970093 -9.970093 -9.970093 -9.970093 -9.970093 -9.970093 -9.970093 -9.970093 -9.970093 -9.970093 -9.970093 -9.970093 -9.970093 -9.970093 -9.970093 -9.970093 -9.970093 -9.970093 -9.970093 -9.970093 -9.970093 -9.970093 -9.970093 -9.970093 -9.970093 -9.970093 -9.970093 -9.970093 -9.970093 -9.970093 -9.970093 -9.970093 -9.970093 -9.970093 -9.970093 -9.970093 -9.970093 -9.970093 -9.970093 -9.970093 -9.970093 -9.970093 -9.970093 -9.970093 -9.970093 -9.970093 -9.970093 -9.970093 -9.970093 -9.970093 -9.970093 -9.970093 -9.970093 -9.970093 -9.970093 -9.970093 -9.970093 -9.970093 -9.970093 -9.970093 -9.970093 -9.970093 -9.970093 -9.970093 -9.970093 -9.970093 -9.970093 -9.970093 -9.970093 -9.970093 -9.970093 -9.970093 -9.970093 -9.970093 -9.970093 -9.970093 -9.970093 -9.970093 -9.970093 -9.970093 -9.970093 -9.970093 -9.970093 -9.970093 -9.970093 -9.970093 -9.970093 -9.970093 -9.970093 -9.970093 -9.970093 -9.970093 -9.970093 -9.970093 -9.970093 -9.970093 -9.970093 -9.970093 -9.970093 -9.970093 -9.970093 
-39.276123 -38.47046 -2.4169922 23.76709 46.92993 44.210815 42.49878 30.111694 11.883545 -8.358765 -11.782837 -11.984253 -13.494873 1.2084961 5.5389404 8.862305 4.9346924 16.113281 40.38391 84.695435 117.92908 140.8905 152.77405 181.073 210.37903 239.18152 269.69604 297.8943 327.70386 384.40247 384.40247 314.71252 234.95178 184.69849 124.87793 60.62622 -41.793823 -111.38306 -107.15332 -82.177734 -117.022705 -177.74963 -200.50964 -173.31848 -89.42871 -41.290283 -24.472046 -22.457886 0.9063721 -16.415405 -96.67969 -169.7937 -213.7024 -246.02966 -265.56702 -269.99817 -256.80542 -232.13196 -197.18628 -159.82361 -137.56714 -136.56006 -139.48059 -134.74731 -115.31067 -114.001465 -110.6781 -100.00305 -94.766235 -79.156494 -52.770996 -28.500366 -23.364258 -7.8552246 5.3375244 29.80957 42.095947 37.46338 38.067627 40.182495 50.857544 58.10852 67.37366 69.68994 65.86304 57.504272 37.86621 29.104614 26.586914 3.5247803 -8.560181 8.560181 5.4382324 -0.70495605 1.4099121 -4.1290283 -8.358765 -5.5389404 -0.80566406 1.2084961 16.918945 13.192749 36.657715 76.135254 82.681274 82.07703 74.62463 57.806396 53.17383 48.239136 62.23755 71.7041 137.56714 173.01636 215.61584 242.20276 233.44116 206.45142 184.69849 161.53564 130.51758 100.20447 71.40198 64.05029 47.131348 -4.2297363 -54.68445 -93.65845 -133.13599 -179.26025 -168.88733 -146.83228 -135.15015 -119.33899 -52.166748 -16.516113 -8.056641 -8.963013 -34.643555 -56.799316 -43.103027 -47.332764 -32.83081 -5.3375244 -13.796997 -62.539673 -111.28235 -160.83069 -167.67883 -134.6466 -129.30908 -111.08093 -78.048706 -40.98816 18.73169 57.504272 92.55066 123.97156 152.1698 154.78821 151.16272 133.3374 102.822876 48.239136 3.7261963 -42.39807 -47.43347 -37.86621 -37.765503 -50.354004 -42.297363 -44.613647 -42.297363 -44.51294 -31.521606 -1.4099121 42.196655 99.19739 140.48767 168.18237 177.74963 157.30591 114.70642 71.90552 36.35559 -3.1219482 -27.996826 -67.8772 -94.86694 -115.81421 -148.54431 -154.98962 -125.98572 -90.13367 -93.35632 -94.766235 -85.80322 -74.2218 -86.10535 -84.89685 
-3054.4739 -3040.4753 -2175.0916 721.06934 3299.8992 3299.8992 3299.8992 3299.8992 3299.8992 3299.8992 3299.8992 3299.8992 3299.8992 3299.8992 3299.8992 3299.8992 3299.8992 3299.8992 3299.8992 3299.8992 3298.0864 3282.2754 999.02344 3281.7717 3298.59 -3284.8938 -3268.579 -3252.4658 -3236.3525 -3220.3398 -3204.6294 -3188.919 -3173.5107 -3158.1023 -3142.996 -3127.89 -3112.985 -3098.1812 -3083.4778 -3068.9758 -3054.5745 -3039.972 -1862.8967 1152.0996 3299.8992 3299.8992 3299.8992 3299.8992 3299.8992 3299.8992 3299.8992 3299.8992 3299.8992 3299.8992 3299.8992 3299.8992 3299.8992 3299.8992 3299.8992 3299.8992 3294.7632 3278.4485 97.08252 3280.1604 3297.1802 -3286.203 -3269.5862 -3253.372 -3237.2588 -3221.347 -3205.435 -3189.8254 -3174.3164 -3159.0088 -3143.8018 -3128.7964 -3113.8916 -3099.0874 -3084.384 -3069.7815 -3055.3801 -3041.4824 -1964.0076 951.7914 3299.8992 3299.8992 3299.8992 3299.8992 3299.8992 3299.8992 3299.8992 3299.8992 3299.8992 3299.8992 3299.8992 3299.8992 3299.8992 3299.8992 3299.8992 3299.8992 3294.8638 3278.952 -706.6681 3282.9802 3299.6978 -3283.786 -3267.572 -3251.358 -3235.3455 -3219.3328 -3203.5217 -3187.9119 -3172.4028 -3157.196 -3141.989 -3126.8828 -3112.0789 -3097.2747 -3082.5713 -3068.0693 -3053.6682 -3039.0654 -1569.4336 1428.1403 3299.8992 3299.8992 3299.8992 3299.8992 3299.8992 3299.8992 3299.8992 3299.8992 3299.8992 3299.8992 3299.8992 3299.8992 3299.8992 3299.8992 3299.8992 3299.8992 3292.4468 3276.535 -1883.9447 3282.8796 3299.6978 -3283.5845 -3266.9678 -3250.7537 -3234.6404 -3218.7285 -3203.018 -3187.4084 -3171.8994 -3156.6924 -3141.4856 -3126.3794 -3111.4746 -3096.7712 -3082.0679 -3067.465 -3053.064 -3039.1663 -1723.7183 1321.994 3299.8992 3299.8992 3299.8992 3299.8992 3299.8992 3299.8992 3299.8992 3299.8992 3299.8992 3299.8992 3299.8992 3299.8992 3299.8992 3299.8992 3299.8992 3299.8992 3294.058 3277.4414 -2735.8337 3286.1023 3299.8992 -3280.3618 -3263.8457 -3247.6318 -3231.72 -3215.7073 -3199.9968 -3184.3872 -3168.8782 -3153.5706 -3138.565 -3123.2573 -3108.554 -3093.75 -3079.1472 -3064.6453 
-3091.9373 -3078.241 -1575.0732 1026.5167 3299.8992 3299.8992 3299.8992 3299.8992 3299.8992 3299.8992 3299.8992 3299.8992 3299.8992 3299.8992 3299.8992 3299.8992 3299.8992 3299.8992 3299.8992 3291.339 3276.3335 3261.3281 759.8419 3261.026 3276.9377 3292.749 3299.8992 -3276.7363 -3261.731 -3246.6248 -3232.022 -3217.218 -3202.6152 -3188.1133 -3173.7122 -3159.5122 -3145.514 -3131.5154 -3117.7185 -3103.72 -3090.225 -3062.329 -727.41394 1854.538 3299.8992 3299.8992 3299.8992 3299.8992 3299.8992 3299.8992 3299.8992 3299.8992 3299.8992 3299.8992 3299.8992 3299.8992 3299.8992 3299.8992 3299.4963 3284.491 3269.5862 3254.6814 -213.29956 3257.199 3273.0103 3288.3179 3299.8992 -3280.7646 -3265.5579 -3250.653 -3235.7483 -3220.944 -3206.4421 -3192.041 -3177.6396 -3163.339 -3149.24 -3135.2417 -3121.344 -3107.5469 -3093.8506 -3078.3416 -1031.8542 1446.7712 3299.8992 3299.8992 3299.8992 3299.8992 3299.8992 3299.8992 3299.8992 3299.8992 3299.8992 3299.8992 3299.8992 3299.8992 3299.8992 3299.8992 3299.4963 3284.491 3269.5862 3254.6814 -743.1244 3258.609 3274.4202 3289.7278 3299.8992 -3279.3547 -3264.2485 -3249.2432 -3234.439 -3219.7356 -3205.133 -3190.7317 -3176.2297 -3162.1306 -3148.0315 -3134.0332 -3119.934 -3106.2378 -3092.642 -3073.6084 -1414.3433 1150.1862 3299.8992 3299.8992 3299.8992 3299.8992 3299.8992 3299.8992 3299.8992 3299.8992 3299.8992 3299.8992 3299.8992 3299.8992 3299.8992 3299.8992 3299.8992 3289.0227 3274.118 3258.9111 -1681.6223 3265.2556 3281.067 3296.3745 -3288.0156 -3272.8088 -3257.7026 -3242.7979 -3227.893 -3213.2903 -3198.7883 -3184.2864 -3170.0867 -3155.7861 -3141.687 -3127.7893 -3113.8916 -3100.1953 -3086.499 -2971.4905 -1172.9462 1367.1112 3299.8992 3299.8992 3299.8992 3299.8992 3299.8992 3299.8992 3299.8992 3299.8992 3299.8992 3299.8992 3299.8992 3299.8992 3299.8992 3299.8992 3299.8992 3292.044 3277.0386 3261.8315 -2353.8481 3269.8882 3285.5986 3299.8992 -3283.5845 -3268.3777 -3253.2715 -3238.4673 -3223.5625 -3208.96 -3194.458 -3180.0566 -3165.857 -3151.657 -3137.5579 -3123.6602 -3109.7625 -3095.9656 
3122.0488 2504.004 771.9269 -924.3988 -2263.3118 3192.8467 3143.097 3159.1094 3174.7192 3190.2283 3205.6365 3220.8435 3235.9497 3251.1565 3266.0613 3281.067 3295.8708 -3289.4255 -3274.823 -3260.2202 -3245.819 -3231.4177 -775.25024 3299.8992 3299.8992 3299.8992 3299.8992 3299.8992 3293.756 3279.1533 3264.45 3249.7466 3234.8418 3220.0378 3205.3345 3190.7317 3175.9277 3161.5264 3146.9238 3132.8247 3114.395 2149.2095 270.3003 -1270.6329 -2540.9636 3129.602 3145.9167 3161.5264 3176.7334 3192.2424 3207.55 3222.7568 3238.0645 3253.07 3268.0754 3282.8796 3297.7844 -3287.5122 -3272.9094 -3258.4075 -3244.0063 -3229.7058 -348.349 3299.8992 3299.8992 3299.8992 3299.8992 3299.8992 3294.2595 3279.657 3264.9536 3250.1494 3235.446 3220.4407 3205.7373 3191.034 3176.4312 3161.9292 3147.528 3133.2275 3115.503 2233.6028 358.21838 -1211.618 -2456.067 3128.7964 3144.3054 3160.3179 3176.0283 3191.336 3206.7444 3222.052 3237.2588 3252.365 3267.3706 3282.2754 3296.9788 -3288.3179 -3273.715 -3259.0117 -3244.812 -3230.4106 86.206055 3299.8992 3299.8992 3299.8992 3299.8992 3299.8992 3291.5405 3276.9377 3262.1338 3247.4304 3232.6262 3217.7214 3203.119 3188.516 3173.8127 3159.3108 3144.9097 3130.5083 3112.0789 2016.8793 85.80322 -1423.3063 -2662.4175 3130.307 3146.521 3162.2314 3177.4382 3192.7458 3208.1543 3223.462 3238.568 3253.6743 3268.579 3283.5845 3298.2878 -3286.908 -3272.3052 -3257.904 -3243.402 -3229.2021 613.4125 3299.8992 3299.8992 3299.8992 3299.8992 3299.8992 3290.7349 3276.132 3261.4287 3246.7253 3231.8206 3217.0166 3202.2124 3187.6099 3172.9065 3158.4045 3144.104 3129.8035 3111.2732 1954.1382 89.02588 -1476.7822 -2757.9895 3131.314 3146.7224 3162.6343 3178.3447 3193.753 3209.0605 3224.0662 3239.1724 3254.1777 3269.284 3284.2896 3299.0935 -3286.1023 -3271.399 -3256.9976 -3242.4956 -3228.296 1291.5802 3299.8992 3299.8992 3299.8992 3299.8992 3299.8992 3289.1235 3274.4202 3259.616 3244.9126 3230.1086 3215.3044 3200.601 3185.9985 3171.3958 3156.8938 3142.5933 3128.0913 
-2963.333 -2949.7375 -2318.6003 -740.30457 806.97327 2192.7153 3299.8992 3299.8992 3299.8992 3299.8992 3299.8992 3299.8992 3299.8992 3299.8992 3299.8992 3299.8992 3299.8992 3299.8992 3299.8992 3299.8992 3299.8992 3299.8992 2771.283 -3213.1897 -3197.177 -3181.5674 -3166.2598 -3151.0527 -3136.0474 -3121.1426 -3106.3384 -3091.7358 -3077.234 -3062.8325 -3048.4314 -3034.3323 -3020.2332 -3006.2346 -2992.337 -2978.54 -2964.9443 -2951.3489 -2536.331 -1061.0596 499.411 1965.6189 3220.642 3299.8992 3299.8992 3299.8992 3299.8992 3299.8992 3299.8992 3299.8992 3299.8992 3299.8992 3299.8992 3299.8992 3299.8992 3299.8992 3299.8992 3299.8992 2404.605 -3207.6506 -3191.9402 -3176.2297 -3161.1235 -3145.9167 -3130.9111 -3116.0063 -3101.303 -3086.5996 -3072.0977 -3057.6965 -3043.4966 -3029.2969 -3015.2983 -3001.4006 -2987.503 -2973.706 -2960.1104 -2946.6155 -2307.7239 -777.063 842.4225 2209.6343 3299.8992 3299.8992 3299.8992 3299.8992 3299.8992 3299.8992 3299.8992 3299.8992 3299.8992 3299.8992 3299.8992 3299.8992 3299.8992 3299.8992 3299.8992 3299.8992 2218.7988 -3207.0464 -3191.336 -3175.827 -3160.5193 -3145.3125 -3130.4077 -3115.503 -3100.7996 -3086.0962 -3071.5942 -3057.2937 -3042.9932 -3028.7932 -3014.795 -3000.7964 -2986.8987 -2973.2024 -2959.7075 -2946.2126 -1984.6527 -428.41187 1016.3452 2316.1833 3299.8992 3299.8992 3299.8992 3299.8992 3299.8992 3299.8992 3299.8992 3299.8992 3299.8992 3299.8992 3299.8992 3299.8992 3299.8992 3299.8992 3299.8992 3299.8992 1710.5255 -3208.3557 -3192.4438 -3177.0354 -3161.7278 -3146.4202 -3131.5154 -3116.51 -3101.9072 -3087.3047 -3072.8027 -3058.3008 -3044.1008 -3029.9011 -3015.9026 -3001.9043 -2988.1072 -2974.411 -2960.7146 -2947.2197 -2003.183 -486.11755 1056.2256 2453.65 3299.8992 3299.8992 3299.8992 3299.8992 3299.8992 3299.8992 3299.8992 3299.8992 3299.8992 3299.8992 3299.8992 3299.8992 3299.8992 3299.8992 3299.8992 3299.8992 1176.7731 -3207.3486 -3191.5374 -3176.1292 -3160.8215 -3145.6145 -3130.8105 -3115.7043 -3101.001 -3086.499 -3071.997 -3057.5957 -3043.396 -3029.0955 -3015.097 -3001.1992 -2987.4023 -2973.6052 
2999.8901 1965.8203 578.7689 -621.0663 -1635.2966 -2450.9307 -3185.4949 3094.5557 3111.1724 3127.7893 3144.3054 3160.5193 3176.834 3192.9473 3209.262 3225.0732 3240.8843 3256.6956 3272.5066 3288.0156 3299.8992 -3280.966 -1008.18787 3299.8992 3299.8992 3289.224 3273.816 3258.5083 3243.3013 3227.4902 3212.5854 3197.4792 3182.1716 3166.7632 3151.4556 3136.2488 3121.1426 3106.137 3091.4336 3076.5288 3017.111 1961.3892 651.4801 -528.1128 -1503.2684 -2317.5933 -3110.669 3091.9373 3108.6548 3125.2715 3141.687 3158.3037 3174.5178 3190.5303 3206.7444 3222.5554 3238.568 3254.2786 3269.8882 3285.5986 3299.8992 -3283.2825 -842.3218 3299.8992 3299.8992 3286.3037 3271.0967 3255.789 3240.6829 3224.771 3209.8662 3194.76 3179.3518 3164.1448 3148.8372 3133.6304 3118.5242 3103.6194 3088.7146 3073.8098 2973.9075 1840.3381 430.0232 -673.8373 -1619.8883 -2495.9473 -3171.8994 3093.6492 3110.266 3126.7822 3143.1975 3159.5122 3175.9277 3192.1416 3208.1543 3223.9653 3239.978 3255.789 3271.4995 3287.1094 3299.8992 -3281.8726 -463.25684 3299.8992 3299.8992 3285.498 3270.291 3254.8828 3239.8772 3223.8647 3209.0605 3193.8538 3178.4453 3163.1377 3147.83 3132.7239 3117.6177 3102.8137 3087.808 3072.0977 2944.1985 1745.2698 332.73926 -737.78687 -1635.1959 -2458.6853 -3173.5107 3093.75 3110.669 3127.0842 3143.7012 3159.915 3176.4312 3192.5444 3208.4563 3224.2676 3240.3809 3255.9905 3271.9023 3287.4114 3299.8992 -3281.6711 -11.178589 3299.8992 3298.4893 3283.484 3268.0754 3252.8687 3237.561 3221.8506 3206.9458 3191.6382 3176.4312 3161.1235 3145.816 3130.6091 3115.503 3100.6987 3085.8948 3070.285 2937.854 1763.5986 494.1742 -692.7704 -1633.786 -2519.3115 -3230.2092 3091.1316 3107.9497 3124.4658 3141.0828 3157.3975 3173.7122 3189.8254 3205.838 3221.8506 3237.6616 3253.473 3269.284 3284.8938 3299.8992 -3284.1887 427.00195 3299.8992 3293.6553 3278.4485 3263.2415 3248.1353 3232.8276 3217.1172 3202.2124 3187.1062 3171.698 3156.3904 3141.0828 3126.0771 3111.0718 3096.167 3081.3628 3063.5376 
-1645.7703 -1282.6172 -670.0104 -366.67786 -85.90393 143.3075 435.76355 764.07166 1775.7843 3299.8992 3299.8992 3299.8992 3299.8992 3299.8992 3299.8992 3299.8992 3299.8992 3299.8992 3299.8992 3299.8992 3299.8992 3299.8992 1688.974 -870.1172 -2574.8015 -3143.7012 -3128.6956 -3113.9922 -3099.2888 -3084.7869 -3070.3857 -3056.0852 -3042.0867 -3028.0884 -3014.0898 -3000.293 -2986.5967 -2961.0168 -2534.6191 -2024.5331 -1620.4926 -1209.8053 -483.59985 -163.95264 97.48535 406.86035 643.32275 888.44604 2042.0563 3299.8992 3299.8992 3299.8992 3299.8992 3299.8992 3299.8992 3299.8992 3299.8992 3299.8992 3299.8992 3299.8992 3299.8992 3299.8992 1168.515 -1227.5299 -2958.8013 -3141.4856 -3126.5808 -3111.7766 -3097.174 -3082.7727 -3068.2708 -3054.071 -3039.871 -3026.0742 -3012.0757 -2998.2788 -2984.5825 -2932.7178 -2464.1235 -2018.0878 -1659.8694 -1241.7297 -626.4038 -172.81494 215.81726 538.98926 791.66565 1260.6628 2369.3572 3299.8992 3299.8992 3299.8992 3299.8992 3299.8992 3299.8992 3299.8992 3299.8992 3299.8992 3299.8992 3299.8992 3299.8992 3299.8992 1121.5851 -1310.7147 -2976.6265 -3143.1975 -3128.1921 -3113.388 -3098.886 -3084.384 -3069.983 -3055.6824 -3041.4824 -3027.4841 -3013.5864 -2999.7893 -2986.093 -2702.0964 -2381.3416 -1977.8046 -1687.4634 -1279.8981 -614.52026 -144.7174 174.02344 428.00903 665.1764 1047.3633 2289.1936 3299.8992 3299.8992 3299.8992 3299.8992 3299.8992 3299.8992 3299.8992 3299.8992 3299.8992 3299.8992 3299.8992 3299.8992 3299.8992 959.7473 -1449.4904 -3152.8655 -3141.2842 -3126.3794 -3111.5752 -3097.0732 -3082.3699 -3068.0693 -3053.8696 -3039.871 -3025.772 -3011.8743 -2998.178 -2984.381 -2922.4456 -2540.7622 -2075.592 -1413.3362 -964.8834 -383.09326 -27.996826 287.11853 456.4087 534.5581 975.25635 2304.1992 3299.8992 3299.8992 3299.8992 3299.8992 3299.8992 3299.8992 3299.8992 3299.8992 3299.8992 3299.8992 3299.8992 3299.8992 3258.9111 558.728 -1741.3422 -3152.9663 -3137.7593 -3122.754 -3108.0505 -3093.4478 -3078.9458 -3064.6453 -3050.5461 -3036.447 -3022.4487 -3008.551 -2994.754 -2981.259 -2736.6394 -2404.303 -2030.9784 

-9.970093 -9.970093 -9.970093 -9.970093 -9.970093 -9.970093 -9.970093 -9.970093 -9.970093 -9.970093 -9.970093 -9.970093 -9.970093 -9.970093 -9.970093 -9.970093 -9.970093 -9.970093 -9.970093 -9.970093 -9.970093 -9.970093 -9.970093 -9.970093 -9.970093 -9.970093 -9.970093 -9.970093 -9.970093 -9.970093 -9.970093 -9.970093 -9.970093 -9.970093 -9.970093 -9.970093 -9.970093 -9.970093 -9.970093 -9.970093 -9.970093 -9.970093 -9.970093 -9.970093 -9.970093 -9.970093 -9.970093 -9.970093 -9.970093 -9.970093 -9.970093 -9.970093 -9.970093 -9.970093 -9.970093 -9.970093 -9.970093 -9.970093 -9.970093 -9.970093 -9.970093 -9.970093 -9.970093 -9.970093 -9.970093 -9.970093 -9.970093 -9.970093 -9.970093 -9.970093 -9.970093 -9.970093 -9.970093 -9.970093 -9.970093 -9.970093 -9.970093 -9.970093 -9.970093 -9.970093 -9.970093 -9.970093 -9.970093 -9.970093 -9.970093 -9.970093 -9.970093 -9.970093 -9.970093 -9.970093 -9.970093 -9.970093 -9.970093 -9.970093 -9.970093 -9.970093 -9.970093 -9.970093 -9.970093 -9.970093 -9.970093 -9.970093 -9.970093 -9.970093 -9.970093 -9.970093 -9.970093 -9.970093 -9.970093 -9.970093 -9.970093 -9.970093 -9.970093 -9.970093 -9.970093 -9.970093 -9.970093 -9.970093 -9.970093 -9.970093 -9.970093 -9.970093 -9.970093 -9.970093 -9.970093 -9.970093 -9.970093 -9.970093 -9.970093 -9.970093 -9.970093 -9.970093 -9.970093 -9.970093 -9.970093 -9.970093 -9.970093 -9.970093 -9.970093 -9.970093 -9.970093 -9.970093 -9.970093 -9.970093 -9.970093 -9.970093 -9.970093 -9.970093 -9.970093 -9.970093 -9.970093 -9.970093 -9.970093 -9.970093 -9.970093 -9.970093 -9.970093 -9.970093 -9.970093 -9.970093 -9.970093 -9.970093 -9.970093 -9.970093 -9.970093 -9.970093 -9.970093 -9.970093 -9.970093 -9.970093 -9.970093 -9.970093 -9.970093 -9.970093 -9.970093 -9.970093 -9.970093 -9.970093 -9.970093 -9.970093 -9.970093 -9.970093 -9.970093 -9.970093 -9.970093 -9.970093 -9.970093 -9.970093 -9.970093 -9.970093 -9.970093 -9.970093 -9.970093 -9.970093 -9.970093 -9.970093 -9.970093 -9.970093 -9.970093 -9.970093 
-110.980225 -70.19348 -19.839478 -8.056641 -16.314697 -24.169922 -16.012573 0 23.162842 82.07703 172.2107 228.60718 251.26648 236.66382 218.53638 209.87549 134.6466 79.2572 34.34143 -45.318604 -116.922 -119.4397 -118.73474 -110.476685 -113.29651 -112.89368 -124.87793 -142.60254 -163.24768 -146.63086 -122.25952 -99.801636 -82.58057 -76.94092 -80.26428 -93.0542 -94.06128 -68.88428 -37.46338 -21.148682 -0.60424805 28.903198 54.483032 72.509766 82.9834 87.716675 92.95349 65.66162 41.693115 58.914185 108.1604 151.06201 163.65051 164.05334 151.76697 77.142334 12.286377 -50.756836 -101.71509 -130.92041 -127.29492 -111.78589 -106.04553 -107.25403 -97.48535 -94.86694 -92.95349 -98.59314 -76.23596 -30.413818 -4.3304443 20.343018 39.779663 58.007812 86.10535 120.043945 141.29333 183.89282 239.58435 298.0957 329.21448 378.36 368.18848 298.39783 200.61035 131.12183 73.11401 28.701782 1.5106201 -43.203735 -67.77649 -117.72766 -153.68042 -195.47424 -257.40967 -313.40332 -331.02722 -315.21606 -289.53552 -232.33337 -167.1753 -112.39014 -68.17932 -56.396484 -51.361084 -62.539673 -83.88977 -102.62146 -105.6427 -81.47278 -56.497192 -34.140015 -18.328857 -11.682129 -10.876465 -6.1431885 22.558594 26.083374 17.72461 1.4099121 -2.9205322 16.314697 26.78833 31.723022 50.55542 76.638794 93.85986 121.051025 160.42786 180.16663 202.32239 225.28381 247.03674 251.36719 285.6079 307.9651 310.07996 268.78967 218.03284 188.6261 161.93848 157.60803 183.79211 182.58362 138.17139 59.820557 -19.134521 -142.90466 -255.49622 -316.12244 -331.32935 -341.50085 -344.92493 -339.78882 -314.5111 -287.01782 -260.63232 -247.13745 -192.75513 -117.22412 -72.61047 -11.782837 34.039307 89.227295 141.19263 165.9668 152.57263 132.53174 132.43103 119.4397 57.000732 4.9346924 -19.033813 -44.311523 -41.89453 -52.468872 -81.170654 -112.18872 -159.82361 -166.87317 -156.29883 -178.25317 -171.1029 -164.35547 -136.05652 -110.07385 -71.90552 -33.032227 12.185669 39.779663 56.09436 44.41223 34.34143 30.917358 41.189575 50.656128 46.124268 37.060547 13.897705 -29.910278 
-3050.2441 -3036.447 -1410.8185 1618.0756 3299.8992 3299.8992 3299.8992 3299.8992 3299.8992 3299.8992 3299.8992 3299.8992 3299.8992 3299.8992 3299.8992 3299.8992 3299.8992 3299.8992 3299.8992 3299.8992 3293.5547 3277.3406 3270.8953 3288.5193 3299.8992 -3278.4485 -3262.2344 -3246.0205 -3230.0078 -3214.096 -3198.3855 -3182.8765 -3167.3674 -3152.0598 -3136.9536 -3121.8474 -3107.0435 -3092.4407 -3077.6367 -3063.1348 -3048.8342 -3034.3323 -1196.109 1939.7369 3299.8992 3299.8992 3299.8992 3299.8992 3299.8992 3299.8992 3299.8992 3299.8992 3299.8992 3299.8992 3299.8992 3299.8992 3299.8992 3299.8992 3299.8992 3299.8992 3292.9504 3276.0315 3272.8088 3289.4255 -3293.6553 -3277.1392 -3260.623 -3244.3083 -3228.3965 -3212.4846 -3196.7742 -3181.2651 -3165.857 -3150.5493 -3135.443 -3120.4375 -3105.5327 -3090.8293 -3076.126 -3061.7249 -3047.4243 -3033.3252 -928.52783 2204.5989 3299.8992 3299.8992 3299.8992 3299.8992 3299.8992 3299.8992 3299.8992 3299.8992 3299.8992 3299.8992 3299.8992 3299.8992 3299.8992 3299.8992 3299.8992 3299.8992 3291.1377 3274.7222 3273.413 3291.0369 -3292.3462 -3275.9307 -3259.7168 -3243.6035 -3227.5908 -3211.679 -3195.9685 -3180.5603 -3165.1519 -3149.8442 -3134.6375 -3119.7327 -3104.828 -3090.0237 -3075.5217 -3061.2212 -3046.6187 -2997.0703 -551.67847 2623.2422 3299.8992 3299.8992 3299.8992 3299.8992 3299.8992 3299.8992 3299.8992 3299.8992 3299.8992 3299.8992 3299.8992 3299.8992 3299.8992 3299.8992 3299.8992 3299.8992 3288.5193 3271.8018 3273.6145 3290.2312 -3293.051 -3276.3335 -3259.8174 -3243.704 -3227.6917 -3211.8804 -3196.17 -3180.5603 -3165.1519 -3149.945 -3134.8389 -3119.8333 -3105.0293 -3090.225 -3075.6226 -3061.2212 -3046.82 -2891.8303 -466.07666 2598.2666 3299.8992 3299.8992 3299.8992 3299.8992 3299.8992 3299.8992 3299.8992 3299.8992 3299.8992 3299.8992 3299.8992 3299.8992 3299.8992 3299.8992 3299.8992 3299.8992 3287.5122 3269.989 3273.9165 3291.4397 -3291.8425 -3275.5278 -3259.2131 -3243.0999 -3227.188 -3211.377 -3195.767 -3180.1575 -3164.749 -3149.4414 -3134.3352 -3119.4304 -3104.5256 -3089.8223 -3075.2197 -3060.7178 
-3082.5713 -2766.9524 -419.04602 2109.732 3299.8992 3299.8992 3299.8992 3299.8992 3299.8992 3299.8992 3299.8992 3299.8992 3299.8992 3299.8992 3299.8992 3299.8992 3299.8992 3299.8992 3299.8992 3288.1165 3273.3123 3257.5012 3252.9692 3268.881 3284.5916 3299.8992 -3284.491 -3269.284 -3254.2786 -3239.3738 -3224.5696 -3209.967 -3195.465 -3180.9631 -3166.7632 -3152.5635 -3138.4644 -3124.6672 -3110.7695 -3097.0732 -3083.4778 -2682.962 -210.47974 2274.7925 3299.8992 3299.8992 3299.8992 3299.8992 3299.8992 3299.8992 3299.8992 3299.8992 3299.8992 3299.8992 3299.8992 3299.8992 3299.8992 3299.8992 3299.8992 3285.1958 3270.3918 3254.48 3251.4587 3267.4712 3283.1816 3298.892 -3286.0015 -3270.8953 -3255.6885 -3240.7837 -3226.0803 -3211.4775 -3196.875 -3182.373 -3168.0725 -3153.9734 -3139.9749 -3125.8757 -3112.0789 -3098.3826 -3084.7869 -2666.748 -408.7738 2102.2795 3299.8992 3299.8992 3299.8992 3299.8992 3299.8992 3299.8992 3299.8992 3299.8992 3299.8992 3299.8992 3299.8992 3299.8992 3299.8992 3299.8992 3299.8992 3285.6995 3270.6938 3254.8828 3254.48 3270.5933 3286.203 3299.8992 -3282.8796 -3267.7734 -3252.8687 -3237.863 -3223.059 -3208.4563 -3193.9543 -3179.5532 -3165.2527 -3151.1536 -3137.0544 -3123.1567 -3109.3596 -3095.5627 -3081.967 -2251.831 386.41663 2861.9202 3299.8992 3299.8992 3299.8992 3299.8992 3299.8992 3299.8992 3299.8992 3299.8992 3299.8992 3299.8992 3299.8992 3299.8992 3299.8992 3299.8992 3295.3674 3280.5632 3265.5579 3246.121 3252.1636 3268.1763 3283.786 3299.4963 -3285.3972 -3270.1904 -3255.1848 -3240.1794 -3225.3752 -3210.7727 -3196.2708 -3181.8694 -3167.6697 -3153.3691 -3139.3706 -3125.473 -3111.676 -3097.879 -3084.2834 -2528.778 18.127441 2581.3477 3299.8992 3299.8992 3299.8992 3299.8992 3299.8992 3299.8992 3299.8992 3299.8992 3299.8992 3299.8992 3299.8992 3299.8992 3299.8992 3299.8992 3296.9788 3281.9731 3266.9678 3230.612 3254.9834 3270.996 3286.6057 3299.8992 -3282.4768 -3267.3706 -3252.365 -3237.4602 -3222.8577 -3208.1543 -3193.6523 -3179.251 -3164.9504 -3150.8513 -3136.853 -3122.9553 -3109.0576 -3095.3613 
3108.3525 1817.3767 -60.827637 -1623.0103 -2907.5408 3131.8176 3148.0315 3163.742 3178.8481 3194.2566 3209.5642 3224.771 3239.8772 3254.9834 3269.989 3284.8938 3299.5972 -3285.5986 -3271.0967 -3256.5947 -3242.1936 -3227.893 1677.594 3299.8992 3299.8992 3299.8992 3299.8992 3299.8992 3287.915 3273.413 3258.609 3243.9055 3229.0007 3214.1968 3199.4934 3184.8906 3170.1873 3155.5847 3141.3848 3126.8828 3026.0742 1467.5171 -351.26953 -1833.7921 -3060.4155 3136.5508 3151.8584 3167.871 3183.4807 3198.8892 3214.096 3229.4036 3244.5098 3259.5154 3274.5208 3289.325 3299.8992 -3281.1675 -3266.565 -3252.1636 -3237.7625 -3223.5625 2384.5642 3299.8992 3299.8992 3299.8992 3299.8992 3299.8992 3289.8284 3275.125 3260.321 3245.6177 3230.713 3215.9087 3201.1047 3186.502 3171.8994 3157.3975 3143.097 3128.4941 2986.798 1358.551 -451.27258 -1851.2146 -3064.041 3138.3635 3154.4768 3170.1873 3185.2935 3200.702 3216.0095 3231.2163 3246.4233 3261.3281 3276.3335 3291.2383 3299.8992 -3279.4556 -3264.9536 -3250.3508 -3236.1511 -3221.6492 2880.3496 3299.8992 3299.8992 3299.8992 3299.8992 3299.8992 3289.5264 3274.823 3260.1196 3245.3154 3230.4106 3215.6067 3200.9033 3186.3005 3171.5972 3157.0952 3142.694 3128.2927 2833.9233 1044.2413 -685.4187 -2107.8186 -3243.805 3143.2983 3159.4116 3175.0212 3190.1274 3205.435 3220.7427 3235.9497 3250.955 3266.0613 3280.8655 3295.7703 -3289.5264 -3274.9236 -3260.321 -3245.9197 -3231.5186 -3034.8357 3299.8992 3299.8992 3299.8992 3299.8992 3299.8992 3299.8992 3291.8425 3277.1392 3262.3352 3247.531 3232.6262 3217.9229 3203.119 3188.4155 3173.8127 3159.2102 3144.9097 3130.5083 2916.504 1111.3129 -663.7665 -2015.7715 -3206.845 3144.406 3159.7136 3175.7263 3191.2354 3206.7444 3221.8506 3237.0574 3252.2644 3267.1692 3281.9731 3296.6765 -3288.4185 -3273.715 -3259.1125 -3244.7112 -3230.4106 -2930.5022 3299.8992 3299.8992 3299.8992 3299.8992 3299.8992 3299.8992 3291.2383 3276.535 3261.8315 3246.9268 3232.1228 3217.3186 3202.5146 3187.9119 3173.3093 3158.7065 3144.3054 3130.005 
-2960.0098 -2946.515 -2092.3096 -556.51245 1124.707 2570.4712 3299.8992 3299.8992 3299.8992 3299.8992 3299.8992 3299.8992 3299.8992 3299.8992 3299.8992 3299.8992 3299.8992 3299.8992 3299.8992 3299.8992 3299.8992 3299.8992 491.25366 -3204.0251 -3188.516 -3172.9065 -3157.6995 -3142.694 -3127.6885 -3112.7837 -3098.0803 -3083.4778 -3069.0764 -3054.6753 -3040.4753 -3026.2756 -3012.277 -2998.3794 -2984.4817 -2970.8862 -2957.19 -2943.7957 -1992.6086 -472.42126 1021.3806 2526.764 3299.8992 3299.8992 3299.8992 3299.8992 3299.8992 3299.8992 3299.8992 3299.8992 3299.8992 3299.8992 3299.8992 3299.8992 3299.8992 3299.8992 3299.8992 3299.8992 211.58752 -3200.0977 -3184.4878 -3169.0796 -3153.6711 -3138.6658 -3123.6602 -3108.8562 -3094.1528 -3079.651 -3065.048 -3050.8484 -3036.5479 -3022.4487 -3008.551 -2994.6533 -2980.8562 -2967.16 -2953.363 -2940.1702 -1645.166 -36.4563 1387.1521 2739.7612 3299.8992 3299.8992 3299.8992 3299.8992 3299.8992 3299.8992 3299.8992 3299.8992 3299.8992 3299.8992 3299.8992 3299.8992 3299.8992 3299.8992 3299.8992 3299.8992 -306.05164 -3200.8025 -3184.9915 -3169.583 -3154.3762 -3139.27 -3124.2644 -3109.3596 -3094.757 -3080.2551 -3065.7532 -3051.3518 -3037.2527 -3023.053 -3009.0544 -2995.0562 -2981.4604 -2967.6636 -2954.2693 -2911.0657 -1334.079 234.75037 1800.8606 3214.3982 3299.8992 3299.8992 3299.8992 3299.8992 3299.8992 3299.8992 3299.8992 3299.8992 3299.8992 3299.8992 3299.8992 3299.8992 3299.8992 3299.8992 3299.8992 3299.8992 -1024.704 -3204.8308 -3189.3218 -3173.9136 -3158.7065 -3143.6003 -3128.6956 -3113.7908 -3098.9868 -3084.4849 -3069.983 -3055.6824 -3041.4824 -3027.2827 -3013.1836 -2999.3865 -2985.4888 -2971.7925 -2958.197 -2925.1648 -1696.4264 -102.52075 1314.743 2709.851 3299.8992 3299.8992 3299.8992 3299.8992 3299.8992 3299.8992 3299.8992 3299.8992 3299.8992 3299.8992 3299.8992 3299.8992 3299.8992 3299.8992 3299.8992 3299.8992 -1397.8271 -3199.594 -3184.1858 -3168.7773 -3153.5706 -3138.4644 -3123.5596 -3108.7554 -3094.052 -3079.4495 -3065.048 -3050.7476 -3036.5479 -3022.4487 -3008.4502 -2994.5525 -2980.7556 -2967.16 
2802.603 1566.3116 155.69458 -938.80005 -1897.3389 -2737.9485 3268.0754 3093.6492 3110.266 3126.7822 3143.2983 3159.7136 3175.9277 3192.041 3208.0535 3224.0662 3239.978 3255.6885 3271.298 3287.0085 3299.8992 -3282.074 899.72534 3299.8992 3293.2524 3278.0457 3262.8386 3247.6318 3232.4248 3216.7144 3201.709 3186.502 3171.2952 3156.0881 3140.7805 3125.5737 3110.669 3095.6633 3080.96 3063.2354 2605.4167 1234.378 -72.71118 -1158.9478 -2089.9932 -2906.9365 3109.6619 3099.893 3116.51 3133.0261 3149.4414 3165.756 3181.9702 3197.9827 3214.096 3230.0078 3245.7183 3261.6301 3277.24 3292.9504 -3291.641 -3276.233 1134.2743 3299.8992 3297.7844 3282.6782 3267.4712 3252.063 3236.856 3221.1455 3206.1401 3190.8325 3175.525 3160.3179 3144.9097 3129.8035 3114.7979 3099.893 3085.089 3067.2637 2651.1382 1293.393 17.019653 -1075.9644 -1963.504 -2902.304 3085.391 3102.1086 3118.927 3135.3423 3151.8584 3168.0725 3184.4878 3200.5005 3216.4124 3232.3242 3248.3367 3263.8457 3279.5562 3295.3674 -3289.325 -3165.0513 1719.0857 3299.8992 3296.9788 3281.6711 3266.565 3251.2573 3236.1511 3220.1384 3205.2336 3190.0269 3174.5178 3159.4116 3144.2046 3128.897 3113.7908 3098.886 3084.2834 3066.0552 2674.9053 1335.9924 108.966064 -922.7875 -1928.3569 -2760.205 3121.9482 3098.7854 3115.503 3132.019 3148.6357 3165.0513 3180.9631 3197.0764 3213.1897 3229.2021 3244.9126 3260.9253 3276.4343 3291.9434 3299.8992 -3038.4612 1879.01 3299.8992 3292.6482 3277.542 3262.3352 3247.0276 3232.022 3216.0095 3201.2053 3185.8977 3170.691 3155.2825 3140.0757 3125.171 3109.9639 3095.16 3080.3557 3062.329 2554.66 1221.5881 -39.276123 -1103.2562 -1959.9792 -2702.4993 3126.178 3097.3755 3113.9922 3130.5083 3146.9238 3163.44 3179.6538 3195.767 3211.679 3227.5908 3243.6035 3259.314 3274.9236 3290.5334 3299.8992 -2778.2317 2415.5823 3299.8992 3288.5193 3273.3123 3258.1055 3242.7979 3227.6917 3211.8804 3196.875 3181.668 3166.4612 3151.0527 3135.9465 3120.7397 3105.9355 3091.0308 3076.126 3057.3943 
-1504.6783 -967.50183 -436.06567 -75.531006 101.61438 311.59058 489.44092 1004.8645 2391.7144 3299.8992 3299.8992 3299.8992 3299.8992 3299.8992 3299.8992 3299.8992 3299.8992 3299.8992 3299.8992 3299.8992 3299.8992 3270.3918 809.5917 -1310.614 -2972.699 -3137.86 -3122.9553 -3108.252 -3093.75 -3079.1472 -3064.8467 -3050.647 -3036.447 -3022.4487 -3008.7524 -2994.9553 -2981.1584 -2848.526 -2497.8606 -2132.492 -1643.3533 -1003.15247 -354.7943 -31.32019 317.23022 692.6697 818.5547 1455.4321 2891.1255 3299.8992 3299.8992 3299.8992 3299.8992 3299.8992 3299.8992 3299.8992 3299.8992 3299.8992 3299.8992 3299.8992 3299.8992 2914.5903 126.589966 -1921.8109 -3151.7578 -3136.5508 -3121.7468 -3106.9426 -3092.4407 -3078.0396 -3063.6382 -3049.4385 -3035.3394 -3021.3408 -3007.443 -2993.6462 -2979.7485 -2681.7534 -2146.0876 -1898.8495 -1490.7806 -1040.0116 -503.2379 -171.60645 214.70947 526.9043 774.9481 1458.6548 2916.9067 3299.8992 3299.8992 3299.8992 3299.8992 3299.8992 3299.8992 3299.8992 3299.8992 3299.8992 3299.8992 3299.8992 3299.8992 2967.5627 355.19714 -1747.4854 -3154.3762 -3139.27 -3124.3652 -3109.561 -3095.16 -3080.5571 -3066.2566 -3052.057 -3038.0583 -3024.06 -3010.1624 -2996.466 -2982.5684 -2734.9272 -2364.926 -2027.7557 -1829.6631 -1403.064 -921.8811 -568.1946 -161.83777 193.7622 571.0144 1376.1749 2822.3418 3299.8992 3299.8992 3299.8992 3299.8992 3299.8992 3299.8992 3299.8992 3299.8992 3299.8992 3299.8992 3299.8992 3299.8992 2710.8582 -60.928345 -2023.1232 -3139.1692 -3124.1638 -3109.259 -3094.6562 -3080.0537 -3065.8538 -3051.4526 -3037.2527 -3023.2544 -3009.3567 -2995.5596 -2981.964 -2968.3684 -2661.8132 -2303.2927 -1976.0925 -1560.3699 -930.8441 -486.21826 -173.82202 175.93689 432.23877 720.2637 1532.1716 3078.8452 3299.8992 3299.8992 3299.8992 3299.8992 3299.8992 3299.8992 3299.8992 3299.8992 3299.8992 3299.8992 3299.8992 3299.8992 2660.4033 -156.19812 -2142.0593 -3137.155 -3122.2502 -3107.4463 -3092.8435 -3078.241 -3063.8396 -3049.539 -3035.44 -3021.4417 -3007.6445 -2993.8477 -2980.0505 -2877.9326 -2459.491 -2072.6714 -1654.4312 

-9.970093 -9.970093 -9.970093 -9.970093 -9.970093 -9.970093 -9.970093 -9.970093 -9.970093 -9.970093 -9.970093 -9.970093 -9.970093 -9.970093 -9.970093 -9.970093 -9.970093 -9.970093 -9.970093 -9.970093 -9.970093 -9.970093 -9.970093 -9.970093 -9.970093 -9.970093 -9.970093 -9.970093 -9.970093 -9.970093 -9.970093 -9.970093 -9.970093 -9.970093 -9.970093 -9.970093 -9.970093 -9.970093 -9.970093 -9.970093 -9.970093 -9.970093 -9.970093 -9.970093 -9.970093 -9.970093 -9.970093 -9.970093 -9.970093 -9.970093 -9.970093 -9.970093 -9.970093 -9.970093 -9.970093 -9.970093 -9.970093 -9.970093 -9.970093 -9.970093 -9.970093 -9.970093 -9.970093 -9.970093 -9.970093 -9.970093 -9.970093 -9.970093 -9.970093 -9.970093 -9.970093 -9.970093 -9.970093 -9.970093 -9.970093 -9.970093 -9.970093 -9.970093 -9.970093 -9.970093 -9.970093 -9.970093 -9.970093 -9.970093 -9.970093 -9.970093 -9.970093 -9.970093 -9.970093 -9.970093 -9.970093 -9.970093 -9.970093 -9.970093 -9.970093 -9.970093 -9.970093 -9.970093 -9.970093 -9.970093 -9.970093 -9.970093 -9.970093 -9.970093 -9.970093 -9.970093 -9.970093 -9.970093 -9.970093 -9.970093 -9.970093 -9.970093 -9.970093 -9.970093 -9.970093 -9.970093 -9.970093 -9.970093 -9.970093 -9.970093 -9.970093 -9.970093 -9.970093 -9.970093 -9.970093 -9.970093 -9.970093 -9.970093 -9.970093 -9.970093 -9.970093 -9.970093 -9.970093 -9.970093 -9.970093 -9.970093 -9.970093 -9.970093 -9.970093 -9.970093 -9.970093 -9.970093 -9.970093 -9.970093 -9.970093 -9.970093 -9.970093 -9.970093 -9.970093 -9.970093 -9.970093 -9.970093 -9.970093 -9.970093 -9.970093 -9.970093 -9.970093 -9.970093 -9.970093 -9.970093 -9.970093 -9.970093 -9.970093 -9.970093 -9.970093 -9.970093 -9.970093 -9.970093 -9.970093 -9.970093 -9.970093 -9.970093 -9.970093 -9.970093 -9.970093 -9.970093 -9.970093 -9.970093 -9.970093 -9.970093 -9.970093 -9.970093 -9.970093 -9.970093 -9.970093 -9.970093 -9.970093 -9.970093 -9.970093 -9.970093 -9.970093 -9.970093 -9.970093 -9.970093 -9.970093 -9.970093 -9.970093 -9.970093 -9.970093 -9.970093 -9.970093 -9.970093 -9.970093 -9.970093 -9.970093 -9.970093 -9.970093 -9.970093 -9.970093 -9.970093 -9.970093 -9.970093 -9.970093 -9.970093 -9.970093 -9.970093 -9.970093 -9.970093 -9.970093 -9.970093 
-61.935425 -39.47754 -29.003906 -13.796997 6.9488525 2.3162842 6.7474365 1.3092041 -1.5106201 9.768677 22.76001 21.148682 -5.3375244 -32.025146 -15.811157 14.904785 12.286377 18.026733 22.860718 44.110107 39.175415 59.317017 74.2218 77.44446 98.19031 110.57739 89.730835 44.41223 28.80249 57.60498 81.27136 91.744995 117.022705 149.04785 166.97388 178.5553 162.03918 126.79138 133.03528 121.554565 109.67102 86.00464 19.436646 -81.27136 -173.72131 -221.05408 -227.7008 -206.25 -167.77954 -142.1997 -117.82837 -87.91809 -43.606567 -0.30212402 26.184082 18.530273 15.106201 6.4453125 -4.0283203 14.300537 23.666382 6.5460205 -16.415405 -39.779663 -53.57666 -60.525513 -47.836304 -30.31311 -11.984253 9.466553 12.991333 25.076294 52.770996 89.730835 109.87244 107.55615 104.937744 104.73633 94.46411 86.40747 60.021973 67.57507 57.504272 48.641968 26.385498 9.365845 5.7403564 2.7191162 4.2297363 32.42798 46.728516 56.69861 64.151 33.132935 -8.660889 -51.864624 -117.82837 -166.67175 -195.87708 -201.61743 -198.59619 -197.3877 -162.44202 -105.03845 -62.23755 -53.274536 -36.254883 -7.3516846 37.261963 87.91809 113.497925 88.82446 50.656128 28.601074 83.58765 127.99988 168.18237 202.5238 233.23975 264.55994 235.95886 159.11865 24.673462 -27.896118 -49.246216 -95.97473 -156.09741 -193.86292 -166.77246 -107.85828 -58.813477 -14.300537 -3.5247803 4.5318604 2.9205322 -26.586914 -63.74817 -97.787476 -116.82129 -124.87793 -150.15564 -169.693 -175.63477 -161.63635 -145.72449 -132.73315 -102.11792 -60.62622 -7.7545166 61.12976 118.533325 147.03369 122.15881 89.83154 80.4657 51.159668 8.157349 -12.286377 12.084961 7.1502686 17.22107 41.290283 60.021973 60.525513 54.68445 40.081787 29.708862 31.622314 18.73169 14.501953 23.464966 7.3516846 -15.911865 -46.224976 -67.17224 -102.01721 -79.156494 -30.715942 0.30212402 7.8552246 9.466553 13.092041 24.673462 23.464966 15.710449 10.675049 14.804077 0.70495605 -26.385498 -77.74658 -116.31775 -113.39722 -81.57349 -47.03064 -24.673462 -20.74585 -22.659302 -35.95276 -43.807983 -30.715942 -9.567261 23.062134 46.627808 44.613647 44.91577 27.79541 6.7474365 9.768677 1.7120361 7.9559326 15.206909 13.092041 -4.1290283 -38.067627 -56.5979 -52.468872 -20.343018 -0.60424805 17.623901 22.76001 
-3046.3164 -2841.0735 -345.32776 2693.637 3299.8992 3299.8992 3299.8992 3299.8992 3299.8992 3299.8992 3299.8992 3299.8992 3299.8992 3299.8992 3299.8992 3299.8992 3299.8992 3299.8992 3299.8992 3299.8992 3286.8071 3216.7144 3276.132 3293.5547 -3289.8284 -3273.6145 -3257.199 -3241.1865 -3225.1738 -3209.262 -3193.753 -3178.1433 -3162.7349 -3147.4272 -3132.4219 -3117.4163 -3102.6123 -3087.909 -3073.407 -3058.905 -3044.6045 -2642.7795 -49.850464 3040.0725 3299.8992 3299.8992 3299.8992 3299.8992 3299.8992 3299.8992 3299.8992 3299.8992 3299.8992 3299.8992 3299.8992 3299.8992 3299.8992 3299.8992 3299.8992 3299.8992 3285.6995 2970.282 3277.542 3294.159 -3289.224 -3272.6074 -3256.192 -3239.978 -3224.0662 -3208.255 -3192.4438 -3177.0354 -3161.5264 -3146.4202 -3131.314 -3116.3086 -3101.5044 -3086.801 -3072.299 -3057.898 -3043.5974 -2476.007 301.62048 3299.8992 3299.8992 3299.8992 3299.8992 3299.8992 3299.8992 3299.8992 3299.8992 3299.8992 3299.8992 3299.8992 3299.8992 3299.8992 3299.8992 3299.8992 3299.8992 3298.993 3283.081 2553.6528 3276.9377 3294.2595 -3289.0227 -3272.708 -3256.4941 -3240.4814 -3224.469 -3208.7585 -3193.048 -3177.539 -3162.2314 -3146.9238 -3131.8176 -3116.9128 -3102.008 -3087.4053 -3072.702 -3058.4014 -3044.1008 -2439.2485 372.3175 3299.8992 3299.8992 3299.8992 3299.8992 3299.8992 3299.8992 3299.8992 3299.8992 3299.8992 3299.8992 3299.8992 3299.8992 3299.8992 3299.8992 3299.8992 3299.8992 3298.1873 3282.074 2040.3442 3278.3477 3294.9646 -3288.4185 -3271.8018 -3255.3862 -3239.273 -3223.361 -3207.55 -3191.8396 -3176.4312 -3161.023 -3145.816 -3130.7097 -3115.7043 -3100.9001 -3086.2976 -3071.6948 -3057.1929 -3042.9932 -2363.4155 359.5276 3299.8992 3299.8992 3299.8992 3299.8992 3299.8992 3299.8992 3299.8992 3299.8992 3299.8992 3299.8992 3299.8992 3299.8992 3299.8992 3299.8992 3299.8992 3299.8992 3298.6907 3282.6782 1357.7454 3280.664 3297.885 -3285.3972 -3269.1833 -3252.9692 -3236.856 -3221.045 -3205.2336 -3189.7246 -3174.115 -3158.8074 -3143.4998 -3128.4941 -3113.4888 -3098.7854 -3084.082 -3069.58 -3055.1787 -3040.8782 -2030.1727 839.0991 3299.8992 3299.8992 3299.8992 3299.8992 3299.8992 3299.8992 3299.8992 3299.8992 3299.8992 3299.8992 3299.8992 3299.8992 3299.8992 3299.8992 3299.8992 3299.8992 3296.576 
-3081.7656 -2386.377 -115.31067 2419.107 3299.8992 3299.8992 3299.8992 3299.8992 3299.8992 3299.8992 3299.8992 3299.8992 3299.8992 3299.8992 3299.8992 3299.8992 3299.8992 3299.8992 3299.8992 3284.793 3269.7876 2999.8901 3260.4216 3276.132 3291.742 3299.8992 -3277.4414 -3262.2344 -3247.229 -3232.5256 -3217.7214 -3203.119 -3188.617 -3174.3164 -3160.1165 -3146.0173 -3131.9182 -3118.1213 -3104.3242 -3090.628 -3077.133 -1389.0656 1044.9463 3299.8992 3299.8992 3299.8992 3299.8992 3299.8992 3299.8992 3299.8992 3299.8992 3299.8992 3299.8992 3299.8992 3299.8992 3299.8992 3299.8992 3299.8992 3292.1448 3277.3406 3262.2344 2711.7644 3254.6814 3270.5933 3286.203 3299.8992 -3282.9802 -3267.874 -3252.8687 -3237.9639 -3223.2605 -3208.6577 -3194.1558 -3179.6538 -3165.454 -3151.2542 -3137.2559 -3123.3582 -3109.561 -3095.8647 -3082.2693 -1536.7035 974.8535 3299.8992 3299.8992 3299.8992 3299.8992 3299.8992 3299.8992 3299.8992 3299.8992 3299.8992 3299.8992 3299.8992 3299.8992 3299.8992 3299.8992 3299.8992 3288.3179 3273.413 3258.4075 2310.2417 3252.7678 3268.6797 3284.2896 3299.4963 -3284.9944 -3269.7876 -3254.8828 -3239.8772 -3225.1738 -3210.4705 -3195.9685 -3181.5674 -3167.2668 -3153.1677 -3139.0686 -3125.171 -3111.3738 -3097.6775 -3084.1826 -1745.3705 653.29285 2892.5354 3299.8992 3299.8992 3299.8992 3299.8992 3299.8992 3299.8992 3299.8992 3299.8992 3299.8992 3299.8992 3299.8992 3299.8992 3299.8992 3299.8992 3290.1306 3275.125 3260.1196 1639.6271 3256.897 3272.708 3288.3179 3299.8992 -3280.8655 -3265.8599 -3250.8545 -3235.9497 -3221.1455 -3206.6436 -3192.1416 -3177.7405 -3163.44 -3149.4414 -3135.3423 -3121.4446 -3107.6477 -3093.9514 -3080.4565 -1061.966 1377.9877 3299.8992 3299.8992 3299.8992 3299.8992 3299.8992 3299.8992 3299.8992 3299.8992 3299.8992 3299.8992 3299.8992 3299.8992 3299.8992 3299.8992 3299.8992 3285.1958 3270.291 3255.2856 969.3146 3254.48 3270.291 3286.0015 3299.8992 -3283.2825 -3268.1763 -3253.1707 -3238.2659 -3223.5625 -3208.96 -3194.458 -3180.0566 -3165.6555 -3151.5564 -3137.5579 -3123.6602 -3109.8633 -3096.167 -3082.5713 -980.39246 1409.3079 3299.8992 3299.8992 3299.8992 3299.8992 3299.8992 3299.8992 3299.8992 3299.8992 3299.8992 3299.8992 3299.8992 3299.8992 3299.8992 3299.8992 3297.583 3282.6782 3267.7734 
2854.1655 1195.7062 -480.98145 -1905.899 -3086.0962 3142.2913 3157.5989 3173.5107 3189.1204 3204.5288 3219.7356 3234.9426 3250.0488 3265.0542 3280.0598 3294.7632 -3290.4326 -3275.7292 -3261.2273 -3246.7253 -3232.4248 -2595.4468 3299.8992 3299.8992 3299.8992 3299.8992 3299.8992 3299.8992 3287.3108 3272.708 3257.7026 3242.9993 3228.195 3213.4917 3198.6877 3184.085 3169.3816 3154.8796 3140.68 3126.178 2815.2922 1045.2484 -590.1489 -1978.9124 -3155.2825 3140.0757 3155.5847 3171.3958 3187.0056 3202.4138 3217.6208 3232.727 3247.7324 3263.04 3277.9448 3292.8496 -3292.4468 -3277.8442 -3263.3423 -3248.8403 -3234.5398 -2218.7988 3299.8992 3299.8992 3299.8992 3299.8992 3299.8992 3297.1802 3282.4768 3267.7734 3252.9692 3238.2659 3223.462 3208.7585 3194.0552 3179.251 3164.8499 3150.247 3135.9465 3121.1426 2559.091 696.8994 -1017.5537 -2391.211 3127.588 3143.2983 3159.4116 3174.9207 3190.1274 3205.435 3220.7427 3235.8489 3250.955 3265.8599 3280.966 3295.7703 -3289.5264 -3274.9236 -3260.4216 -3246.0205 -3231.72 -1823.6206 3299.8992 3299.8992 3299.8992 3299.8992 3299.8992 3298.2878 3283.9873 3269.3848 3254.6814 3239.8772 3224.8718 3210.269 3195.5657 3180.8623 3166.2598 3151.657 3137.5579 3121.4446 2583.8652 679.0741 -935.6781 -2350.7263 3128.6956 3143.9026 3159.3108 3175.122 3190.7317 3206.0393 3221.347 3236.554 3251.5593 3266.565 3281.5703 3296.475 -3289.1235 -3274.4202 -3259.7168 -3245.3154 -3231.015 -1390.3748 3299.8992 3299.8992 3299.8992 3299.8992 3299.8992 3296.6765 3281.8726 3267.2698 3252.5664 3237.7625 3222.9583 3208.1543 3193.5515 3179.0496 3164.2456 3149.7437 3135.443 3118.1213 2386.7798 517.53845 -1127.2247 -2478.5247 3129.2998 3145.2117 3161.325 3176.834 3191.9402 3207.2478 3222.4548 3237.6616 3253.07 3267.874 3282.6782 3297.4822 -3287.8142 -3273.2117 -3258.7097 -3244.2078 -3229.9072 -989.15405 3299.8992 3299.8992 3299.8992 3299.8992 3299.8992 3296.173 3281.4697 3266.7664 3252.063 3237.2588 3222.4548 3207.6506 3192.9473 3178.3447 3163.8428 3149.3408 3134.9395 3117.4163 2263.916 288.22632 -1203.1586 -2614.1785 3132.019 3147.83 3163.1377 3179.0496 3194.6594 3209.8662 3225.1738 3240.28 3255.3862 3270.291 3285.1958 3299.8992 -3285.2966 -3270.5933 -3256.192 -3241.7908 
-2953.5645 -2801.8982 -1209.5032 471.01135 1849.3011 3086.0962 3299.8992 3299.8992 3299.8992 3299.8992 3299.8992 3299.8992 3299.8992 3299.8992 3299.8992 3299.8992 3299.8992 3299.8992 3299.8992 3299.8992 3299.8992 3299.8992 -1880.9235 -3202.4138 -3186.6028 -3171.0938 -3155.9875 -3140.8813 -3126.0771 -3111.1724 -3096.5698 -3081.967 -3067.465 -3053.064 -3038.864 -3024.8657 -3010.6658 -2996.9695 -2983.0718 -2969.3755 -2955.78 -2769.5708 -1256.0303 326.19324 1807.1045 3042.288 3299.8992 3299.8992 3299.8992 3299.8992 3299.8992 3299.8992 3299.8992 3299.8992 3299.8992 3299.8992 3299.8992 3299.8992 3299.8992 3299.8992 3299.8992 3299.8992 -2230.783 -3201.8096 -3185.9985 -3170.691 -3155.3833 -3140.3777 -3125.473 -3110.568 -3095.9656 -3081.4636 -3066.9617 -3052.5603 -3038.3606 -3024.362 -3010.263 -2996.3652 -2982.5684 -2968.9727 -2955.3772 -2532.7056 -1164.4867 285.5072 1656.8481 2983.5754 3299.8992 3299.8992 3299.8992 3299.8992 3299.8992 3299.8992 3299.8992 3299.8992 3299.8992 3299.8992 3299.8992 3299.8992 3299.8992 3299.8992 3299.8992 3299.8992 -2759.5 -3199.3926 -3183.8835 -3168.4753 -3153.3691 -3138.263 -3123.3582 -3108.554 -3093.8506 -3079.3486 -3064.9475 -3050.5461 -3036.3464 -3022.2473 -3008.3496 -2994.452 -2980.6548 -2966.9585 -2953.363 -2455.8655 -932.65686 503.54004 1777.6978 2971.1882 3299.8992 3299.8992 3299.8992 3299.8992 3299.8992 3299.8992 3299.8992 3299.8992 3299.8992 3299.8992 3299.8992 3299.8992 3299.8992 3299.8992 3299.8992 3072.8027 -3212.7869 -3196.9756 -3181.5674 -3166.2598 -3151.0527 -3135.9465 -3121.0417 -3106.137 -3091.635 -3077.133 -3062.631 -3048.3306 -3034.2314 -3020.0317 -3006.134 -2992.337 -2978.54 -2964.8438 -2951.3489 -2413.3667 -793.07556 690.7562 2195.1323 3299.8992 3299.8992 3299.8992 3299.8992 3299.8992 3299.8992 3299.8992 3299.8992 3299.8992 3299.8992 3299.8992 3299.8992 3299.8992 3299.8992 3299.8992 3299.8992 2860.5103 -3214.7002 -3198.587 -3182.8765 -3167.5688 -3152.362 -3137.2559 -3122.4517 -3107.6477 -3093.045 -3078.4424 -3064.041 -3049.64 -3035.44 -3021.3408 -3007.443 -2993.5454 -2979.7485 -2966.1528 -2952.658 -2336.325 -739.4989 827.5177 2302.9907 3299.8992 3299.8992 3299.8992 3299.8992 3299.8992 3299.8992 3299.8992 3299.8992 3299.8992 3299.8992 3299.8992 3299.8992 3299.8992 3299.8992 3299.8992 
2404.2021 1024.5026 -153.57971 -1200.4395 -2059.5793 -2888.7085 3080.8594 3097.6775 3114.2944 3130.8105 3147.3267 3163.742 3179.8552 3195.9685 3211.9812 3227.9937 3243.805 3259.5154 3275.125 3290.8354 3299.8992 -2507.428 2766.2476 3299.8992 3286.6057 3271.399 3255.9905 3240.8843 3225.778 3209.967 3194.9614 3179.7546 3164.5476 3149.3408 3134.1338 3118.927 3104.1228 3089.218 3074.5146 3054.6753 2256.0608 763.266 -440.79895 -1396.6187 -2254.3486 -2959.909 3084.6863 3101.5044 3118.1213 3134.6375 3151.0527 3167.3674 3183.4807 3199.6948 3215.6067 3231.5186 3247.3296 3263.04 3278.8513 3294.3604 -3290.1306 -2230.6824 3187.509 3299.8992 3287.7136 3272.6074 3257.199 3241.9922 3226.886 3210.974 3196.0693 3180.8623 3165.454 3150.247 3135.0403 3119.934 3104.9285 3090.225 3075.4211 3055.9844 2263.211 767.89856 -404.74548 -1293.6951 -2217.389 -3023.6572 3085.5925 3102.411 3119.0276 3135.443 3151.9592 3168.274 3184.2864 3200.5005 3216.513 3232.3242 3248.236 3264.047 3279.4556 3295.166 -3289.4255 -1966.5253 3299.8992 3299.8992 3286.908 3271.8018 3256.4941 3241.1865 3226.0803 3210.1685 3195.2637 3180.0566 3164.8499 3149.4414 3134.3352 3119.229 3104.2236 3089.4194 3074.2126 3052.1575 2173.4802 717.9474 -431.2317 -1406.8909 -2323.8372 -3129.1992 3087.2039 3103.8208 3120.639 3137.155 3153.5706 3169.8853 3185.9985 3202.1118 3217.9229 3234.0361 3249.7466 3265.457 3281.2683 3296.6765 -3287.915 -1560.9741 3299.8992 3299.8992 3285.901 3270.6938 3255.487 3240.28 3225.1738 3209.262 3194.1558 3179.0496 3163.742 3148.3337 3133.2275 3118.1213 3103.2166 3088.3118 3073.709 3042.288 2098.2512 596.3928 -510.18677 -1446.0663 -2273.4832 -3023.9592 3086.9019 3103.72 3120.4375 3136.853 3153.2683 3169.6838 3185.797 3201.8096 3217.9229 3233.8347 3249.4446 3265.2556 3280.8655 3296.576 -3288.1165 -1197.821 3299.8992 3298.4893 3283.383 3268.1763 3252.9692 3237.863 3222.5554 3206.6436 3191.7388 3176.532 3161.325 3146.0173 3130.8105 3115.9058 3100.9001 3086.0962 3071.4934 3020.938 1983.7463 503.64075 -571.3165 -1501.6571 -2318.2983 -3022.2473 3086.3982 3103.3171 3119.934 3136.3494 3152.8655 3169.0796 3185.2935 3201.2053 3217.3186 3233.3313 3249.1423 3264.6514 3280.3618 3296.0723 
-1326.828 -840.1062 -455.70374 -139.78271 139.07776 418.13965 591.65955 1388.7634 2898.0742 3299.8992 3299.8992 3299.8992 3299.8992 3299.8992 3299.8992 3299.8992 3299.8992 3299.8992 3299.8992 3299.8992 3299.8992 2306.6162 -490.24658 -2344.583 -3134.2346 -3119.229 -3104.425 -3089.8223 -3075.3203 -3060.9192 -3046.7192 -3032.62 -3018.521 -3004.724 -2991.0278 -2977.3315 -2875.415 -2450.2258 -2057.968 -1651.9135 -1257.5409 -760.9497 -290.4419 -14.904785 350.26245 587.3291 929.4342 1730.2643 3263.6443 3299.8992 3299.8992 3299.8992 3299.8992 3299.8992 3299.8992 3299.8992 3299.8992 3299.8992 3299.8992 3299.8992 3299.8992 2173.7822 -629.22363 -2518.0022 -3137.6587 -3122.653 -3107.849 -3093.2463 -3078.7444 -3064.2424 -3049.942 -3035.9436 -3021.945 -3008.1482 -2994.2505 -2980.6548 -2966.9585 -2633.4136 -2251.5288 -1926.7456 -1338.0066 -807.074 -393.36548 -123.16589 185.70557 440.2954 769.4092 1788.0707 3299.8992 3299.8992 3299.8992 3299.8992 3299.8992 3299.8992 3299.8992 3299.8992 3299.8992 3299.8992 3299.8992 3299.8992 3299.8992 2171.0632 -512.9059 -2373.285 -3136.0474 -3121.0417 -3106.2378 -3091.635 -3077.133 -3062.8325 -3048.532 -3034.3323 -3020.3337 -3006.436 -2992.8406 -2979.0435 -2964.6423 -2693.335 -2289.395 -1936.5143 -1525.4242 -970.5231 -404.64478 66.26587 340.49377 568.1946 910.2997 1908.9203 3299.8992 3299.8992 3299.8992 3299.8992 3299.8992 3299.8992 3299.8992 3299.8992 3299.8992 3299.8992 3299.8992 3299.8992 3299.8992 1998.7518 -687.735 -2504.306 -3133.6304 -3118.5242 -3103.72 -3089.218 -3074.716 -3060.5164 -3046.2158 -3032.0159 -3018.1182 -3004.2205 -2990.4236 -2976.7273 -2764.334 -2427.6672 -2076.9011 -1722.7112 -1227.0264 -686.5265 -179.8645 103.22571 239.18152 426.69983 836.6821 1978.1067 3299.8992 3299.8992 3299.8992 3299.8992 3299.8992 3299.8992 3299.8992 3299.8992 3299.8992 3299.8992 3299.8992 3299.8992 3299.8992 1633.786 -892.9779 -2622.638 -3134.436 -3119.5312 -3104.6265 -3090.1245 -3075.6226 -3061.2212 -3047.122 -3032.9224 -3018.9238 -3005.127 -2991.4307 -2977.6335 -2883.4717 -2634.723 -2208.2244 -1970.8557 -1484.7382 -763.97095 -247.03674 147.43652 517.73987 793.8812 1226.7242 2356.1646 3299.8992 3299.8992 3299.8992 3299.8992 3299.8992 3299.8992 3299.8992 3299.8992 3299.8992 3299.8992 3299.8992 3299.8992 

-9.970093 -9.970093 -9.970093 -9.970093 -9.970093 -9.970093 -9.970093 -9.970093 -9.970093 -9.970093 -9.970093 -9.970093 -9.970093 -9.970093 -9.970093 -9.970093 -9.970093 -9.970093 -9.970093 -9.970093 -9.970093 -9.970093 -9.970093 -9.970093 -9.970093 -9.970093 -9.970093 -9.970093 -9.970093 -9.970093 -9.970093 -9.970093 -9.970093 -9.970093 -9.970093 -9.970093 -9.970093 -9.970093 -9.970093 -9.970093 -9.970093 -9.970093 -9.970093 -9.970093 -9.970093 -9.970093 -9.970093 -9.970093 -9.970093 -9.970093 -9.970093 -9.970093 -9.970093 -9.970093 -9.970093 -9.970093 -9.970093 -9.970093 -9.970093 -9.970093 -9.970093 -9.970093 -9.970093 -9.970093 -9.970093 -9.970093 -9.970093 -9.970093 -9.970093 -9.970093 -9.970093 -9.970093 -9.970093 -9.970093 -9.970093 -9.970093 -9.970093 -9.970093 -9.970093 -9.970093 -9.970093 -9.970093 -9.970093 -9.970093 -9.970093 -9.970093 -9.970093 -9.970093 -9.970093 -9.970093 -9.970093 -9.970093 -9.970093 -9.970093 -9.970093 -9.970093 -9.970093 -9.970093 -9.970093 -9.970093 -9.970093 -9.970093 -9.970093 -9.970093 -9.970093 -9.970093 -9.970093 -9.970093 -9.970093 -9.970093 -9.970093 -9.970093 -9.970093 -9.970093 -9.970093 -9.970093 -9.970093 -9.970093 -9.970093 -9.970093 -9.970093 -9.970093 -9.970093 -9.970093 -9.970093 -9.970093 -9.970093 -9.970093 -9.970093 -9.970093 -9.970093 -9.970093 -9.970093 -9.970093 -9.970093 -9.970093 -9.970093 -9.970093 -9.970093 -9.970093 -9.970093 -9.970093 -9.970093 -9.970093 -9.970093 -9.970093 -9.970093 -9.970093 -9.970093 -9.970093 -9.970093 -9.970093 -9.970093 -9.970093 -9.970093 -9.970093 -9.970093 -9.970093 -9.970093 -9.970093 -9.970093 -9.970093 -9.970093 -9.970093 -9.970093 -9.970093 -9.970093 -9.970093 -9.970093 -9.970093 -9.970093 -9.970093 -9.970093 -9.970093 -9.970093 -9.970093 -9.970093 -9.970093 -9.970093 -9.970093 -9.970093 -9.970093 -9.970093 -9.970093 -9.970093 -9.970093 -9.970093 -9.970093 -9.970093 -9.970093 -9.970093 -9.970093 -9.970093 -9.970093 -9.970093 -9.970093 -9.970093 -9.970093 -9.970093 -9.970093 
10.372925 8.358765 -1.6113281 -28.903198 -70.3949 -69.79065 -52.56958 -31.924438 15.609741 43.00232 37.664795 12.890625 16.516113 16.415405 24.874878 20.544434 11.682129 12.185669 10.372925 -4.7332764 6.3446045 35.34851 28.500366 25.177002 11.380005 3.0212402 8.660889 17.825317 16.918945 34.643555 53.878784 59.417725 66.6687 116.015625 185.40344 290.24048 410.38513 515.9271 540.802 567.3889 584.30786 584.40857 541.8091 464.0625 343.4143 164.15405 -24.975586 -218.8385 -390.44495 -486.21826 -500.4181 -470.2057 -407.26318 -358.92334 -320.45288 -265.4663 -191.44592 -128.50342 -84.79614 -52.871704 -69.89136 -115.512085 -183.08716 -199.50256 -191.04309 -188.02185 -181.37512 -141.79688 -105.74341 -93.55774 -99.49951 -92.95349 -58.813477 -29.708862 -36.95984 -61.029053 -28.198242 -14.099121 15.609741 31.018066 -6.5460205 -100.00305 -162.54272 -146.83228 -86.00464 -50.55542 -43.103027 -55.08728 -57.10144 -57.10144 -51.5625 -36.95984 -17.019653 8.560181 13.595581 19.73877 17.72461 19.134521 32.93152 37.564087 41.693115 48.44055 68.68286 76.84021 56.5979 12.286377 7.8552246 17.926025 11.782837 15.206909 26.78833 30.413818 30.111694 24.169922 25.177002 17.926025 11.279297 5.4382324 11.682129 35.85205 76.638794 126.38855 183.79211 250.96436 293.96667 342.60864 362.75024 367.98706 351.26953 296.58508 239.28223 192.75513 146.63086 71.90552 -23.968506 -70.69702 -85.5011 -118.029785 -161.83777 -198.7976 -217.12646 -204.33655 -195.57495 -211.1847 -204.73938 -164.05334 -90.13367 -38.47046 -10.876465 -19.335938 -40.48462 -60.324097 -72.61047 -132.63245 -173.72131 -192.25159 -188.32397 -167.77954 -127.093506 -66.16516 -22.055054 -6.2438965 11.380005 18.530273 9.567261 -5.2368164 -23.464966 0 59.71985 116.519165 128.90625 76.94092 59.61914 55.490112 54.483032 30.917358 69.1864 75.83313 52.166748 12.185669 -35.549927 -63.345337 -46.728516 -30.212402 8.761597 41.290283 48.239136 -4.4311523 -35.751343 -30.212402 -25.881958 -2.1148682 38.671875 58.10852 61.73401 29.608154 18.933105 17.019653 19.537354 27.392578 
3280.4626 285.3058 3282.074 3298.59 -3284.793 -3268.1763 -3251.8616 -3235.7483 -3219.8364 -3204.0251 -3188.4155 -3172.8057 -3157.5989 -3142.3918 -3127.2856 -3112.4817 -3097.577 -3082.974 -3068.4722 -3053.9702 -3039.7705 -1945.578 953.1006 3299.8992 3299.8992 3299.8992 3299.8992 3299.8992 3299.8992 3299.8992 3299.8992 3299.8992 3299.8992 3299.8992 3299.8992 3299.8992 3299.8992 3299.8992 3299.8992 3296.3745 3280.2612 -597.5006 3283.9873 3299.8992 -3282.9802 -3266.464 -3250.1494 -3234.0361 -3218.1243 -3202.4138 -3186.7034 -3171.2952 -3155.8867 -3140.68 -3125.6743 -3110.8704 -3095.9656 -3081.3628 -3066.8608 -3052.4597 -3038.1592 -1438.916 1475.8759 3299.8992 3299.8992 3299.8992 3299.8992 3299.8992 3299.8992 3299.8992 3299.8992 3299.8992 3299.8992 3299.8992 3299.8992 3299.8992 3299.8992 3299.8992 3299.8992 3292.9504 3276.6357 -1667.0197 3282.4768 3299.5972 -3283.786 -3267.572 -3251.4587 -3235.3455 -3219.4336 -3203.7231 -3188.214 -3172.705 -3157.2966 -3142.1904 -3127.0842 -3112.2803 -3097.3755 -3082.672 -3068.2708 -3053.7688 -3039.569 -1254.0161 1547.2778 3299.8992 3299.8992 3299.8992 3299.8992 3299.8992 3299.8992 3299.8992 3299.8992 3299.8992 3299.8992 3299.8992 3299.8992 3299.8992 3299.8992 3299.8992 3299.8992 3290.4326 3274.2188 -2604.712 3282.8796 3299.1943 -3284.1887 -3267.572 -3251.2573 -3235.144 -3219.2322 -3203.5217 -3187.9119 -3172.4028 -3157.0952 -3141.8884 -3126.8828 -3111.978 -3097.174 -3082.4707 -3067.9688 -3053.5674 -3039.2668 -1521.0938 1417.0624 3299.8992 3299.8992 3299.8992 3299.8992 3299.8992 3299.8992 3299.8992 3299.8992 3299.8992 3299.8992 3299.8992 3299.8992 3299.8992 3299.8992 3299.8992 3299.8992 3292.5476 3276.132 3269.0825 3286.203 3299.8992 -3280.0598 -3263.8457 -3247.8333 -3231.8206 -3215.808 -3200.1982 -3184.5886 -3169.0796 -3153.8726 -3138.6658 -3123.6602 -3108.6548 -3093.9514 -3079.3486 -3064.9475 -3050.5461 -3036.145 -1020.0714 1950.5127 3299.8992 3299.8992 3299.8992 3299.8992 3299.8992 3299.8992 3299.8992 3299.8992 3299.8992 3299.8992 3299.8992 3299.8992 3299.8992 3299.8992 3299.8992 3299.8992 3290.4326 
3252.7678 94.66553 3254.48 3270.3918 3285.8 3299.8992 -3283.383 -3268.2769 -3253.2715 -3238.4673 -3223.5625 -3209.0605 -3194.5586 -3180.1575 -3165.9575 -3151.7578 -3137.6587 -3123.8616 -3110.0647 -3096.3684 -3082.672 -1246.463 1152.4017 3299.8992 3299.8992 3299.8992 3299.8992 3299.8992 3299.8992 3299.8992 3299.8992 3299.8992 3299.8992 3299.8992 3299.8992 3299.8992 3299.8992 3299.8992 3285.0952 3270.291 3255.0842 -601.3275 3258.8103 3274.6216 3290.2312 3299.8992 -3279.1533 -3264.047 -3249.0417 -3234.3384 -3219.5342 -3204.9316 -3190.4297 -3176.1292 -3161.9292 -3147.83 -3133.731 -3119.934 -3106.137 -3092.4407 -3052.6611 -718.65234 1681.0181 3299.8992 3299.8992 3299.8992 3299.8992 3299.8992 3299.8992 3299.8992 3299.8992 3299.8992 3299.8992 3299.8992 3299.8992 3299.8992 3299.8992 3298.2878 3283.383 3268.579 3253.1707 -1428.0396 3259.1125 3274.9236 3290.5334 3299.8992 -3278.8513 -3263.8457 -3248.7395 -3233.8347 -3219.2322 -3204.7302 -3190.1274 -3175.9277 -3161.6272 -3147.528 -3133.5295 -3119.6318 -3105.9355 -3092.1387 -2998.2788 -754.2023 1460.1654 3299.8992 3299.8992 3299.8992 3299.8992 3299.8992 3299.8992 3299.8992 3299.8992 3299.8992 3299.8992 3299.8992 3299.8992 3299.8992 3299.8992 3299.6978 3284.6924 3269.8882 3254.48 -2296.9482 3262.6372 3278.3477 3293.9575 3299.8992 -3275.5278 -3260.4216 -3245.4163 -3230.612 -3215.9087 -3201.4067 -3187.0056 -3172.6042 -3158.4045 -3144.3054 -3130.4077 -3116.4092 -3102.8137 -3089.1174 -2933.8257 -228.30505 2208.023 3299.8992 3299.8992 3299.8992 3299.8992 3299.8992 3299.8992 3299.8992 3299.8992 3299.8992 3299.8992 3299.8992 3299.8992 3299.8992 3299.8992 3296.2737 3281.4697 3266.464 3251.056 3256.2927 3261.8315 3277.542 3293.051 3299.8992 -3276.132 -3261.2273 -3246.222 -3231.5186 -3216.8152 -3202.2124 -3187.7104 -3173.41 -3159.2102 -3145.111 -3131.1125 -3117.3157 -3103.5186 -3089.8223 -2730.6975 -286.7157 2081.2317 3299.8992 3299.8992 3299.8992 3299.8992 3299.8992 3299.8992 3299.8992 3299.8992 3299.8992 3299.8992 3299.8992 3299.8992 3299.8992 3299.8992 3295.6694 3280.7646 3265.8599 
-3227.4902 -417.93823 3299.8992 3299.8992 3299.8992 3299.8992 3299.8992 3295.9717 3281.6711 3267.0684 3252.2644 3237.4602 3222.5554 3207.852 3193.1487 3178.4453 3163.9434 3149.6428 3135.1409 3117.7185 2214.871 271.6095 -1211.3159 -2573.291 3131.7168 3147.4272 3163.6414 3179.1504 3194.1558 3209.5642 3224.8718 3239.978 3254.9834 3269.989 3284.8938 3299.6978 -3285.5986 -3270.996 -3256.4941 -3242.0928 -3227.7922 27.191162 3299.8992 3299.8992 3299.8992 3299.8992 3299.8992 3294.2595 3279.5562 3264.8528 3250.1494 3235.3455 3220.5413 3205.7373 3191.034 3176.532 3161.9292 3147.528 3133.2275 3116.3086 2233.0994 221.15479 -1305.6793 -2634.723 3131.314 3147.1252 3162.332 3178.3447 3193.753 3209.1614 3224.3682 3239.5752 3254.48 3269.5862 3284.3901 3299.295 -3285.901 -3271.399 -3256.897 -3242.395 -3228.195 611.90186 3299.8992 3299.8992 3299.8992 3299.8992 3299.8992 3291.339 3277.0386 3262.3352 3247.531 3232.8276 3217.9229 3203.2195 3188.617 3173.9136 3159.4116 3145.0103 3130.7097 3112.3809 1989.8895 26.184082 -1393.8995 -2665.5396 3130.7097 3146.6216 3162.6343 3178.1433 3193.2495 3208.5571 3223.8647 3238.971 3254.0771 3268.982 3283.8867 3298.6907 -3286.6057 -3272.1038 -3257.4004 -3242.9993 -3228.7993 1008.5907 3299.8992 3299.8992 3299.8992 3299.8992 3299.8992 3289.627 3274.823 3260.1196 3245.4163 3230.612 3215.9087 3201.1047 3186.502 3171.7986 3157.3975 3142.996 3128.595 3080.658 1673.7671 -203.43018 -1623.5138 -2914.1875 3134.2346 3150.0457 3166.0583 3181.5674 3196.6736 3211.8804 3227.0874 3242.2942 3257.2998 3272.3052 3287.3108 3299.8992 -3283.383 -3268.7805 -3254.3792 -3239.978 -3225.6775 1672.76 3299.8992 3299.8992 3299.8992 3299.8992 3299.8992 3290.1306 3275.83 3261.1267 3246.524 3231.6191 3216.7144 3202.011 3187.4084 3172.8057 3158.4045 3143.9026 3129.602 3106.9426 1839.8346 -39.175415 -1390.5762 -2518.103 3129.904 3145.7153 3161.8286 3177.3376 3192.4438 3207.7515 3223.059 3238.3667 3253.1707 3268.1763 3283.081 3297.9858 -3287.4114 -3272.8088 -3258.307 -3243.805 
