-8.761597 -13.293457 -43.606567 -76.034546 -107.15332 -130.01404 -91.34216 -39.88037 -41.693115 -41.088867 -84.2926 -102.62146 -59.921265 -9.265137 32.93152 107.55615 108.966064 87.01172 88.52234 73.71826 34.643555 -2.7191162 -20.947266 -3.0212402 -8.258057 1.6113281 -2.0141602 45.721436 91.14075 97.283936 88.32092 74.42322 61.331177 83.28552 85.198975 61.935425 65.66162 75.73242 29.608154 -81.87561 
-5.1361084 8.560181 57.806396 93.96057 79.35791 61.431885 42.39807 65.76233 101.21155 76.638794 59.61914 62.438965 59.921265 65.56091 55.792236 -2.3162842 -25.78125 -18.328857 -1.6113281 10.473633 29.30603 35.95276 45.620728 40.081787 37.96692 18.530273 -12.789917 -71.40198 -124.67651 -100.305176 -63.446045 -47.43347 -35.147095 -57.10144 -85.09827 -76.84021 -53.57666 -64.956665 -64.55383 -25.378418 
2934.9333 2921.4385 2907.4402 2894.1467 2881.0547 2867.157 2854.2664 2841.275 2834.6282 2853.964 2872.8972 2891.327 2909.253 2927.0781 2944.7021 2962.024 2979.2449 2996.3652 3013.1836 3030.1025 3046.6187 3063.5376 3080.0537 3095.9656 3112.1794 3237.561 291.34827 3120.8403 3106.4392 3092.0378 3077.6367 3063.2354 3048.8342 3034.735 3021.1394 3007.3425 2993.2434 2979.2449 2965.1458 2951.1475 
3197.0764 3182.8765 3167.6697 3152.765 3137.86 3122.5525 2938.861 609.48486 3111.8774 3128.1921 3144.3054 3160.3179 3176.3306 3192.041 3207.7515 3223.5625 3239.0715 3254.48 -2810.1562 3263.9465 3249.8474 3235.8489 3221.4478 3206.9458 3192.4438 3177.539 3162.4329 3148.0315 3133.0261 1573.2605 3125.7751 3142.1904 3158.4045 3174.3164 3190.2283 3206.0393 3221.8506 -1510.318 3223.462 3209.3628 
-2855.9783 -2843.9941 -2831.7078 -2819.7234 -2808.2427 -2796.46 -2784.5764 -2772.9949 3299.8992 3299.8992 3299.8992 3299.8992 3299.8992 3299.8992 3299.8992 3299.8992 3299.8992 3299.8992 3299.8992 3299.8992 3299.8992 3299.8992 3299.8992 3299.8992 3299.8992 1426.831 -1671.4508 -3021.945 -3008.1482 -2994.754 -2981.5613 -2968.3684 -2955.3772 -2942.3857 -2929.9988 -2917.1082 -2904.6204 -2892.1326 -2879.7454 -2867.8618 
-2531.598 -2520.3186 -2509.4421 -2498.062 -2486.7827 -2475.8057 -2465.1306 -2418.2007 -1625.6287 -1715.863 -1724.4232 -1574.469 -1434.8877 284.90295 3299.8992 3299.8992 3299.8992 3299.8992 3299.8992 3299.8992 3299.8992 3299.8992 3299.8992 3299.8992 3299.8992 3299.8992 3299.8992 3299.8992 3299.8992 -2682.962 -2669.6685 -2657.08 -2644.5923 -2632.306 -2620.221 -2608.136 -2596.2524 -2584.4695 -2572.7874 -2561.3066 
-3272.6074 -3257.0984 -3241.4885 -3226.4832 -3211.5784 -3196.6736 -3181.9702 -3167.3674 543.4204 3299.8992 3299.8992 3299.8992 3299.8992 3299.8992 3299.8992 3299.8992 3299.8992 3299.8992 3284.491 3268.7805 3252.9692 3237.3596 3221.4478 3206.2407 3190.8325 3175.525 3160.2173 2796.6614 -184.59778 3151.2542 3168.0725 3184.5886 3201.004 3217.3186 3233.432 3249.5452 3265.5579 3281.369 3297.0793 -3287.0085 
-3081.5642 -3067.7673 -3054.1716 -3040.6768 -3027.3833 -3013.9893 -3000.8972 -2987.9058 -2691.0186 186.30981 3299.8992 3299.8992 3299.8992 3299.8992 3299.8992 3299.8992 3299.8992 3299.8992 3299.8992 3299.8992 3299.8992 3299.8992 3299.8992 3299.8992 3299.8992 3299.8992 3299.8992 3299.8992 3004.2205 -3256.0913 -3240.0786 -3224.469 -3209.3628 -3194.3572 -3179.5532 -3164.749 -3150.1465 -3135.745 -3121.5454 -3107.3455 

-76.638794 1.1077881 41.189575 1.8127441 -35.34851 -60.525513 -52.56958 -52.770996 -81.97632 -59.21631 -51.461792 -71.90552 -145.72449 -210.98328 -150.75989 -64.65454 -23.867798 -27.392578 1.8127441 60.424805 65.460205 36.4563 42.800903 97.58606 104.837036 111.08093 112.18872 108.66394 109.26819 83.48694 74.12109 73.11401 78.75366 84.191895 93.85986 53.878784 24.673462 16.012573 5.6396484 -16.012573 7.1502686 6.3446045 -16.314697 -80.96924 -106.54907 -106.75049 -114.70642 -137.36572 -163.34839 -143.91174 -137.1643 -118.33191 -104.73633 -123.2666 -138.77563 -90.63721 -74.42322 -70.3949 -36.95984 -24.27063 -39.578247 -50.958252 -53.274536 21.652222 61.935425 68.984985 71.502686 90.737915 97.68677 69.79065 62.338257 49.44763 35.549927 41.189575 63.043213 27.896118 0.10070801 -14.904785 -32.32727 -43.00232 8.459473 10.070801 -10.372925 -37.161255 -44.613647 -44.41223 -33.83789 -45.620728 -42.800903 -1.9134521 -7.6538086 -23.26355 -17.422485 -28.399658 -25.78125 1.5106201 22.659302 36.154175 35.247803 21.24939 8.560181 -6.5460205 5.5389404 30.010986 49.850464 49.649048 37.86621 40.38391 41.793823 25.78125 29.708862 48.44055 55.08728 84.49402 119.64111 86.30676 72.40906 85.90393 82.177734 63.64746 82.47986 82.37915 28.29895 -36.85913 -46.728516 -77.24304 -93.45703 -110.57739 -115.81421 -71.20056 -53.07312 -54.382324 -43.00232 -30.514526 -8.761597 41.4917 29.30603 -38.772583 -70.495605 -42.700195 9.063721 34.84497 52.871704 58.410645 50.354004 32.629395 5.4382324 7.3516846 -16.616821 -49.44763 -82.07703 -100.909424 -115.008545 -78.75366 -22.659302 -33.33435 -32.32727 -32.42798 -44.110107 -64.151 -71.502686 -130.51758 -142.30042 -139.98413 -105.84412 -102.21863 -87.51526 -115.512085 -117.72766 -79.055786 -64.85596 -55.288696 -39.276123 -38.269043 -30.514526 17.019653 24.169922 -1.2084961 -25.680542 -26.586914 20.040894 57.504272 116.72058 142.50183 104.837036 79.055786 48.94409 50.454712 51.763916 17.019653 -4.6325684 5.5389404 12.387085 39.175415 51.361084 9.466553 -7.2509766 -3.1219482 -3.4240723 -24.371338 -15.307617 -36.557007 -49.0448 -52.267456 -30.010986 -27.29187 -31.924438 -91.241455 -75.4303 -25.177002 -28.601074 -49.246216 -11.782837 5.6396484 15.710449 23.464966 -57.806396 -76.23596 -55.08728 -8.459473 
-21.350098 -58.71277 -72.006226 -28.80249 -3.5247803 19.537354 19.436646 32.629395 66.76941 52.56958 44.41223 40.98816 51.5625 86.40747 88.220215 52.368164 19.335938 11.682129 6.1431885 -1.4099121 5.0354004 29.608154 29.608154 -10.272217 -16.918945 -27.79541 -24.77417 -37.96692 -62.942505 -45.92285 -42.599487 -44.41223 -41.793823 -56.5979 -92.34924 -72.10693 -55.490112 -55.892944 -59.820557 -40.48462 -53.979492 -57.000732 -40.48462 -0.70495605 14.904785 42.196655 55.993652 73.91968 106.75049 92.85278 82.78198 76.7395 65.3595 79.96216 103.52783 69.89136 46.325684 38.87329 19.23523 7.5531006 15.811157 30.81665 47.634888 -0.60424805 -31.420898 -46.5271 -54.785156 -74.2218 -86.91101 -76.94092 -71.60339 -59.317017 -49.346924 -68.28003 -96.780396 -67.77649 -20.947266 -18.530273 -16.21399 2.2155762 -23.867798 -27.694702 -10.070801 37.161255 52.06604 65.76233 66.970825 85.29968 103.930664 93.759155 90.33508 81.37207 70.79773 86.00464 100.6073 63.14392 25.78125 8.660889 -4.8339844 -18.530273 -15.509033 14.099121 33.535767 16.113281 13.293457 -13.293457 -13.394165 -25.680542 -42.095947 -33.737183 -50.253296 -57.504272 -58.71277 -97.08252 -131.92749 -102.420044 -81.170654 -90.63721 -90.03296 -65.56091 -80.163574 -52.06604 -12.286377 49.54834 104.03137 129.00696 128.40271 122.76306 106.64978 82.27844 96.47827 94.56482 55.490112 39.88037 36.35559 5.0354004 -1.3092041 -13.394165 -17.72461 -22.558594 -6.0424805 13.595581 11.682129 -1.8127441 -6.4453125 -31.219482 -58.914185 -103.22571 -105.23987 -71.09985 -63.74817 -67.17224 -59.317017 -88.52234 -121.85669 -91.241455 -77.84729 -90.5365 -69.38782 -57.302856 -82.177734 -64.453125 -29.80957 10.876465 19.23523 41.290283 50.857544 87.81738 112.994385 93.15491 81.57349 87.61597 80.76782 99.70093 113.1958 72.10693 59.417725 61.73401 54.18091 43.40515 22.155762 12.387085 -30.010986 -66.56799 -65.66162 -62.942505 -67.37366 -92.248535 -94.86694 -73.61755 -54.986572 -53.475952 -47.232056 -64.85596 -93.65845 -58.914185 -39.074707 -47.131348 -39.175415 -51.260376 -82.27844 -45.117188 -3.8269043 32.125854 40.585327 47.634888 66.970825 125.18005 140.28625 102.62146 98.19031 104.13208 88.220215 102.11792 101.312256 72.006226 81.37207 71.90552 49.346924 35.549927 
2937.2498 2923.352 2909.8572 2896.06 2882.8674 2869.2717 2856.381 2843.692 2839.0593 2858.5967 2877.2278 2895.5566 2913.5833 2931.3079 2948.831 2966.1528 2983.374 3000.3936 3017.4133 3034.03 3050.647 3066.8608 3083.1755 3099.893 3116.0063 -3133.8318 707.0709 3121.0417 3106.7412 3092.2393 3077.8381 3063.5376 3049.0356 3035.037 3021.4417 3007.6445 2993.6462 2979.547 2965.448 2951.4495 2937.5518 2924.057 2910.0586 2896.8657 2883.5723 2869.7754 2856.784 2843.8933 2841.7786 2861.1145 2879.7454 2898.0742 2916.0002 2933.8257 2951.3489 2968.5698 2985.8916 3002.8105 3019.7295 3036.447 3053.064 3069.7815 3086.2976 3102.1086 3118.3228 -2967.7642 1028.7323 3122.0488 3107.7483 3093.1458 3078.7444 3064.4438 3049.942 3036.0442 3022.348 3008.4502 2994.452 2980.4534 2966.2537 2952.356 2938.3574 2924.3591 2911.0657 2897.168 2883.8745 2870.2788 2857.5896 2844.5984 2845.404 2864.6392 2883.2703 2901.4983 2919.5251 2937.2498 2954.773 2971.994 2989.215 3006.134 3022.9521 3039.7705 3056.2866 3072.5005 3089.3188 3105.13 3121.2432 -2654.5623 1702.2675 3121.2432 3106.842 3092.4407 3077.9387 3063.5376 3049.0356 3035.2385 3021.5422 3007.6445 2993.5454 2979.6477 2965.448 2951.3489 2937.5518 2923.5535 2909.7563 2896.6643 2883.2703 2869.574 2856.482 2843.4905 2846.814 2866.049 2884.5793 2902.8076 2920.8342 2938.4583 2955.8806 2973.2024 2990.3228 3007.3425 3024.1606 3040.8782 3057.495 3074.3132 3090.1245 3106.7412 3122.8545 -2520.52 2003.2837 3120.7397 3106.3384 3091.8364 3077.4353 3063.1348 3048.532 3034.8357 3021.1394 3007.141 2993.042 2979.0435 2964.9443 2950.946 2937.0483 2923.5535 2909.4543 2896.3623 2883.1694 2869.2717 2856.482 2843.1885 2849.0295 2868.0632 2886.6943 2904.8218 2922.7478 2940.3716 2957.7942 2975.116 2992.337 3009.2559 3025.9734 3042.691 3059.4084 3076.126 3092.4407 3108.3525 3124.4658 -2032.2876 2563.0188 3119.0276 3104.727 3090.326 3075.824 3061.4226 3047.0215 3033.2244 3019.528 3005.5298 2991.5312 2977.4321 2963.333 2949.3347 2935.5376 2921.5393 2908.145 2894.3481 2881.1553 2867.6604 2854.7698 2841.4763 2850.238 2869.2717 2887.802 2905.9294 2923.9563 2941.58 2958.9019 2976.123 2993.344 3010.3638 3027.182 3043.7988 
3195.465 3181.1646 3166.0583 3151.0527 3135.9465 3121.1426 2731.2012 82.177734 3114.093 3130.4077 3146.521 3162.4329 3178.244 3194.1558 3209.7656 3225.476 3240.985 3256.4941 -2214.4683 3262.5366 3248.4375 3234.137 3220.1384 3205.7373 3191.034 3176.4312 3160.922 3146.6216 3131.2134 1567.218 3195.9685 3141.4856 3157.6995 3173.5107 3189.5232 3205.3345 3221.2463 -243.9148 3218.628 3204.5288 3190.933 3176.3306 3161.8286 3146.823 3131.9182 3051.7546 2648.7212 123.66943 3111.676 3128.0913 3144.104 3160.2173 3175.827 3191.9402 3207.2478 3223.2605 3238.6687 3254.0771 -2071.161 3259.616 3245.9197 3231.9214 3217.6208 3203.119 3188.7175 3173.6113 3158.606 3144.0032 3128.7964 -147.73865 3173.8127 3150.1465 3166.4612 3182.2722 3197.9827 3213.9954 3229.5044 -744.2322 3228.6987 3214.5996 3200.8025 3186.2 3170.8923 3155.9875 3140.982 3123.2573 2472.4822 -729.7302 3123.4587 3139.7734 3155.7861 3171.7986 3187.6099 3203.421 3219.1313 3234.7412 3250.3508 3265.5579 -1168.3136 3266.867 3252.7678 3238.3667 3224.1667 3209.5642 3194.8608 3180.359 3164.6484 3150.1465 3134.9395 1058.4412 3131.2134 3147.6287 3163.742 3179.7546 3195.6665 3211.2761 3227.0874 1245.758 3219.635 3205.536 3191.5374 3176.834 3162.03 3147.0244 3131.4148 3112.5823 2125.3418 -1714.856 3119.8333 3136.148 3152.0598 3168.0725 3183.8835 3199.6948 3215.5059 3231.015 3246.524 3261.9324 -1240.0177 3263.745 3249.5452 3235.2446 3221.045 3206.4421 3191.8396 3177.3376 3161.9292 3147.3267 3132.019 676.7578 3131.1125 3147.4272 3163.5405 3179.6538 3195.465 3211.2761 3226.9866 2014.563 3217.218 3203.119 3188.919 3174.115 3159.4116 3144.3054 3129.4006 3111.4746 2432.199 -1613.3423 3115.402 3131.7168 3147.7295 3163.742 3179.5532 3195.2637 3211.0747 3226.5837 3242.2942 3257.7026 -903.2501 3257.8032 3243.805 3229.605 3215.5059 3201.004 3186.4014 3171.8994 3156.2896 3141.687 3126.178 331.12793 3127.487 3143.8018 3159.915 3175.9277 3191.8396 3207.55 3223.2605 2866.2505 3210.8733 3196.9756 3182.776 3167.9717 3153.3691 3138.4644 3123.2573 2963.8367 1528.4454 -3176.0283 3118.8262 3134.9395 3151.0527 3167.0654 3182.776 3198.4863 3214.2974 3229.9072 3245.4163 3260.7239 -225.98877 3258.0046 
-2855.4749 -2843.39 -2831.607 -2819.8242 -2807.6384 -2795.8557 -2784.677 -2772.8943 3299.8992 3299.8992 3299.8992 3299.8992 3299.8992 3299.8992 3299.8992 3299.8992 3299.8992 3299.8992 3299.8992 3299.8992 3299.8992 3299.8992 3299.8992 3299.8992 3299.8992 981.39954 -2011.3403 -3019.528 -3006.3354 -2992.8406 -2979.6477 -2966.455 -2953.4636 -2940.6738 -2928.0852 -2915.396 -2902.8076 -2890.5212 -2878.2349 -2865.9485 -2853.7627 -2841.7786 -2829.4922 -2817.5078 -2806.128 -2794.4458 -2782.3608 -2770.7793 3299.8992 3299.8992 3299.8992 3299.8992 3299.8992 3299.8992 3299.8992 3299.8992 3299.8992 3299.8992 3299.8992 3299.8992 3299.8992 3299.8992 3299.8992 3299.8992 3299.8992 1092.7826 -1734.9976 -3021.5422 -3007.7454 -2994.2505 -2981.3599 -2968.0664 -2954.9744 -2942.2852 -2929.3945 -2917.0073 -2904.318 -2891.9312 -2879.544 -2867.2576 -2855.374 -2843.0876 -2831.204 -2819.522 -2807.3364 -2795.6543 -2784.375 -2772.592 3299.8992 3299.8992 3299.8992 3299.8992 3299.8992 3299.8992 3299.8992 3299.8992 3299.8992 3299.8992 3299.8992 3299.8992 3299.8992 3299.8992 3299.8992 3299.8992 3253.2715 544.2261 -2266.635 -3019.629 -3006.3354 -2992.9412 -2979.6477 -2966.6565 -2953.8665 -2940.8752 -2928.186 -2915.5974 -2903.009 -2890.6218 -2878.2349 -2866.15 -2853.7627 -2841.98 -2829.6936 -2817.7092 -2806.2285 -2794.5464 -2782.5623 -2770.9807 3299.8992 3299.8992 3299.8992 3299.8992 3299.8992 3299.8992 3299.8992 3299.8992 3299.8992 3299.8992 3299.8992 3299.8992 3299.8992 3299.8992 3299.8992 3299.8992 3192.6453 370.30334 -2604.4097 -3018.4204 -3004.724 -2991.4307 -2978.0364 -2965.2466 -2952.1545 -2939.264 -2926.5747 -2914.087 -2901.4983 -2889.212 -2876.825 -2864.6392 -2852.4536 -2840.4692 -2828.5857 -2816.9036 -2805.02 -2793.1365 -2781.8572 -2770.0745 3299.8992 3299.8992 3299.8992 3299.8992 3299.8992 3299.8992 3299.8992 3299.8992 3299.8992 3299.8992 3299.8992 3299.8992 3299.8992 3299.8992 3299.8992 3299.8992 3111.7766 323.3734 -2692.0256 -3018.6218 -3005.3284 -2991.8335 -2978.842 -2965.75 -2952.7588 -2939.8682 -2927.2795 -2914.5903 -2902.1025 -2889.8162 -2877.2278 -2865.1428 -2853.0579 -2841.0735 -2828.787 -2816.803 -2805.4229 -2793.6401 -2781.6558 -2770.276 3299.8992 3299.8992 3299.8992 3299.8992 3299.8992 3299.8992 3299.8992 3299.8992 3299.8992 3299.8992 3299.8992 3299.8992 
-2549.826 -2538.5466 -2527.5696 -2516.0889 -2504.9102 -2493.8323 -2482.8552 -2462.8142 -1891.1957 -1926.5442 -1850.5096 -1629.8584 -1231.6589 660.84595 3299.8992 3299.8992 3299.8992 3299.8992 3299.8992 3299.8992 3299.8992 3299.8992 3299.8992 3299.8992 3299.8992 3299.8992 3299.8992 3299.8992 3299.8992 -2697.8667 -2684.5732 -2671.6826 -2659.2957 -2646.9084 -2634.8235 -2622.7385 -2610.7544 -2598.8708 -2587.1887 -2575.6072 -2564.026 -2552.6458 -2541.165 -2529.9866 -2518.9087 -2507.9314 -2496.8535 -2390.808 -1551.1047 -1655.539 -1577.7924 -1391.7847 -1081.5033 1149.3805 3299.8992 3299.8992 3299.8992 3299.8992 3299.8992 3299.8992 3299.8992 3299.8992 3299.8992 3299.8992 3299.8992 3299.8992 3299.8992 3299.8992 3055.3801 -2715.088 -2701.895 -2688.9038 -2676.3152 -2664.0288 -2651.7424 -2639.6575 -2627.6733 -2615.7898 -2604.0068 -2592.3247 -2580.7434 -2569.2627 -2558.1848 -2546.5027 -2535.324 -2524.1455 -2513.1682 -2316.989 -1733.6884 -1749.8016 -1730.4657 -1581.9214 -1290.1703 1184.3262 3299.8992 3299.8992 3299.8992 3299.8992 3299.8992 3299.8992 3299.8992 3299.8992 3299.8992 3299.8992 3299.8992 3299.8992 3299.8992 3299.8992 2811.5662 -2726.5686 -2713.1743 -2700.3845 -2687.6953 -2675.308 -2663.0217 -2650.9368 -2638.8518 -2626.9683 -2615.1855 -2603.4026 -2591.8213 -2580.2397 -2569.1619 -2557.5806 -2546.3013 -2535.022 -2524.0447 -2422.1282 -2102.3804 -2241.9617 -2253.0396 -2093.4172 -1875.1831 823.3887 3299.8992 3299.8992 3299.8992 3299.8992 3299.8992 3299.8992 3299.8992 3299.8992 3299.8992 3299.8992 3299.8992 3299.8992 3299.8992 3299.8992 2377.011 -2722.7417 -2709.4482 -2696.4568 -2683.969 -2671.4812 -2659.2957 -2647.1099 -2635.1257 -2623.3428 -2611.4592 -2599.777 -2588.1958 -2576.715 -2565.6372 -2553.955 -2542.6758 -2531.497 -2520.52 -2357.2722 -2173.178 -2318.8018 -2354.1504 -2220.6116 -1836.0077 963.5742 3299.8992 3299.8992 3299.8992 3299.8992 3299.8992 3299.8992 3299.8992 3299.8992 3299.8992 3299.8992 3299.8992 3299.8992 3299.8992 3299.8992 2176.4006 -2718.9148 -2705.722 -2692.9321 -2680.3435 -2667.8557 -2655.6702 -2643.4844 -2631.5002 -2619.6167 -2607.9346 -2596.353 -2584.671 -2573.1902 -2561.609 -2550.4302 -2539.2517 -2528.073 -2517.096 -2506.018 -2493.5303 -2484.7686 -2473.993 -2461.8071 -2101.1719 724.4934 3299.8992 3299.8992 3299.8992 3299.8992 3299.8992 3299.8992 
-3271.4995 -3255.9905 -3240.5823 -3225.6775 -3210.5713 -3195.6665 -3181.0637 -3166.4612 1226.0193 3299.8992 3299.8992 3299.8992 3299.8992 3299.8992 3299.8992 3299.8992 3299.8992 3299.4963 3283.6853 3267.874 3252.2644 3236.554 3221.1455 3205.6365 3190.1274 3174.7192 3159.2102 2718.512 -454.0924 3152.5635 3169.1802 3185.797 3202.2124 3218.3257 3234.5398 3250.653 3266.7664 3282.5774 3298.3887 -3286.0015 -3270.5933 -3255.0842 -3239.4744 -3224.469 -3209.5642 -3194.5586 -3179.956 -3165.2527 2440.2556 3299.8992 3299.8992 3299.8992 3299.8992 3299.8992 3299.8992 3299.8992 3299.8992 3297.7844 3281.9731 3266.3635 3250.5522 3234.9426 3219.1313 3203.9246 3188.516 3172.9065 3157.6995 2449.7222 -780.6885 3154.074 3170.7915 3187.4084 3203.9246 3219.937 3236.2517 3252.1636 3268.3777 3284.2896 3299.7986 -3284.491 -3269.0825 -3253.473 -3238.568 -3223.059 -3208.1543 -3193.2495 -3178.4453 -3163.8428 3299.8992 3299.8992 3299.8992 3299.8992 3299.8992 3299.8992 3299.8992 3299.8992 3299.8992 3296.475 3280.664 3264.8528 3249.3438 3233.7341 3217.6208 3202.6152 3187.207 3171.7986 3156.3904 2374.8962 -988.2477 3154.5776 3171.1943 3187.9119 3204.2266 3220.3398 3236.4531 3252.6672 3268.6797 3284.3901 3299.8992 -3284.0881 -3268.579 -3253.1707 -3238.2659 -3222.7568 -3207.6506 -3192.8467 -3178.0425 -3163.5405 3299.8992 3299.8992 3299.8992 3299.8992 3299.8992 3299.8992 3299.8992 3299.8992 3299.8992 3294.9646 3279.1533 3263.5437 3247.8333 3232.3242 3216.3115 3201.1047 3185.797 3170.288 3154.8796 2176.703 -1162.9761 3154.779 3171.5972 3188.214 3204.5288 3220.8435 3237.0574 3252.9692 3268.982 3284.6924 3299.8992 -3283.8867 -3268.4783 -3252.7678 -3237.9639 -3222.4548 -3207.3486 -3192.5444 -3177.942 -3163.339 3299.8992 3299.8992 3299.8992 3299.8992 3299.8992 3299.8992 3299.8992 3299.8992 3299.8992 3293.1519 3277.3406 3261.6301 3246.0205 3230.5115 3214.3982 3199.3926 3183.9844 3168.6768 3152.9663 1800.2563 -1486.9537 3156.5918 3173.41 3189.926 3206.1401 3222.354 3238.568 3254.782 3270.4924 3286.4043 3299.8992 -3282.1746 -3266.7664 -3251.2573 -3235.8489 -3220.8435 -3205.838 -3191.034 -3176.4312 -3161.9292 3299.8992 3299.8992 3299.8992 3299.8992 3299.8992 3299.8992 3299.8992 3299.8992 3299.8992 3291.742 3276.0315 3260.321 
-3093.5486 -3079.4495 -3065.7532 -3052.2583 -3038.7634 -3025.3691 -3012.1765 -2999.185 -2663.626 527.70996 3299.8992 3299.8992 3299.8992 3299.8992 3299.8992 3299.8992 3299.8992 3299.8992 3299.8992 3299.8992 3299.8992 3299.8992 3299.8992 3299.8992 3299.8992 3299.8992 3299.8992 3299.8992 2544.4885 -3266.867 -3250.8545 -3235.2446 -3219.8364 -3204.8308 -3189.8254 -3175.3235 -3160.62 -3146.1182 -3131.8176 -3117.6177 -3103.5186 -3089.5203 -3075.824 -3062.1277 -3048.6328 -3035.138 -3021.8445 -3008.9539 -1645.166 1817.0746 3299.8992 3299.8992 3299.8992 3299.8992 3299.8992 3299.8992 3299.8992 3299.8992 3299.8992 3299.8992 3299.8992 3299.8992 3299.8992 3299.8992 3299.8992 3299.8992 3299.8992 3299.8992 2018.0878 -3283.081 -3266.9678 -3251.4587 -3236.0503 -3220.8435 -3205.838 -3191.034 -3176.2297 -3161.6272 -3147.1252 -3133.0261 -3118.8262 -3104.828 -3090.8293 -3077.0325 -3063.4368 -3050.0427 -3036.6484 -3023.355 -2166.2292 1217.4591 3299.8992 3299.8992 3299.8992 3299.8992 3299.8992 3299.8992 3299.8992 3299.8992 3299.8992 3299.8992 3299.8992 3299.8992 3299.8992 3299.8992 3299.8992 3299.8992 3299.8992 3299.8992 1263.7848 -3290.332 -3274.4202 -3258.8103 -3243.402 -3228.195 -3213.1897 -3198.285 -3183.5815 -3168.8782 -3154.3762 -3140.1763 -3125.9766 -3111.8774 -3097.879 -3084.082 -3070.3857 -3056.8909 -3043.396 -3030.1025 -2302.0842 701.22986 3299.8992 3299.8992 3299.8992 3299.8992 3299.8992 3299.8992 3299.8992 3299.8992 3299.8992 3299.8992 3299.8992 3299.8992 3299.8992 3299.8992 3299.8992 3299.8992 3299.8992 3299.8992 1144.1437 -3293.4539 -3277.4414 -3261.731 -3246.3225 -3231.015 -3216.0095 -3201.1047 -3186.4014 -3171.698 -3157.196 -3142.8955 -3128.6956 -3114.5964 -3100.6987 -3086.801 -3073.2056 -3059.6099 -3046.115 -3032.8215 -2624.5513 65.05737 3299.8992 3299.8992 3299.8992 3299.8992 3299.8992 3299.8992 3299.8992 3299.8992 3299.8992 3299.8992 3299.8992 3299.8992 3299.8992 3299.8992 3299.8992 3299.8992 3299.8992 3299.8992 365.77148 -3289.325 -3273.413 -3257.8032 -3242.395 -3227.0874 -3211.9812 -3197.0764 -3182.373 -3167.871 -3153.3691 -3139.1692 -3124.9695 -3110.8704 -3096.9727 -3083.1755 -3069.4792 -3055.8838 -3042.4895 -3029.2969 -2092.1082 707.7759 3299.8992 3299.8992 3299.8992 3299.8992 3299.8992 3299.8992 3299.8992 3299.8992 3299.8992 3299.8992 

90.43579 119.23828 126.89209 109.973145 91.04004 92.55066 85.702515 91.8457 84.191895 79.156494 64.453125 62.539673 58.813477 63.64746 68.07861 31.420898 23.26355 27.593994 0.50354004 -2.6184082 25.479126 -8.459473 -37.765503 -47.03064 -44.815063 -47.93701 -37.060547 -80.56641 -69.1864 -29.708862 -15.106201 -16.918945 -24.27063 -50.756836 -66.16516 -47.93701 -27.996826 12.487793 43.103027 43.606567 41.290283 13.394165 37.86621 66.56799 73.516846 79.86145 82.47986 91.04004 66.467285 54.986572 57.60498 50.354004 40.786743 63.24463 70.3949 32.83081 32.42798 47.836304 19.335938 22.659302 44.311523 19.638062 -17.926025 -36.35559 -40.182495 -55.59082 -59.71985 -104.63562 -92.55066 -60.12268 -37.96692 -31.32019 -34.34143 -44.0094 -30.917358 7.7545166 12.689209 17.72461 19.23523 9.970093 -1.1077881 -8.560181 23.162842 59.820557 72.006226 74.2218 76.135254 92.14783 85.198975 64.85596 64.75525 69.89136 65.15808 90.43579 90.234375 41.290283 4.1290283 -36.85913 -75.32959 -15.710449 55.18799 43.40515 21.148682 3.0212402 9.567261 -13.998413 -42.196655 -118.43262 -113.497925 -89.83154 -71.40198 -47.634888 -28.903198 -39.779663 -22.860718 9.768677 10.171509 31.219482 56.69861 53.274536 14.703369 -33.535767 -22.860718 2.4169922 5.1361084 -0.20141602 -22.76001 -19.940186 -28.198242 -12.185669 8.862305 25.982666 41.088867 64.85596 41.693115 -21.551514 -46.124268 -35.95276 -32.83081 7.5531006 45.01648 19.033813 -37.765503 -66.06445 -53.17383 -40.98816 -44.815063 -118.83545 -95.97473 -67.977905 -51.361084 -41.89453 -44.41223 -42.599487 -2.2155762 45.318604 45.721436 56.69861 57.60498 50.152588 40.48462 27.79541 43.40515 69.38782 64.35242 65.460205 63.14392 67.57507 38.47046 10.372925 3.0212402 -6.3446045 -7.5531006 21.954346 18.530273 -11.883545 -10.675049 -18.026733 -78.25012 -68.984985 -56.497192 -64.35242 -86.206055 -97.68677 -39.175415 -17.926025 -50.55542 -108.56323 -98.49243 -95.269775 -83.58765 -32.528687 -4.2297363 -19.033813 -3.5247803 6.1431885 10.171509 19.638062 24.572754 28.500366 
-2.7191162 -8.660889 -37.46338 -73.71826 -41.89453 -45.92285 -49.749756 -66.36658 -65.66162 -56.69861 -62.841797 -76.23596 -84.59473 -116.922 -132.22961 -102.01721 -77.545166 -62.036133 -21.350098 1.7120361 -18.832397 2.0141602 29.406738 63.24463 52.166748 55.892944 59.820557 107.15332 129.91333 99.70093 82.58057 61.431885 43.40515 63.043213 65.56091 29.608154 47.131348 60.424805 37.46338 15.005493 4.7332764 19.638062 -5.1361084 -27.694702 -32.629395 -47.53418 -58.914185 -90.03296 -95.773315 -92.752075 -86.91101 -91.744995 -90.13367 -116.922 -120.84961 -72.006226 -57.000732 -62.539673 -39.578247 -39.779663 -60.827637 -40.081787 5.7403564 39.678955 57.302856 62.64038 76.638794 129.5105 145.9259 117.526245 110.57739 96.47827 93.35632 100.00305 87.41455 43.40515 20.443726 -9.567261 -34.84497 -34.643555 -33.233643 -5.8410645 -26.184082 -54.382324 -57.504272 -66.26587 -77.545166 -96.276855 -84.59473 -79.96216 -76.135254 -64.75525 -58.813477 -97.08252 -100.10376 -59.61914 -51.461792 -45.117188 -22.155762 -48.843384 -80.96924 -50.354004 -2.0141602 43.103027 54.885864 68.984985 81.97632 134.14307 136.35864 111.987305 118.93616 122.561646 114.90784 114.30359 103.52783 80.36499 69.992065 32.226562 5.7403564 -3.0212402 7.9559326 17.422485 -17.926025 -40.98816 -50.857544 -70.495605 -89.42871 -123.46802 -104.73633 -89.227295 -82.88269 -88.82446 -77.948 -100.10376 -86.50818 -36.557007 -12.689209 -33.636475 -22.25647 -45.721436 -77.948 -63.74817 -7.5531006 56.295776 58.71277 54.483032 72.71118 132.53174 129.20837 107.65686 89.730835 84.09119 81.57349 86.206055 68.481445 23.76709 8.358765 -0.60424805 -14.199829 -13.595581 3.6254883 9.567261 -32.025146 -49.749756 -61.23047 -89.328 -103.427124 -122.058105 -105.6427 -95.16907 -76.7395 -59.417725 -60.525513 -109.67102 -114.70642 -68.28003 -81.87561 -79.660034 -32.730103 -36.154175 -41.693115 -14.501953 33.9386 76.638794 42.599487 38.168335 68.17932 138.87634 146.12732 143.50891 141.49475 107.05261 94.262695 99.49951 82.9834 40.786743 21.24939 -10.171509 -5.3375244 18.832397 
3060.4155 3076.5288 3092.642 3109.3596 3125.3723 -1471.5454 3129.0984 3115.2007 3100.5981 3086.2976 3071.8962 3057.495 3043.0938 3029.3975 3015.7012 3001.703 2987.6038 2973.6052 2959.607 2945.6084 2931.7107 2918.3167 2904.318 2891.226 2878.0334 2864.3372 2851.245 2837.6494 2849.4324 2868.567 2886.795 2905.0232 2922.9492 2940.573 2958.0962 2975.3174 2992.4377 3009.3567 3026.1748 3042.8923 3059.4084 3076.2268 3092.642 3108.4534 3124.4658 -1263.9862 3127.2856 3113.2874 3098.886 3084.5854 3070.0835 3055.783 3041.3818 3027.7861 3013.9893 3000.0916 2986.093 2971.8933 2957.8948 2943.8965 2930.0994 2916.101 2902.8076 2889.212 2875.9185 2862.4236 2849.6338 2817.105 2849.7344 2868.7683 2887.1978 2905.3252 2923.2512 2940.8752 2958.2976 2975.6194 2992.6392 3009.6587 3026.477 3043.0938 3059.7107 3075.9246 3092.5415 3108.3525 3124.3652 -805.46265 3123.8616 3109.8633 3095.3613 3081.0608 3066.6594 3052.2583 3037.9578 3024.2615 3010.5652 2996.466 2982.5684 2968.4692 2954.4707 2940.573 2926.6753 2912.8784 2899.0813 2886.09 2872.8972 2859.201 2846.2097 2129.9744 2849.1301 2868.0632 2886.493 2904.6204 2922.4456 2940.0696 2957.492 2974.9146 2991.8335 3008.9539 3025.772 3042.389 3059.0056 3075.7231 3091.5344 3108.252 3124.2644 -533.0475 3121.646 3107.4463 3093.045 3078.7444 3064.3433 3049.942 3035.8428 3022.1465 3008.4502 2994.351 2980.4534 2966.3542 2952.2551 2938.4583 2924.5605 2911.1663 2897.2686 2884.2773 2871.0845 2857.3882 2844.2961 792.0685 2850.0366 2868.869 2887.1978 2905.426 2923.2512 2940.8752 2958.2976 2975.6194 2992.6392 3009.7595 3026.477 3043.0938 3059.7107 3076.4282 3092.743 3108.6548 3124.768 -335.35767 3120.9412 3106.9426 3092.4407 3078.1401 3063.8396 3049.4385 3035.2385 3021.643 3007.846 2993.8477 2979.849 2965.8508 2951.651 2937.854 2923.9563 2910.0586 2896.9666 2883.1694 2870.0774 2856.6833 2843.8933 -1025.3082 2851.95 2870.883 2889.3127 2907.4402 2925.1648 2942.7886 2960.2112 2977.4321 2994.5525 3011.4714 3028.2898 3044.9065 
3244.0063 3229.7058 3215.4053 3200.9033 3186.3005 3171.3958 3156.2896 3141.7876 3126.0771 325.48828 3127.7893 3144.2046 3160.3179 3176.2297 3192.1416 3207.953 3223.6633 3222.8577 3208.96 3195.0623 3180.8623 3166.4612 3151.2542 3136.148 3121.4446 2901.4983 1352.005 3103.3171 3119.7327 3135.9465 3151.9592 3167.7703 3183.5815 3199.292 3215.0024 3230.713 3246.0205 3261.4287 106.64978 3257.4004 3243.402 3229.5044 3214.801 3200.299 3185.6963 3170.691 3155.6853 3141.0828 3122.0488 -387.5244 3131.012 3147.3267 3163.339 3179.3518 3195.2637 3211.1755 3298.7915 3222.7568 3208.7585 3194.8608 3180.5603 3166.0583 3150.9521 3135.846 3121.0417 2997.2717 1514.2456 3102.1086 3118.3228 3134.5366 3150.65 3166.5618 3182.2722 3197.9827 3213.693 3229.303 3244.9126 3260.2202 575.14343 3253.9763 3239.978 3226.0803 3211.377 3196.9756 3182.2722 3167.3674 3152.1606 3137.7593 3103.8208 -787.73804 3130.307 3146.521 3162.6343 3178.5461 3194.3572 3210.1685 -3074.817 3219.937 3205.9387 3192.041 3177.7405 3163.2385 3148.0315 3132.9253 3118.1213 2691.5222 876.4618 3104.828 3121.2432 3137.4573 3153.4697 3169.3816 3185.092 3200.8025 3216.513 3232.1228 3247.531 3262.9395 897.50977 3255.1848 3241.1865 3227.3894 3212.5854 3198.0835 3183.3801 3168.576 3153.5706 3138.7664 2983.374 -1181.7078 3133.5295 3149.8442 3165.857 3181.7688 3197.5798 3213.391 -2712.4695 3220.5413 3206.543 3192.6453 3178.3447 3163.8428 3148.5352 3133.6304 3118.7256 3043.5974 1421.4935 3101.303 3117.7185 3133.8318 3149.945 3165.857 3181.668 3197.4792 3212.9883 3228.598 3244.107 3259.5154 1465.4022 3249.4446 3235.446 3221.6492 3206.845 3192.4438 3177.6396 3162.9363 3147.83 3133.1267 2801.6968 -1645.5688 3130.6091 3146.7224 3162.8357 3178.8481 3194.76 3210.4705 -2254.953 3215.3044 3201.4067 3187.509 3173.108 3158.5051 3143.4998 3128.3936 3113.2874 2673.999 641.81213 3103.0151 3119.3298 3135.5437 3151.4556 3167.2668 3183.1787 3198.8892 3214.5996 3230.1086 3245.5168 3260.9253 2126.651 3248.0347 
3299.8992 3299.8992 3299.8992 3299.8992 2699.9817 -433.14514 -3028.189 -3014.0898 -3000.4944 -2987.1 -2974.008 -2961.0168 -2948.1262 -2935.2356 -2922.647 -2909.9578 -2897.7722 -2885.2844 -2872.8972 -2860.7117 -2848.7273 -2836.5417 -2824.7588 -2813.1775 -2801.0925 -2789.4104 -2778.2317 -2558.4868 3299.8992 3299.8992 3299.8992 3299.8992 3299.8992 3299.8992 3299.8992 3299.8992 3299.8992 3299.8992 3299.8992 3299.8992 3299.8992 3299.8992 3299.8992 3299.8992 2777.124 -301.41907 -3028.0884 -3014.0898 -3000.293 -2987.1 -2973.9075 -2960.916 -2947.9248 -2935.2356 -2922.5464 -2909.8572 -2897.47 -2885.083 -2872.7966 -2860.5103 -2848.7273 -2836.441 -2824.6582 -2812.6738 -2801.3945 -2789.6118 -2777.6274 -2083.6487 3299.8992 3299.8992 3299.8992 3299.8992 3299.8992 3299.8992 3299.8992 3299.8992 3299.8992 3299.8992 3299.8992 3299.8992 3299.8992 3299.8992 3299.8992 3299.8992 2482.4524 -538.5864 -3027.2827 -3013.0828 -2999.3865 -2986.1938 -2973.001 -2960.0098 -2947.1191 -2934.329 -2921.64 -2909.0515 -2896.5637 -2884.1765 -2871.991 -2859.7046 -2847.6196 -2835.6353 -2823.9531 -2812.1704 -2800.186 -2788.4033 -2777.2246 -1111.2122 3299.8992 3299.8992 3299.8992 3299.8992 3299.8992 3299.8992 3299.8992 3299.8992 3299.8992 3299.8992 3299.8992 3299.8992 3299.8992 3299.8992 3299.8992 3299.8992 2173.5808 -1083.6182 -3023.7578 -3010.0615 -2996.9695 -2983.374 -2970.3826 -2957.492 -2944.7021 -2931.912 -2919.1223 -2906.6345 -2894.2473 -2881.8604 -2869.574 -2857.489 -2845.2026 -2833.4197 -2821.2341 -2809.2498 -2797.8699 -2786.2883 -2774.3042 74.523926 3299.8992 3299.8992 3299.8992 3299.8992 3299.8992 3299.8992 3299.8992 3299.8992 3299.8992 3299.8992 3299.8992 3299.8992 3299.8992 3299.8992 3299.8992 3299.8992 2086.67 -1014.9353 -3023.355 -3009.558 -2996.5667 -2983.1726 -2970.0806 -2957.089 -2943.997 -2931.4087 -2918.82 -2906.1309 -2893.744 -2881.4575 -2869.0703 -2856.8848 -2844.699 -2833.0168 -2820.8313 -2809.1492 -2797.0642 -2785.4827 -2774.3042 1735.5011 3299.8992 3299.8992 3299.8992 3299.8992 3299.8992 3299.8992 3299.8992 3299.8992 3299.8992 3299.8992 3299.8992 3299.8992 
3299.8992 3299.8992 3299.8992 3299.8992 3299.8992 3299.8992 3299.8992 3299.8992 1526.532 -2706.6284 -2693.5364 -2680.7463 -2668.2585 -2655.9722 -2643.6858 -2631.7017 -2619.6167 -2607.9346 -2596.1516 -2584.5703 -2573.0896 -2561.609 -2550.1282 -2538.9495 -2527.9724 -2516.8945 -2505.8167 -2494.9402 -2484.1643 -2473.2878 -2462.6128 -2449.4202 -2299.768 967.70325 3299.8992 3299.8992 3299.8992 3299.8992 3299.8992 3299.8992 3299.8992 3299.8992 3299.8992 3299.8992 3299.8992 3299.8992 3299.8992 3299.8992 1079.9927 -2695.2483 -2682.257 -2669.5679 -2656.9792 -2644.6929 -2632.608 -2620.6238 -2608.7402 -2596.9573 -2585.2751 -2573.6938 -2562.1123 -2550.833 -2539.7551 -2528.2744 -2517.1965 -2506.1187 -2495.0408 -2235.4155 -2423.639 -2464.5264 -2453.8513 -2439.5508 -2079.016 1133.4686 3299.8992 3299.8992 3299.8992 3299.8992 3299.8992 3299.8992 3299.8992 3299.8992 3299.8992 3299.8992 3299.8992 3299.8992 3299.8992 3299.8992 512.30164 -2686.5874 -2673.5962 -2661.0076 -2648.5198 -2636.4348 -2624.2493 -2612.265 -2600.3813 -2588.8 -2577.017 -2565.5364 -2554.0557 -2542.6758 -2531.2957 -2520.2178 -2509.2407 -2498.2634 -2487.387 -2254.3486 -2467.2454 -2456.369 -2445.8953 -2435.2202 -1909.2224 1453.3173 3299.8992 3299.8992 3299.8992 3299.8992 3299.8992 3299.8992 3299.8992 3299.8992 3299.8992 3299.8992 3299.8992 3299.8992 3299.8992 3299.8992 -88.42163 -2679.0344 -2666.2444 -2653.5552 -2641.2688 -2628.9824 -2616.8975 -2605.014 -2593.2312 -2581.4482 -2569.9675 -2558.3862 -2546.9055 -2535.6262 -2524.1455 -2513.1682 -2502.0903 -2491.1133 -2411.856 -1996.4355 -2289.6973 -2152.4321 -2093.1152 -1964.914 -1314.5416 2026.1444 3299.8992 3299.8992 3299.8992 3299.8992 3299.8992 3299.8992 3299.8992 3299.8992 3299.8992 3299.8992 3299.8992 3299.8992 3299.8992 3299.8992 -1296.0114 -2672.4883 -2659.6985 -2647.1099 -2634.723 -2622.638 -2610.553 -2598.6694 -2586.786 -2575.2043 -2563.623 -2552.243 -2540.863 -2529.5837 -2518.2036 -2507.2266 -2496.2493 -2310.3423 -2099.9634 -1988.3789 -1968.7408 -1906.7047 -1977.8046 -2049.5085 -1915.8691 143.00537 3299.8992 3299.8992 3299.8992 3299.8992 3299.8992 3299.8992 
3244.6106 3229.0007 3213.5925 3198.0835 3182.5745 3167.2668 3151.657 1650.705 -1780.014 3157.6995 3174.3164 3190.7317 3207.1472 3223.462 3239.5752 3255.487 3271.4995 3287.3108 3299.8992 -3281.2683 -3265.7593 -3250.4517 -3234.8418 -3220.0378 -3205.133 -3190.2283 -3175.525 -3161.023 3299.8992 3299.8992 3299.8992 3299.8992 3299.8992 3299.8992 3299.8992 3299.8992 3299.8992 3290.5334 3274.7222 3259.0117 3243.402 3227.7922 3212.4846 3196.875 3181.366 3165.9575 3149.6428 1247.9736 -2110.3362 3160.0159 3176.6326 3193.1487 3209.4634 3225.5767 3241.8914 3257.8032 3273.816 3289.627 3299.8992 -3279.0527 -3263.6443 -3248.236 -3232.727 -3217.7214 -3202.8167 -3188.0127 -3173.5107 -2991.2292 3299.8992 3299.8992 3299.8992 3299.8992 3299.8992 3299.8992 3299.8992 3299.8992 3299.8992 3290.4326 3274.6216 3258.9111 3243.2007 3227.7922 3212.384 3196.7742 3181.2651 3165.857 3147.4272 1013.02185 -2379.428 3162.332 3178.949 3195.3643 3211.7798 3227.893 3244.107 3260.0188 3276.0315 3291.8425 3299.8992 -3276.9377 -3261.4287 -3246.121 -3230.612 -3215.808 -3200.9033 -3185.8977 -3171.3958 -2664.331 3299.8992 3299.8992 3299.8992 3299.8992 3299.8992 3299.8992 3299.8992 3299.8992 3299.8992 3290.5334 3274.7222 3259.0117 3243.3013 3227.7922 3212.384 3196.7742 3181.2651 3165.857 3146.2188 777.1637 -2516.5923 3164.2456 3180.7617 3197.177 3213.5925 3229.7058 3245.819 3261.8315 3277.7434 3293.5547 -3290.634 -3275.125 -3259.616 -3244.3083 -3229.4036 -3213.9954 -3199.0906 -3184.1858 -3169.7844 -2054.9468 3299.8992 3299.8992 3299.8992 3299.8992 3299.8992 3299.8992 3299.8992 3299.8992 3299.8992 3289.5264 3273.9165 3258.206 3242.5964 3226.9866 3210.8733 3195.767 3180.359 3164.9504 3143.097 360.53467 -3007.6445 3167.4683 3184.085 3200.5005 3217.0166 3233.13 3249.0417 3265.155 3281.1675 3296.7773 -3287.6128 -3272.0032 -3256.5947 -3241.1865 -3226.2817 -3210.974 -3196.17 -3181.366 -3166.7632 -1401.2512 3299.8992 3299.8992 3299.8992 3299.8992 3299.8992 3299.8992 3299.8992 3299.8992 3299.8992 3290.4326 3274.4202 3258.7097 
3299.8992 3299.8992 3299.8992 3299.8992 3299.8992 3299.8992 3299.8992 3299.8992 -988.8519 -3288.5193 -3272.5066 -3256.7961 -3241.388 -3226.181 -3211.377 -3196.3713 -3181.7688 -3167.166 -3152.664 -3138.3635 -3124.063 -3109.9639 -3096.167 -3082.3699 -3068.6736 -3055.2795 -3041.7847 -3028.5918 -2310.5437 827.8198 3299.8992 3299.8992 3299.8992 3299.8992 3299.8992 3299.8992 3299.8992 3299.8992 3299.8992 3299.8992 3299.8992 3299.8992 3299.8992 3299.8992 3299.8992 3299.8992 3299.8992 3299.8992 -1381.311 -3286.8071 -3270.6938 -3255.1848 -3239.6758 -3224.469 -3209.3628 -3194.458 -3179.8552 -3165.2527 -3150.8513 -3136.6516 -3122.4517 -3108.3525 -3094.4548 -3080.7585 -3067.0623 -3053.5674 -3040.1733 -3026.9805 -2984.8845 -448.45276 3237.0574 3299.8992 3299.8992 3299.8992 3299.8992 3299.8992 3299.8992 3299.8992 3299.8992 3299.8992 3299.8992 3299.8992 3299.8992 3299.8992 3299.8992 3299.8992 3299.8992 3299.8992 -2783.8713 -3272.5066 -3256.5947 -3241.0857 -3225.879 -3210.7727 -3195.767 -3181.0637 -3166.3604 -3151.9592 -3137.5579 -3123.3582 -3109.3596 -3095.3613 -3081.5642 -3067.7673 -3054.2725 -3040.8782 -3027.5847 -3014.4927 -2051.2207 978.88184 3299.8992 3299.8992 3299.8992 3299.8992 3299.8992 3299.8992 3299.8992 3299.8992 3299.8992 3299.8992 3299.8992 3299.8992 3299.8992 3299.8992 3299.8992 3299.8992 3299.8992 3299.8992 -3285.6995 -3269.3848 -3253.5735 -3238.1653 -3222.8577 -3207.852 -3192.8467 -3178.244 -3163.5405 -3149.0386 -3134.738 -3120.5383 -3106.5398 -3092.5415 -3078.7444 -3065.149 -3051.5532 -3038.1592 -3024.8657 -3011.6729 -2263.3118 781.49414 3299.8992 3299.8992 3299.8992 3299.8992 3299.8992 3299.8992 3299.8992 3299.8992 3299.8992 3299.8992 3299.8992 3299.8992 3299.8992 3299.8992 3299.8992 3299.8992 3299.8992 3299.8992 -3277.4414 -3261.4287 -3245.6177 -3230.1086 -3214.9016 -3199.7954 -3185.1929 -3170.4895 -3155.8867 -3141.4856 -3127.2856 -3112.985 -3099.0874 -3085.089 -3071.4934 -3057.898 -3044.5037 -3031.1096 -3017.9167 -3004.8247 -2225.7476 977.0691 3299.8992 3299.8992 3299.8992 3299.8992 3299.8992 3299.8992 3299.8992 3299.8992 3299.8992 3299.8992 

6.9488525 34.44214 62.036133 85.60181 94.16199 98.89526 104.03137 129.91333 105.13916 70.999146 52.56958 34.643555 15.005493 30.615234 -17.120361 -51.461792 -40.283203 -32.226562 -40.283203 -14.401245 -11.077881 -41.89453 -81.06995 -91.94641 -97.18323 -94.66553 -99.49951 -150.55847 -105.6427 -61.935425 -39.578247 -30.514526 -54.483032 -89.328 -54.58374 15.710449 -10.171509 -74.82605 -16.113281 85.40039 140.68909 134.74731 120.84961 117.22412 96.17615 76.7395 64.35242 57.302856 35.95276 27.392578 22.558594 11.581421 26.083374 54.68445 28.399658 5.5389404 6.2438965 8.258057 -14.099121 29.80957 41.39099 16.415405 -36.557007 -52.468872 -54.68445 -48.239136 -48.54126 -82.27844 -33.132935 -0.40283203 7.6538086 17.523193 -20.24231 -69.28711 -73.61755 -76.538086 -63.043213 -33.032227 10.574341 13.796997 5.0354004 17.422485 60.62622 72.10693 66.26587 66.970825 82.78198 98.0896 80.667114 72.40906 59.417725 40.786743 51.05896 88.92517 44.210815 5.8410645 11.682129 -14.300537 -72.81189 -54.18091 -51.361084 -119.13757 -153.98254 -120.64819 -130.21545 -132.93457 -111.68518 -127.79846 -71.40198 -30.715942 -18.127441 -11.883545 -30.31311 -38.168335 24.472046 61.834717 85.09827 86.709595 86.10535 46.02356 11.782837 26.28479 68.17932 86.10535 88.82446 90.83862 103.326416 96.276855 62.539673 18.933105 17.623901 27.392578 45.41931 54.986572 -0.80566406 -22.860718 -16.314697 -26.486206 -64.151 -29.708862 -32.730103 -57.907104 -66.76941 -86.40747 -110.57739 -78.552246 -66.87012 -93.45703 -53.274536 -41.189575 -27.593994 -11.984253 -34.744263 -51.05896 21.551514 86.206055 111.08093 94.16199 77.74658 50.354004 -9.768677 -90.13367 -92.95349 -33.636475 51.05896 108.26111 107.35474 83.58765 44.714355 35.650635 33.9386 19.134521 43.203735 63.949585 22.659302 -1.6113281 10.070801 -0.20141602 -19.335938 33.636475 2.1148682 -41.088867 -77.041626 -83.38623 -82.78198 -68.68286 -82.58057 -98.49243 -44.51294 -37.36267 -54.382324 -34.44214 -22.357178 -9.667969 24.371338 35.85205 44.41223 35.34851 34.34143 24.673462 21.75293 65.66162 117.12341 132.53174 128.70483 121.85669 133.94165 112.69226 79.660034 59.820557 51.864624 38.571167 63.345337 51.663208 -45.318604 -98.39172 -88.723755 -59.61914 -78.85437 -25.479126 
42.599487 32.32727 -6.2438965 -29.205322 -46.42639 -57.302856 -70.89844 -97.283936 -70.999146 -61.834717 -58.914185 -61.331177 -77.34375 -136.25793 -126.48926 -82.88269 -68.88428 -51.864624 -33.737183 -51.461792 -66.26587 -36.254883 16.415405 44.210815 52.56958 62.13684 83.58765 154.18396 138.17139 115.10925 102.21863 96.67969 128.60413 158.4137 132.22961 65.963745 59.1156 60.827637 23.565674 -34.643555 -54.18091 -53.979492 -64.65454 -73.516846 -76.84021 -70.3949 -82.27844 -102.420044 -94.46411 -76.33667 -70.89844 -65.66162 -79.35791 -132.63245 -97.58606 -56.19507 -46.325684 -42.800903 -13.897705 -43.103027 -64.65454 -33.636475 17.72461 48.239136 69.68994 80.06287 99.3988 169.89441 135.8551 116.31775 117.12341 108.56323 123.66943 135.55298 108.86536 73.21472 42.90161 13.696289 -7.1502686 3.4240723 17.623901 -13.192749 -64.65454 -81.7749 -81.27136 -96.07544 -126.9928 -153.3783 -129.10767 -107.85828 -95.06836 -72.10693 -85.09827 -129.91333 -109.3689 -74.32251 -66.467285 -30.212402 14.602661 -23.162842 -36.95984 4.6325684 54.785156 60.928345 76.33667 91.34216 115.81421 174.8291 148.84644 118.2312 94.86694 67.27295 64.151 90.5365 65.25879 35.147095 9.063721 -5.0354004 -19.335938 -4.0283203 26.385498 18.026733 -20.040894 -40.48462 -48.742676 -53.274536 -65.76233 -82.177734 -67.57507 -54.281616 -58.410645 -67.8772 -84.49402 -110.87952 -57.302856 -36.053467 -47.43347 -50.253296 -22.659302 -61.73401 -54.986572 -9.567261 23.968506 49.649048 72.40906 70.89844 98.89526 156.09741 115.41138 98.69385 86.00464 63.74817 92.04712 131.42395 84.2926 29.406738 -0.10070801 -11.380005 -28.903198 -24.169922 13.796997 26.889038 0.9063721 -21.75293 -64.55383 -104.434204 -119.94324 -125.38147 -90.03296 -75.027466 -66.56799 -52.770996 -81.87561 -123.36731 -78.048706 -47.93701 -55.892944 -44.613647 -16.71753 -67.37366 -45.822144 -20.040894 43.00232 69.992065 76.034546 75.4303 119.23828 168.18237 128.50342 105.441284 102.11792 90.83862 118.63403 126.28784 73.11401 32.93152 12.185669 -9.265137 -27.191162 -26.78833 -9.768677 -34.039307 -94.16199 -113.1958 -127.093506 -143.10608 -162.34131 -170.19653 -147.94006 -125.582886 -131.32324 -152.57263 -201.41602 -239.68506 -172.51282 -129.81262 -126.589966 -122.561646 -74.82605 -94.56482 
3061.5234 3077.536 3094.3542 3110.0647 3171.8994 400.71716 3118.0205 3103.9214 3089.5203 3075.119 3060.8184 3046.3164 3032.2173 3018.6218 3004.9255 2990.927 2976.828 2962.8296 2948.831 2934.9333 2921.1365 2907.2388 2893.643 2880.6519 2867.5598 2853.8635 2840.872 -2670.575 2850.9429 2869.7754 2888.2048 2906.3323 2924.057 2941.58 2959.1033 2976.425 2993.344 3010.263 3027.0813 3043.7988 3060.4155 3077.133 3092.9443 3109.561 -3244.107 900.2289 3113.8916 3099.4902 3085.1897 3070.7886 3056.488 3042.0867 3028.189 3014.5935 3000.7964 2986.798 2972.699 2958.8013 2944.7021 2930.905 2917.1082 2903.8147 2890.3198 2876.724 2863.733 2850.238 2837.6494 2831.305 2850.8423 2869.6746 2888.1042 2906.2317 2923.8555 2941.58 2959.0027 2976.2236 2993.2434 3010.263 3027.0813 3043.698 3060.1135 3076.2268 3093.045 3108.7554 -3086.7004 1290.976 3111.4746 3097.3755 3082.8735 3068.6736 3054.373 3039.972 3025.9734 3012.378 2998.4802 2984.5825 2970.4834 2956.4849 2942.5872 2928.7903 2914.9932 2901.1963 2888.0034 2874.408 2861.316 2847.9216 2835.3333 2831.4055 2850.8423 2869.574 2888.0034 2906.1309 2923.9563 2941.3787 2958.8013 2976.0222 2993.1426 3010.0615 3026.88 3043.5974 3060.1135 3076.126 3092.34 3108.9568 -2927.7832 1105.4718 3111.1724 3096.8718 3082.672 3068.2708 3053.9702 3039.6697 3025.5706 3012.1765 2998.2788 2984.2803 2970.1812 2956.1829 2942.2852 2928.488 2914.7917 2901.3977 2887.5 2874.71 2861.5173 2847.9216 2835.031 2833.4197 2852.8564 2871.5881 2890.0176 2907.9436 2925.769 2943.2922 2960.614 2977.7344 2995.0562 3011.8743 3028.6926 3045.3093 3061.8254 3078.543 3094.8577 3110.7695 -2496.0479 2195.5352 3108.0505 3093.8506 3079.4495 3065.2495 3050.949 3036.447 3022.5493 3008.9539 2995.1567 2981.1584 2967.16 2953.1616 2939.264 2925.3662 2911.67 2897.8728 2884.6802 2871.1853 2858.0933 2844.7998 2832.1106 2833.319 2852.655 2871.3867 2889.7156 2907.7422 2925.4668 2943.0908 2960.4126 2977.7344 2994.6533 3011.6729 3028.3904 3045.108 3061.5234 3077.6367 3094.3542 3110.0647 -2522.5342 2103.9917 3107.6477 3093.4478 3079.1472 3064.746 3050.3447 3036.145 3022.2473 3008.6516 2994.754 2980.7556 2966.858 2952.8594 2938.861 2925.064 
3234.137 3220.2393 3205.435 3190.933 3176.3306 3161.4258 3146.521 3131.6162 2496.35 -2447.6074 3133.2275 3149.3408 3165.454 3181.366 3197.177 3212.8875 -1725.1282 3215.3044 3201.5076 3187.4084 3173.007 3158.606 3143.399 3128.3936 3113.5894 2894.2473 734.7656 3102.411 3118.8262 3134.9395 3150.8513 3166.864 3182.5745 3198.3855 3213.9954 3229.605 3245.114 3261.731 2112.7532 3247.4304 3233.432 3219.635 3204.8308 3190.3289 3175.6255 3161.2244 3145.6145 3130.9111 2348.41 -2378.6223 3132.8247 3149.0386 3165.1519 3181.0637 3196.875 3212.5854 -1056.427 3212.5854 3198.8892 3184.79 3170.3887 3155.3833 3140.68 3125.6743 3110.7695 2836.038 125.68359 3103.3171 3119.5312 3135.6445 3151.7578 3167.4683 3183.3801 3199.0906 3214.7002 3230.31 3245.819 -3241.0857 2797.0642 3245.5168 3231.5186 3217.4194 3203.119 3188.617 3173.9136 3159.613 3144.104 3129.0984 2057.3638 -3110.7695 3134.3352 3150.5493 3166.5618 3182.4736 3198.3855 3214.096 -382.08618 3211.679 3197.7812 3183.8835 3169.4824 3154.3762 3139.7734 3124.768 3109.8633 2869.574 197.3877 3102.411 3118.7256 3134.8389 3150.8513 3166.6626 3182.4736 3198.184 3213.794 3229.303 3244.9126 -3038.0583 3150.348 3242.8984 3229.0007 3214.5996 3200.299 3185.797 3171.1943 3156.7932 3141.2842 3126.3794 1759.2682 3117.92 3134.1338 3150.247 3166.3604 3182.2722 3197.9827 3213.794 567.4896 3208.3557 3194.6594 3180.661 3166.159 3151.1536 3136.3494 3121.4446 3105.13 2299.063 -709.89075 3105.13 3121.4446 3137.5579 3153.4697 3169.281 3185.092 3200.8025 3216.4124 3232.022 3247.4304 -2796.2585 3257.8032 3243.805 3229.8064 3215.5059 3201.1047 3186.6028 3171.8994 3157.3975 3141.8884 3126.9836 1817.8802 3173.007 3134.2346 3150.348 3166.4612 3182.2722 3198.184 3213.9954 1373.053 3206.1401 3192.343 3178.3447 3163.742 3148.7366 3134.0332 3119.0276 3099.893 1960.6842 -1597.0276 3107.3455 3123.5596 3139.572 3155.5847 3171.4966 3187.207 3202.9175 3218.527 3234.137 3249.5452 -2261.1968 3256.7961 3242.7979 3228.9001 3214.4988 3200.0977 3185.5957 3170.993 3156.491 3140.982 3125.7751 1373.6572 3120.0347 3136.4502 3152.5635 3168.576 3184.4878 3200.1982 3216.0095 2170.6604 3206.1401 3192.2424 3178.0425 
3299.8992 3299.8992 3299.8992 3299.8992 1674.3713 -1449.8932 -3021.643 -3007.6445 -2994.049 -2980.7556 -2967.865 -2954.773 -2941.8823 -2929.193 -2916.403 -2904.016 -2891.5283 -2879.242 -2866.9556 -2854.9712 -2842.987 -2830.8013 -2819.0186 -2807.135 -2795.6543 -2784.0728 -2772.0886 2888.91 3299.8992 3299.8992 3299.8992 3299.8992 3299.8992 3299.8992 3299.8992 3299.8992 3299.8992 3299.8992 3299.8992 3299.8992 3299.8992 3299.8992 3299.8992 3299.8992 1606.897 -1488.9679 -3020.3337 -3006.7383 -2993.6462 -2980.252 -2967.2607 -2954.0679 -2941.3787 -2928.5889 -2916.0002 -2903.5125 -2890.8232 -2878.7383 -2866.5527 -2854.367 -2842.282 -2830.3984 -2818.213 -2806.6313 -2794.4458 -2782.8643 -2771.7864 3299.8992 3299.8992 3299.8992 3299.8992 3299.8992 3299.8992 3299.8992 3299.8992 3299.8992 3299.8992 3299.8992 3299.8992 3299.8992 3299.8992 3299.8992 3299.8992 3299.8992 1091.6748 -2002.3773 -3018.0176 -3004.019 -2990.5242 -2977.3315 -2964.34 -2951.3489 -2938.4583 -2925.769 -2913.0798 -2900.592 -2888.2048 -2875.9185 -2863.9343 -2851.648 -2839.3616 -2827.478 -2815.796 -2804.013 -2792.5322 -2780.85 -2768.9666 3299.8992 3299.8992 3299.8992 3299.8992 3299.8992 3299.8992 3299.8992 3299.8992 3299.8992 3299.8992 3299.8992 3299.8992 3299.8992 3299.8992 3299.8992 3299.8992 3299.8992 902.6459 -2178.4148 -3015.4998 -3001.9043 -2988.9128 -2975.6194 -2962.4268 -2949.7375 -2936.746 -2924.1577 -2911.569 -2899.0813 -2886.5935 -2874.3071 -2862.1216 -2850.0366 -2838.0522 -2826.068 -2813.8823 -2801.9988 -2790.619 -2779.0374 -2767.2546 3299.8992 3299.8992 3299.8992 3299.8992 3299.8992 3299.8992 3299.8992 3299.8992 3299.8992 3299.8992 3299.8992 3299.8992 3299.8992 3299.8992 3299.8992 3299.8992 3299.8992 650.1709 -2368.2495 -3014.1907 -3000.293 -2986.798 -2973.706 -2960.614 -2947.9248 -2934.8328 -2922.1436 -2909.555 -2896.9666 -2884.8816 -2872.6958 -2860.3088 -2848.123 -2836.139 -2824.1545 -2812.5732 -2800.5889 -2789.209 -2777.6274 -2765.744 3299.8992 3299.8992 3299.8992 3299.8992 3299.8992 3299.8992 3299.8992 3299.8992 3299.8992 3299.8992 3299.8992 3299.8992 3299.8992 3299.8992 3299.8992 3299.8992 3118.0205 225.98877 -2698.471 -3010.4644 -2996.869 -2983.8774 -2970.584 -2957.5928 -2944.8027 -2932.013 -2919.3237 -2906.836 -2894.2473 -2881.961 -2869.6746 -2857.489 -2845.404 
3299.8992 3299.8992 3299.8992 3299.8992 3299.8992 3299.8992 3299.8992 3299.8992 -566.8854 -2657.1807 -2644.4915 -2632.1045 -2619.7173 -2607.7332 -2595.7488 -2583.8652 -2572.183 -2560.501 -2549.121 -2537.5396 -2526.361 -2515.1824 -2504.4067 -2492.926 -2482.0496 -2471.0723 -2457.7788 -2438.4429 -2439.2485 -2428.5735 -2418.2007 -2407.8276 -996.405 2616.7969 3299.8992 3299.8992 3299.8992 3299.8992 3299.8992 3299.8992 3299.8992 3299.8992 3299.8992 3299.8992 3299.8992 3299.8992 3299.8992 3299.8992 -1760.6781 -2655.2673 -2642.4773 -2629.9895 -2617.804 -2605.719 -2593.7346 -2581.952 -2570.169 -2558.5876 -2547.107 -2535.7268 -2524.4475 -2513.1682 -2501.9897 -2491.0125 -2480.2368 -2469.2595 -2458.484 -2447.708 -2437.1338 -2426.5593 -2416.0857 -2405.612 -1389.8712 2440.457 3299.8992 3299.8992 3299.8992 3299.8992 3299.8992 3299.8992 3299.8992 3299.8992 3299.8992 3299.8992 3299.8992 3299.8992 3299.8992 3299.8992 -2473.1873 -2647.9155 -2635.2263 -2622.8394 -2610.6536 -2598.5686 -2586.685 -2574.8015 -2563.2202 -2551.538 -2540.158 -2528.778 -2517.398 -2506.32 -2494.9402 -2484.0637 -2473.2878 -2462.4114 -2451.7363 -2441.0613 -2430.3862 -2419.812 -2409.3384 -2398.9653 -1133.67 2583.1604 3299.8992 3299.8992 3299.8992 3299.8992 3299.8992 3299.8992 3299.8992 3299.8992 3299.8992 3299.8992 3299.8992 3299.8992 3299.8992 3299.8992 -2654.1594 -2641.0674 -2628.3782 -2615.9912 -2603.9062 -2591.8213 -2579.9377 -2568.1548 -2556.372 -2544.992 -2533.5112 -2522.232 -2510.852 -2499.7742 -2488.5955 -2477.719 -2466.8425 -2456.067 -2445.3918 -2434.8174 -2424.1423 -2413.568 -2403.0945 -2392.8223 -1110.91 2638.6504 3299.8992 3299.8992 3299.8992 3299.8992 3299.8992 3299.8992 3299.8992 3299.8992 3299.8992 3299.8992 3299.8992 3299.8992 3299.8992 3299.8992 -2647.5127 -2634.32 -2621.8323 -2609.445 -2597.36 -2585.2751 -2573.4924 -2561.8103 -2550.1282 -2538.6475 -2527.2673 -2515.8875 -2504.7087 -2493.5303 -2482.9558 -2471.6765 -2460.6995 -2450.0244 -2431.3933 -2428.775 -2418.3013 -2407.727 -2397.354 -2387.0818 -727.9175 3122.8545 3299.8992 3299.8992 3299.8992 3299.8992 3299.8992 3299.8992 3299.8992 3299.8992 3299.8992 3299.8992 3299.8992 3299.8992 3299.8992 3254.3792 -2644.0886 -2630.9966 -2618.5088 -2606.021 -2593.936 -2581.952 -2570.169 -2558.3862 -2546.8047 -2535.2234 -2523.8433 -2512.6648 
3243.0999 3227.6917 3211.679 3196.3713 3181.0637 3165.5547 3025.772 -126.48926 3210.4705 3172.2014 3188.8184 3205.2336 3221.4478 3237.6616 3253.6743 3269.7876 3285.6995 3299.8992 -3282.9802 -3267.4712 -3252.1636 -3236.6545 -3221.9512 -3206.6436 -3191.8396 -3176.9348 -3162.4329 -818.6554 3299.8992 3299.8992 3299.8992 3299.8992 3299.8992 3299.8992 3299.8992 3299.8992 3299.8992 3292.4468 3277.0386 3261.3281 3245.5168 3230.0078 3214.3982 3198.7883 3183.2793 3167.871 3054.9773 -107.55615 3254.9834 3173.9136 3190.5303 3206.845 3223.1597 3239.273 3255.3862 3271.399 3287.3108 3299.8992 -3281.369 -3265.8599 -3250.3508 -3235.0432 -3219.8364 -3204.8308 -3190.0269 -3175.424 -3160.922 379.8706 3299.8992 3299.8992 3299.8992 3299.8992 3299.8992 3299.8992 3299.8992 3299.8992 3299.8992 3291.1377 3275.4272 3259.7168 3244.0063 3228.4973 3213.0889 3197.3784 3181.8694 3166.3604 2943.7957 -300.21057 3158.2031 3174.5178 3191.1345 3207.4492 3223.6633 3239.978 3255.9905 3271.9023 3287.915 3299.8992 -3280.7646 -3265.2556 -3249.8474 -3234.6404 -3219.1313 -3204.2266 -3189.624 -3175.0212 -3160.5193 1054.2114 3299.8992 3299.8992 3299.8992 3299.8992 3299.8992 3299.8992 3299.8992 3299.8992 3299.8992 3290.0298 3274.118 3258.5083 3242.8984 3227.188 3211.679 3196.2708 3180.5603 3165.1519 2835.2324 -659.43604 3159.3108 3176.1292 3192.6453 3209.0605 3225.2747 3241.4885 3257.6018 3273.5137 3289.4255 3299.8992 -3279.3547 -3263.8457 -3248.3367 -3233.13 -3218.225 -3203.018 -3188.214 -3173.5107 -3159.0088 2254.4495 3299.8992 3299.8992 3299.8992 3299.8992 3299.8992 3299.8992 3299.8992 3299.8992 3299.8992 3288.7207 3273.0103 3257.2998 3241.69 3226.181 3209.967 3194.8608 3179.3518 3163.9434 2640.9668 -1042.3279 3161.5264 3178.244 3194.76 3211.1755 3227.3894 3243.5027 3259.5154 3275.5278 3291.4397 3299.8992 -3277.3406 -3261.8315 -3246.4233 -3231.015 -3216.4124 -3201.1047 -3186.099 -3171.5972 -3157.196 3253.6743 3299.8992 3299.8992 3299.8992 3299.8992 3299.8992 3299.8992 3299.8992 3299.8992 3299.8992 3288.217 3272.5066 3256.7961 3241.0857 3225.5767 3209.6648 3194.3572 3179.0496 3163.5405 2452.8442 -1164.0839 3162.332 3178.949 3195.465 3211.7798 3228.195 3244.2078 3260.321 3276.3335 3291.9434 3299.8992 -3276.7363 -3261.1267 
3299.8992 3299.8992 3299.8992 3299.8992 3299.8992 3299.8992 3299.8992 3299.8992 -3269.6868 -3253.775 -3238.1653 -3222.6562 -3207.4492 -3192.6453 -3177.841 -3163.1377 -3148.7366 -3134.2346 -3120.1355 -3105.9355 -3091.9373 -3078.0396 -3064.4438 -3050.8484 -3037.555 -3024.1606 -3010.968 -2998.0774 -2653.2532 287.9242 3299.8992 3299.8992 3299.8992 3299.8992 3299.8992 3299.8992 3299.8992 3299.8992 3299.8992 3299.8992 3299.8992 3299.8992 3299.8992 3299.8992 3299.8992 3299.8992 3299.8992 3299.8992 -3256.6956 -3240.6829 -3225.0732 -3209.6648 -3194.5586 -3179.7546 -3164.9504 -3150.348 -3135.9465 -3121.7468 -3107.7483 -3093.75 -3079.8523 -3066.0552 -3052.4597 -3038.9648 -3025.772 -3012.5793 -2999.3865 -2986.4958 -2673.8982 326.8982 3299.8992 3299.8992 3299.8992 3299.8992 3299.8992 3299.8992 3299.8992 3299.8992 3299.8992 3299.8992 3299.8992 3299.8992 3299.8992 3299.8992 3299.8992 3299.8992 3299.8992 3237.7625 -3242.1936 -3226.3823 -3210.8733 -3195.767 -3180.661 -3165.9575 -3151.355 -3136.853 -3122.4517 -3108.252 -3094.2534 -3080.3557 -3066.5588 -3053.064 -3039.569 -3026.2756 -3012.9822 -2999.8901 -2986.9995 -2974.109 -2691.0186 199.70398 3299.8992 3299.8992 3299.8992 3299.8992 3299.8992 3299.8992 3299.8992 3299.8992 3299.8992 3299.8992 3299.8992 3299.8992 3299.8992 3299.8992 3299.8992 3299.8992 3299.8992 2941.58 -3227.7922 -3211.9812 -3196.5728 -3181.5674 -3166.864 -3152.0598 -3137.5579 -3123.1567 -3108.8562 -3094.757 -3080.8594 -3067.163 -3053.366 -3039.7705 -3026.3762 -3013.1836 -3000.0916 -2987.1 -2974.2095 -2961.4197 -2244.6807 791.86707 3299.8992 3299.8992 3299.8992 3299.8992 3299.8992 3299.8992 3299.8992 3299.8992 3299.8992 3299.8992 3299.8992 3299.8992 3299.8992 3299.8992 3299.8992 3299.8992 3299.8992 2699.3774 -3219.1313 -3203.5217 -3188.1133 -3173.007 -3158.2031 -3143.399 -3128.9978 -3114.5964 -3100.5981 -3086.5996 -3072.702 -3058.905 -3045.4102 -3031.8145 -3018.521 -3005.3284 -2992.2363 -2979.3457 -2966.5557 -2953.9673 -1935.2051 1178.6865 3299.8992 3299.8992 3299.8992 3299.8992 3299.8992 3299.8992 3299.8992 3299.8992 3299.8992 3299.8992 3299.8992 3299.8992 3299.8992 3299.8992 3299.8992 3299.8992 3299.8992 2285.266 -3213.9954 -3198.285 -3182.9773 -3168.0725 -3153.1677 -3138.6658 -3124.063 -3109.6619 -3095.6633 -3081.5642 -3067.868 -3054.071 

-16.012573 -43.50586 -65.460205 -31.118774 -14.602661 0.70495605 -27.493286 -43.807983 -2.7191162 -12.084961 -34.542847 -40.283203 -50.152588 -65.05737 -63.74817 -93.759155 -66.56799 -7.0495605 -35.85205 -62.942505 -31.622314 35.046387 90.737915 100.00305 106.8512 103.829956 123.46802 136.35864 104.937744 95.47119 75.631714 20.040894 63.74817 127.597046 75.22888 13.796997 -0.40283203 -20.443726 -16.516113 35.046387 -13.696289 -51.663208 -107.85828 -124.67651 -171.0022 -159.42078 -169.7937 -140.68909 -78.552246 -72.81189 -30.715942 6.9488525 -7.3516846 -45.41931 -67.474365 7.2509766 126.589966 143.4082 131.22253 72.61047 -7.5531006 -9.667969 -10.473633 -22.055054 -10.775757 12.890625 41.693115 44.613647 20.846558 29.80957 47.232056 38.671875 64.151 88.52234 50.857544 22.155762 -49.346924 -144.6167 -40.283203 129.5105 121.051025 57.302856 -22.357178 -43.707275 -74.42322 -140.8905 -182.88574 -107.65686 -43.807983 -70.29419 -105.74341 -81.37207 -71.90552 -40.182495 26.385498 57.000732 76.33667 87.716675 82.177734 66.16516 32.125854 51.361084 82.177734 79.156494 70.999146 76.23596 114.30359 117.32483 95.5719 74.92676 69.992065 48.03772 31.723022 19.940186 17.019653 24.975586 21.551514 -13.796997 -14.602661 34.44214 8.963013 -18.630981 -60.525513 -46.224976 -50.454712 -45.117188 -81.57349 -84.695435 -61.935425 -48.742676 -49.54834 -49.246216 -69.68994 -49.145508 9.063721 20.443726 30.31311 38.36975 34.039307 19.436646 12.991333 45.721436 84.39331 96.98181 111.18164 108.76465 110.476685 69.38782 29.205322 44.0094 37.96692 24.874878 43.707275 59.317017 16.012573 -3.1219482 -39.47754 -108.966064 -53.67737 60.12268 43.90869 4.6325684 -54.281616 -52.368164 -69.1864 -80.4657 -122.96448 -102.420044 -74.523926 -116.922 -116.922 -52.871704 -59.518433 -58.914185 14.703369 60.22339 89.83154 105.441284 108.966064 94.46411 58.10852 63.446045 95.16907 90.234375 85.60181 80.06287 62.23755 48.03772 44.91577 51.05896 37.765503 38.168335 64.151 57.907104 -25.680542 -43.606567 -13.092041 -49.54834 -48.54126 -2.7191162 
-44.311523 28.80249 107.455444 138.07068 159.52148 163.65051 201.71814 237.7716 193.86292 174.52698 163.85193 134.24377 135.65369 154.28467 114.70642 99.90234 70.79773 28.80249 21.75293 39.779663 56.19507 27.392578 -24.371338 -42.39807 -50.354004 -49.346924 -65.460205 -73.71826 -55.08728 -40.283203 -25.27771 -7.8552246 -70.495605 -144.7174 -90.33508 -49.95117 -58.007812 -55.288696 -50.656128 -92.14783 -50.354004 0.70495605 59.21631 70.79773 69.89136 64.453125 115.7135 146.53015 123.568726 124.97864 117.526245 91.241455 113.80005 149.45068 118.63403 65.76233 -20.947266 -47.53418 -56.295776 -36.154175 17.926025 -17.321777 -60.424805 -65.15808 -71.20056 -62.942505 -80.96924 -94.56482 -81.37207 -75.531006 -81.97632 -71.60339 -108.76465 -133.2367 -84.59473 -57.403564 -20.141602 40.283203 16.21399 -87.91809 -90.83862 -60.12268 21.350098 44.815063 71.20056 98.49243 145.22095 126.28784 64.65454 52.06604 84.89685 101.01013 134.14307 134.34448 76.135254 53.878784 9.365845 -4.3304443 1.2084961 14.401245 38.571167 12.185669 -38.671875 -75.4303 -92.248535 -92.14783 -102.01721 -103.427124 -89.93225 -82.58057 -80.76782 -69.79065 -96.07544 -127.99988 -94.86694 -76.135254 -69.89136 -41.290283 -23.867798 -74.42322 -45.217896 -2.8198242 68.481445 79.96216 90.93933 82.58057 129.20837 139.37988 110.57739 107.25403 106.448364 87.61597 98.291016 91.94641 32.42798 8.862305 -17.623901 -30.715942 -21.75293 1.5106201 23.867798 -9.265137 -54.0802 -73.013306 -90.33508 -98.49243 -122.96448 -117.72766 -101.01013 -103.22571 -101.11084 -84.99756 -120.7489 -146.63086 -107.85828 -98.291016 -86.00464 -22.457886 -29.708862 -107.958984 -72.20764 -22.659302 60.72693 86.60889 106.8512 105.340576 155.09033 150.05493 122.86377 127.49634 139.682 118.33191 138.07068 134.94873 68.28003 20.544434 -17.422485 -37.060547 -33.233643 -20.544434 -2.3162842 -39.578247 -84.89685 -104.23279 -130.41687 -154.6875 -186.71265 -218.7378 -236.4624 -269.79675 -283.49304 -288.93127 -313.70544 -296.6858 -203.7323 -142.50183 -125.18005 -103.427124 -118.83545 -174.12415 
2911.267 2897.5708 2883.8745 2871.1853 2858.0933 2844.397 2831.5063 2834.729 2854.065 2872.7966 2891.1255 2909.0515 2926.7761 2944.2993 2961.7217 2978.842 2995.9624 3012.7808 3029.5989 3046.3164 3062.732 3079.4495 3095.2605 3111.8774 -2078.4119 2610.6536 3105.5327 3091.333 3076.9316 3062.732 3048.3306 3034.03 3020.2332 3006.5369 2992.7397 2978.7415 2964.6423 2950.6438 2936.847 2922.9492 2909.253 2895.9595 2882.7666 2869.0703 2856.1797 2842.5842 2829.895 2836.3403 2855.6763 2874.2065 2892.4346 2910.4614 2928.2866 2945.7092 2963.031 2980.252 2997.3723 3014.1907 3031.0088 3047.6257 3064.041 3080.1543 3096.7712 3112.5823 -1763.1958 3110.1653 3104.0222 3089.7217 3075.4211 3061.0198 3046.82 3032.4187 3018.8232 3005.0261 2991.1284 2977.2307 2963.1316 2949.1333 2935.3362 2921.5393 2907.843 2894.046 2880.9539 2867.3584 2854.4678 2841.0735 2828.0823 2837.0452 2856.2805 2874.8108 2893.1396 2911.0657 2928.7903 2946.3135 2963.6353 2980.8562 2997.876 3014.795 3031.5125 3048.1292 3064.6453 3080.658 3096.7712 3113.388 -1512.2314 3116.7114 3102.5115 3088.211 3073.9104 3059.7107 3045.3093 3030.9082 3017.4133 3003.6162 2989.618 2975.8208 2961.621 2947.7234 2933.8257 2919.928 2906.3323 2893.0388 2879.3425 2866.5527 2853.662 2839.865 2826.37 2838.0522 2857.0862 2875.717 2894.046 2911.972 2929.596 2947.1191 2964.5415 2981.5613 2998.5808 3015.4998 3032.2173 3048.8342 3065.3503 3082.0679 3097.7783 3114.2944 -1125.8148 3115.1 3100.9001 3086.5996 3072.299 3058.0994 3043.5974 3029.3975 3015.802 3002.005 2988.1072 2974.008 2960.0098 2946.112 2932.2144 2918.4172 2904.8218 2891.5283 2878.3354 2864.74 2851.7485 2838.455 2803.711 2839.1602 2858.1938 2876.825 2895.053 2912.979 2930.7036 2948.1262 2965.448 2982.669 2999.588 3016.6077 3033.3252 3049.8413 3066.2566 3082.3699 3099.0874 3114.7979 -711.09924 3112.985 3098.9868 3084.7869 3070.4863 3056.1858 3041.8853 3027.5847 3013.9893 3000.293 2986.3953 2972.2961 2958.2976 2944.2993 2930.5022 2916.806 
3163.5405 3148.6357 3133.9324 3118.8262 3094.1528 1901.8707 -1945.3766 3109.0576 3125.3723 3141.2842 3157.2966 3173.108 3188.8184 3204.5288 3220.2393 3235.7483 3251.2573 -2066.327 3257.2998 3243.2007 3229.303 3214.9016 3200.3997 3185.8977 3171.1943 3156.8938 3141.1833 3126.178 1485.3424 3119.5312 3136.0474 3152.2612 3168.173 3184.1858 3199.8962 3215.7073 2997.2717 3203.3203 3189.4226 3175.3235 3160.7207 3145.7153 3130.9111 3115.9058 2909.0515 1367.1112 -2838.9587 3111.676 3127.7893 3143.8018 3159.7136 3175.525 3191.336 3207.0464 3222.5554 3238.0645 3253.473 -1404.1718 3256.192 3242.1936 3228.195 3214.096 3199.292 3184.5886 3170.0867 3155.5847 3140.0757 3124.8687 1285.1349 3120.236 3136.5508 3152.765 3168.7773 3184.5886 3200.3997 3216.11 3215.3044 3201.6082 3187.7104 3173.41 3158.908 3143.8018 3129.0984 3113.8916 2944.9036 1409.4086 3144.3054 3110.3667 3126.6814 3142.694 3158.606 3174.417 3190.2283 3205.9387 3221.4478 3237.0574 3252.4658 -1086.1359 3253.8757 3239.7766 3225.9795 3211.7798 3196.875 3182.373 3167.6697 3152.8655 3137.6587 3122.5525 758.5327 3121.1426 3137.5579 3153.6711 3169.6838 3185.5957 3201.3062 3227.893 3213.391 3199.594 3185.797 3171.5972 3156.9946 3142.2913 3127.185 3112.2803 2928.7903 1608.9111 3092.2393 3108.7554 3124.8687 3140.8813 3156.8938 3172.6042 3188.3147 3204.126 3219.635 3235.2446 3250.653 -680.88684 3249.8474 3236.0503 3222.052 3207.852 3192.7458 3178.4453 3163.9434 3149.1394 3133.8318 3118.7256 489.44092 3119.3298 3135.745 3151.7578 3167.871 3183.6821 3199.594 -3207.7515 3209.8662 3196.0693 3182.1716 3167.9717 3153.4697 3138.6658 3123.4587 3108.6548 2825.4639 948.0652 3093.8506 3110.266 3126.3794 3142.3918 3158.3037 3174.115 3189.8254 3205.536 3221.1455 3236.6545 3252.063 -292.45605 3249.4446 3235.6475 3221.5483 3207.3486 3192.5444 3177.942 3163.44 3148.6357 3133.3281 3115.805 32.93152 3121.4446 3137.7593 3153.772 3169.8853 3185.6963 3201.4067 -2842.6848 3209.0605 3195.3643 3181.4666 3167.2668 
-2833.319 -2821.4355 -2809.4512 -2797.8699 -2785.785 -2774.3042 -2763.1255 3299.8992 3299.8992 3299.8992 3299.8992 3299.8992 3299.8992 3299.8992 3299.8992 3299.8992 3299.8992 3299.8992 3299.8992 3299.8992 3299.8992 3299.8992 3299.8992 3170.3887 294.3695 -2752.6519 -3010.1624 -2996.3652 -2982.8704 -2969.8792 -2956.8877 -2943.7957 -2930.905 -2918.3167 -2905.728 -2893.341 -2880.9539 -2868.6675 -2856.482 -2844.397 -2832.312 -2820.4285 -2808.7463 -2796.8628 -2785.5835 -2773.9014 -2762.1184 3299.8992 3299.8992 3299.8992 3299.8992 3299.8992 3299.8992 3299.8992 3299.8992 3299.8992 3299.8992 3299.8992 3299.8992 3299.8992 3299.8992 3299.8992 3299.8992 2737.0422 -242.90771 -3020.4346 -3006.3354 -2993.042 -2979.95 -2966.858 -2953.7659 -2940.8752 -2928.186 -2915.2954 -2902.9082 -2890.5212 -2878.2349 -2866.049 -2853.662 -2841.6777 -2829.6936 -2817.81 -2805.725 -2793.8416 -2782.6628 -2771.0815 -2759.2986 3299.8992 3299.8992 3299.8992 3299.8992 3299.8992 3299.8992 3299.8992 3299.8992 3299.8992 3299.8992 3299.8992 3299.8992 3299.8992 3299.8992 3299.8992 3299.8992 2841.0735 -186.81335 -3019.8303 -3006.436 -2992.7397 -2979.2449 -2966.1528 -2953.1616 -2940.3716 -2927.481 -2914.6912 -2902.2034 -2889.7156 -2877.5298 -2865.2434 -2853.0579 -2840.973 -2829.0894 -2817.105 -2805.4229 -2793.6401 -2782.26 -2770.6787 -2645.5994 3299.8992 3299.8992 3299.8992 3299.8992 3299.8992 3299.8992 3299.8992 3299.8992 3299.8992 3299.8992 3299.8992 3299.8992 3299.8992 3299.8992 3299.8992 3299.8992 2471.576 -618.5486 -3017.9167 -3003.8176 -2990.4236 -2977.533 -2964.1387 -2951.248 -2938.5588 -2925.769 -2913.0798 -2900.592 -2887.9028 -2875.8179 -2863.632 -2851.4465 -2839.3616 -2827.478 -2815.5945 -2803.5095 -2791.5251 -2780.3467 -2768.7651 -2112.3503 3299.8992 3299.8992 3299.8992 3299.8992 3299.8992 3299.8992 3299.8992 3299.8992 3299.8992 3299.8992 3299.8992 3299.8992 3299.8992 3299.8992 3299.8992 3299.8992 2254.4495 -775.55237 -3015.802 -3002.5085 -2988.7114 -2975.5188 -2962.326 -2949.234 -2936.444 -2923.755 -2910.9648 -2898.477 -2886.1907 -2873.8037 -2861.618 -2849.4324 -2837.3474 
-2501.486 -2490.3076 -2479.2297 -2468.4539 -2457.6782 -2446.9023 -2436.1267 -2425.5522 -2415.1794 -2404.5044 -2394.2322 -2383.8591 -853.50037 2979.849 3299.8992 3299.8992 3299.8992 3299.8992 3299.8992 3299.8992 3299.8992 3299.8992 3299.8992 3299.8992 3299.8992 3299.8992 3299.8992 3038.562 -2638.449 -2625.4578 -2612.97 -2600.6836 -2588.6992 -2576.6143 -2564.8315 -2553.0486 -2541.4673 -2530.0872 -2518.8079 -2507.428 -2496.2493 -2485.1714 -2473.892 -2463.1165 -2452.4414 -2441.6655 -2431.0913 -2420.5168 -2409.9426 -2399.3682 -2389.096 -2378.8237 -522.67456 3299.8992 3299.8992 3299.8992 3299.8992 3299.8992 3299.8992 3299.8992 3299.8992 3299.8992 3299.8992 3299.8992 3299.8992 3299.8992 3299.8992 2662.317 -2635.5286 -2622.7385 -2610.0493 -2597.763 -2585.7788 -2573.7944 -2562.0117 -2550.3296 -2538.748 -2527.2673 -2515.988 -2504.7087 -2493.5303 -2482.4524 -2471.7773 -2460.5986 -2449.6216 -2438.9465 -2428.2715 -2417.697 -2407.3242 -2396.8506 -2386.377 -2376.1047 -305.24597 3299.8992 3299.8992 3299.8992 3299.8992 3299.8992 3299.8992 3299.8992 3299.8992 3299.8992 3299.8992 3299.8992 3299.8992 3299.8992 3299.8992 2383.96 -2633.615 -2620.7244 -2608.0352 -2595.7488 -2583.7646 -2571.7803 -2559.9976 -2548.416 -2536.8347 -2525.354 -2513.9739 -2502.6946 -2491.6167 -2480.5388 -2469.9646 -2458.786 -2447.8088 -2437.1338 -2426.4587 -2415.985 -2405.4106 -2394.937 -2384.6648 -2374.3926 -218.03284 3299.8992 3299.8992 3299.8992 3299.8992 3299.8992 3299.8992 3299.8992 3299.8992 3299.8992 3299.8992 3299.8992 3299.8992 3299.8992 3299.8992 1888.0737 -2630.3923 -2617.6025 -2605.1147 -2592.929 -2580.7434 -2568.9604 -2557.1777 -2545.5962 -2534.015 -2522.6348 -2511.3555 -2500.0762 -2488.8977 -2477.8198 -2466.8425 -2455.8655 -2445.3918 -2434.616 -2423.941 -2413.3667 -2402.893 -2392.4194 -2382.1472 -2371.5728 70.59631 3299.8992 3299.8992 3299.8992 3299.8992 3299.8992 3299.8992 3299.8992 3299.8992 3299.8992 3299.8992 3299.8992 3299.8992 3299.8992 3299.8992 1189.1602 -2627.371 -2614.5813 -2602.194 -2589.9077 -2578.0242 -2566.04 -2554.1565 -2542.6758 -2531.2957 -2519.815 -2508.5356 -2497.2563 
-3245.6177 -3230.4106 -3215.808 -3200.3997 -3185.5957 -3171.0938 -3156.5918 3299.8992 3299.8992 3299.8992 3299.8992 3299.8992 3299.8992 3299.8992 3299.8992 3299.8992 3299.8992 3287.0085 3271.1975 3255.3862 3239.978 3224.3682 3208.255 3193.1487 3177.7405 3162.2314 2324.7437 -1334.079 3162.9363 3179.5532 3195.9685 3212.384 3228.598 3244.7112 3260.9253 3276.7363 3292.5476 -3291.742 -3276.132 -3260.623 -3245.3154 -3229.9072 -3215.3044 -3199.9968 -3185.1929 -3170.59 -3156.189 3299.8992 3299.8992 3299.8992 3299.8992 3299.8992 3299.8992 3299.8992 3299.8992 3299.8992 3299.8992 3284.491 3268.7805 3253.07 3237.4602 3221.9512 3206.0393 3190.631 3175.2227 3159.8145 1900.6622 -1872.5647 3165.1519 3181.7688 3198.285 3214.801 3230.9143 3246.9268 3263.04 3278.8513 3294.6624 -3289.627 -3273.816 -3258.4075 -3243.0999 -3227.893 -3212.686 -3197.9827 -3183.1787 -3168.576 -3154.1748 3299.8992 3299.8992 3299.8992 3299.8992 3299.8992 3299.8992 3299.8992 3299.8992 3299.8992 3299.8992 3284.793 3269.0825 3253.372 3237.7625 3222.1526 3206.7444 3191.1345 3175.525 3159.8145 1590.2802 -2214.972 3168.4753 3185.1929 3201.709 3217.9229 3234.137 3250.2502 3266.3635 3282.2754 3297.9858 -3286.3037 -3270.7947 -3255.2856 -3239.978 -3224.771 -3209.5642 -3194.6594 -3180.1575 -3165.454 -3151.1536 3299.8992 3299.8992 3299.8992 3299.8992 3299.8992 3299.8992 3299.8992 3299.8992 3299.8992 3299.8992 3285.498 3269.7876 3254.0771 3238.4673 3222.8577 3207.3486 3191.7388 3176.2297 3159.915 1411.5234 -2403.195 3170.7915 3187.509 3203.9246 3220.2393 3236.4531 3252.5664 3268.4783 3284.491 3299.8992 -3283.9873 -3268.579 -3253.1707 -3237.863 -3222.6562 -3207.3486 -3192.5444 -3178.0425 -3163.5405 -2991.3298 3299.8992 3299.8992 3299.8992 3299.8992 3299.8992 3299.8992 3299.8992 3299.8992 3299.8992 3299.8992 3284.793 3269.0825 3253.372 3237.863 3222.052 3206.6436 3191.1345 3175.525 3156.6924 1136.1877 -2601.0864 3172.5037 3189.1204 3205.536 3221.8506 3238.0645 3254.1777 3270.0896 3286.0015 3299.8992 -3282.5774 -3267.0684 -3251.6602 
-3040.4753 -3027.182 -3013.7878 -3000.595 -2987.6038 -2974.6123 -2961.923 -2949.3347 -1715.0574 1449.9939 3299.8992 3299.8992 3299.8992 3299.8992 3299.8992 3299.8992 3299.8992 3299.8992 3299.8992 3299.8992 3299.8992 3299.8992 3299.8992 3299.8992 3299.8992 3299.8992 3299.8992 1669.6381 -3209.1614 -3193.753 -3178.5461 -3163.5405 -3148.6357 -3134.1338 -3119.6318 -3105.3313 -3091.2322 -3077.3345 -3063.5376 -3049.942 -3036.447 -3022.9521 -3009.7595 -2996.6675 -2983.676 -2970.7854 -2957.8948 -2945.407 -1686.4563 1401.8555 3299.8992 3299.8992 3299.8992 3299.8992 3299.8992 3299.8992 3299.8992 3299.8992 3299.8992 3299.8992 3299.8992 3299.8992 3299.8992 3299.8992 3299.8992 3299.8992 3299.8992 1076.9714 -3203.8237 -3188.3147 -3173.108 -3158.1023 -3143.4998 -3128.7964 -3114.395 -3100.0945 -3086.1968 -3072.0977 -3058.5022 -3044.9065 -3031.5125 -3017.9167 -3004.8247 -2991.7327 -2978.6406 -2965.9514 -2953.1616 -2940.573 -1442.038 1627.5421 3299.8992 3299.8992 3299.8992 3299.8992 3299.8992 3299.8992 3299.8992 3299.8992 3299.8992 3299.8992 3299.8992 3299.8992 3299.8992 3299.8992 3299.8992 3299.8992 3299.8992 947.9645 -3200.8025 -3185.1929 -3170.0867 -3155.182 -3140.4785 -3125.9766 -3111.676 -3097.476 -3083.377 -3069.4792 -3055.6824 -3042.0867 -3028.5918 -3015.2983 -3002.1057 -2989.0137 -2976.0222 -2963.2324 -2950.5432 -2937.9546 -1493.1976 1549.8962 3299.8992 3299.8992 3299.8992 3299.8992 3299.8992 3299.8992 3299.8992 3299.8992 3299.8992 3299.8992 3299.8992 3299.8992 3299.8992 3299.8992 3299.8992 3299.8992 3299.8992 -520.3583 -3193.9543 -3178.4453 -3163.2385 -3148.4343 -3133.8318 -3119.3298 -3105.13 -3090.9302 -3076.9316 -3063.034 -3049.3376 -3035.7422 -3022.348 -3009.0544 -2995.8618 -2982.8704 -2969.8792 -2957.089 -2944.5007 -2932.013 -1335.086 1662.2864 3299.8992 3299.8992 3299.8992 3299.8992 3299.8992 3299.8992 3299.8992 3299.8992 3299.8992 3299.8992 3299.8992 3299.8992 3299.8992 3299.8992 3299.8992 3299.8992 3299.8992 -1301.5503 -3187.4084 -3172.1008 -3156.9946 -3142.2913 -3127.588 -3113.086 -3098.886 -3084.7869 -3070.7886 -3056.8909 -3043.2952 -3029.8003 

43.606567 84.79614 63.14392 47.131348 33.9386 10.675049 -58.410645 -14.199829 44.815063 44.815063 7.5531006 -45.92285 -94.262695 -150.8606 -153.27759 -84.89685 -16.918945 -8.761597 -20.947266 -19.537354 38.36975 137.36572 243.31055 291.44897 312.29553 286.31287 306.958 381.88477 413.10425 399.9115 368.69202 311.48987 246.4325 126.79138 -60.324097 -227.09656 -398.19946 -568.89954 -582.69653 -522.67456 -441.20178 -321.56067 -306.958 -290.3412 -239.88647 -159.7229 -155.69458 -163.85193 -181.37512 -120.24536 10.171509 56.799316 41.39099 60.525513 62.942505 56.295776 118.029785 146.32874 101.815796 54.68445 62.64038 113.09509 125.7843 117.22412 135.04944 153.479 153.57971 84.09119 40.686035 20.040894 17.825317 12.387085 63.043213 61.935425 14.501953 27.493286 25.579834 -63.446045 -71.502686 -36.4563 -36.4563 -36.4563 -36.4563 -36.4563 -36.4563 -36.4563 -36.4563 -36.4563 -36.4563 -36.4563 -36.4563 -36.4563 -36.4563 -36.4563 -36.4563 -36.4563 -36.4563 -36.4563 -36.4563 -36.4563 123.36731 140.08484 111.08093 58.10852 21.551514 -1.8127441 43.203735 19.839478 8.660889 13.796997 -4.1290283 -3.0212402 -6.6467285 -27.694702 10.977173 71.60339 82.58057 67.57507 92.14783 74.2218 31.723022 31.924438 91.44287 171.40503 174.22485 122.15881 48.843384 46.325684 -11.178589 -34.744263 0.10070801 -0.60424805 5.3375244 31.018066 8.660889 -59.921265 -84.191895 -60.021973 -41.592407 -50.05188 -21.24939 42.90161 75.93384 102.52075 151.96838 211.48682 207.05566 128.50342 48.239136 34.94568 21.148682 81.87561 179.05884 182.58362 108.76465 12.185669 -90.5365 -178.656 -177.3468 -200.0061 -243.71338 -231.82983 -202.02026 -79.96216 -7.4523926 82.78198 143.71033 243.9148 188.92822 91.34216 130.11475 160.62927 92.34924 16.314697 -48.94409 -62.841797 -10.876465 -1.1077881 -62.338257 -48.239136 72.61047 131.52466 179.66309 187.3169 136.05652 103.02429 47.93701 -40.585327 58.20923 168.18237 181.27441 126.589966 51.260376 -117.42554 -259.72595 -324.07837 -310.4828 -263.75427 -152.67334 -112.79297 
-161.13281 -131.22253 -76.538086 -66.87012 -33.737183 1.8127441 100.00305 110.27527 97.98889 102.52075 110.17456 95.773315 99.49951 106.24695 101.51367 98.39172 105.441284 133.94165 203.93372 261.7401 271.6095 218.33496 164.6576 135.8551 116.31775 100.20447 70.3949 40.38391 7.4523926 -12.185669 -16.616821 -17.926025 -67.77649 -73.11401 -19.23523 2.7191162 26.989746 88.92517 83.184814 67.67578 98.0896 106.14624 153.57971 175.73547 177.14539 159.42078 203.02734 169.29016 141.39404 124.4751 99.298096 86.60889 85.40039 59.518433 8.459473 -3.4240723 -35.751343 -61.6333 -27.896118 12.890625 27.896118 4.7332764 -24.975586 -28.500366 -41.39099 -51.159668 -74.2218 -67.37366 -89.93225 -122.36023 -142.1997 -146.42944 -195.07141 -177.44751 -113.90076 -113.90076 -132.63245 -100.50659 -128.2013 -116.41846 -47.131348 39.47754 111.483765 123.87085 133.74023 150.35706 217.93213 175.93689 106.04553 45.52002 15.307617 12.689209 27.191162 13.394165 -19.638062 -37.96692 -51.361084 -54.18091 -9.768677 39.175415 44.41223 1.5106201 -42.90161 -74.523926 -110.17456 -129.6112 -164.85901 -150.15564 -131.42395 -131.62537 -143.60962 -169.7937 -210.68115 -192.55371 -166.97388 -180.87158 -189.33105 -155.9967 -162.84485 -111.18164 -50.152588 -23.062134 -8.761597 -29.507446 -25.177002 -12.689209 55.59082 53.778076 84.2926 91.64429 83.78906 132.63245 187.61902 167.1753 117.526245 96.17615 78.45154 58.813477 96.17615 148.14148 113.1958 32.125854 -18.026733 -41.39099 -53.878784 -88.11951 -143.81104 -138.77563 -113.1958 -107.25403 -80.667114 -77.84729 -116.31775 -88.42163 -62.438965 -88.32092 -87.91809 -57.806396 -99.90234 -77.34375 0.50354004 83.99048 168.28308 164.7583 136.25793 119.64111 152.77405 109.67102 125.48218 142.40112 110.476685 77.645874 64.55383 13.998413 -15.609741 -39.98108 -78.652954 -102.52075 -60.72693 -14.501953 -12.991333 -20.544434 -41.793823 -45.217896 -73.11401 -115.20996 -97.18323 -5.1361084 -3.2226562 -25.177002 7.9559326 13.897705 -28.29895 8.761597 41.39099 40.585327 67.37366 94.262695 37.46338 20.846558 
2903.009 2889.4133 2876.3213 2862.9272 2849.9358 2836.5417 2093.82 2840.1672 2859.3018 2877.7312 2895.8586 2913.8855 2931.5093 2949.0325 2966.2537 2983.4746 3000.4944 3017.3125 3034.03 3050.5461 3067.163 3083.1755 3099.1882 3115.9058 -516.9342 3112.3809 3098.1812 3083.7798 3069.58 3055.2795 3040.979 3026.779 3013.1836 2999.3865 2985.3882 2971.4905 2957.3914 2943.4937 2929.596 2915.7988 2902.304 2889.1113 2875.3142 2862.5244 2849.6338 2835.9375 880.188 2841.6777 2860.6108 2879.141 2897.2686 2915.1946 2933.02 2950.241 2967.6636 2984.784 3001.703 3018.7224 3035.3394 3051.956 3068.3716 3085.089 3101.4038 3117.2148 -132.1289 3111.5752 3097.577 3083.377 3068.9758 3054.776 3040.4753 3026.2756 3012.68 2998.7822 2984.9854 2970.8862 2956.8877 2942.8894 2929.0923 2915.2954 2901.8005 2888.1042 2875.0122 2861.5173 2848.6267 2835.2324 -722.37854 2843.5913 2862.5244 2880.9539 2899.0813 2916.9067 2934.6313 2951.9531 2969.3755 2986.4958 3003.4148 3020.2332 3037.0513 3053.5674 3069.983 3086.0962 3102.2095 3171.5972 314.00757 3110.266 3096.0662 3081.665 3067.465 3053.1646 3038.864 3024.765 3011.1694 2997.2717 2983.4746 2969.3755 2955.4778 2941.3787 2927.5818 2913.7847 2900.1892 2887.0972 2873.3 2860.6108 2847.6196 2834.024 -3136.6516 2844.7998 2863.733 2882.0618 2900.2898 2918.1152 2935.739 2953.0608 2970.3826 2987.6038 3004.4219 3021.3408 3038.0583 3054.5745 3071.0906 3087.7075 3103.418 -3199.594 811.60583 3108.4534 3094.2534 3079.8523 3065.6523 3051.4526 3037.0513 3023.053 3009.4573 2995.5596 2981.6619 2967.6636 2953.5645 2939.7673 2925.9705 2912.1733 2898.578 2885.385 2872.1924 2858.798 2845.807 2832.5134 2826.37 2846.0083 2864.8406 2883.2703 2901.2969 2919.223 2936.746 2954.1687 2971.3896 2988.6108 3005.429 3022.348 3038.9648 3055.5815 3072.0977 3088.0095 3104.6265 -3132.7239 914.328 3108.4534 3094.4548 3080.1543 3065.8538 3051.654 3037.2527 3023.2544 3009.6587 2995.8618 2981.8633 2967.7642 2953.8665 2940.0696 2926.071 2912.3748 
3152.5635 3138.0615 3122.8545 3107.849 2766.5496 883.51135 3094.3542 3110.568 3126.7822 3142.694 3158.606 3174.417 3190.1274 3205.838 3221.4478 3236.9568 3252.365 172.91565 3247.7324 3233.7341 3219.7356 3205.6365 3190.8325 3176.2297 3161.6272 3146.9238 3131.5154 3113.086 -200.91248 3121.0417 3137.2559 3153.4697 3169.583 3185.2935 3201.1047 -2335.8215 3206.2407 3192.5444 3178.5461 3164.2456 3149.6428 3134.9395 3119.8333 3104.9285 2553.955 371.91467 3095.9656 3112.1794 3128.2927 3144.2046 3160.1165 3175.9277 3191.6382 3207.3486 3222.8577 3238.3667 3253.8757 677.7649 3246.7253 3232.9285 3218.8293 3204.6294 3189.926 3175.2227 3160.7207 3145.9167 3130.5083 3075.824 -858.23364 3123.8616 3139.9749 3156.0881 3172.1008 3187.8113 3203.7231 -1671.048 3206.0393 3192.343 3178.3447 3164.0442 3149.4414 3134.9395 3119.6318 3104.9285 2805.725 648.5596 3093.5486 3109.9639 3125.9766 3141.989 3157.901 3173.7122 3189.4226 3205.0322 3220.642 3236.2517 3251.5593 945.4468 3243.3013 3229.4036 3215.5059 3201.3062 3186.4014 3171.8994 3157.3975 3142.4927 3127.185 2968.6707 -1027.8259 3121.7468 3137.9607 3154.074 3169.9858 3185.8977 3201.709 -1116.0461 3201.9104 3188.214 3174.2156 3159.915 3145.3125 3130.8105 3115.503 3100.1953 2420.4163 189.23035 3094.2534 3110.0647 3126.178 3142.2913 3158.1023 3173.9136 3189.5232 3205.2336 3220.7427 3236.2517 3251.6602 1723.114 3240.1794 3226.3823 3212.2832 3197.9827 3183.5815 3169.0796 3154.3762 3140.1763 3124.2644 2730.7983 -1702.3682 3122.653 3138.8672 3154.9805 3170.8923 3186.8042 3202.5146 -672.6288 3201.2053 3187.509 3173.5107 3159.1094 3144.5068 3129.602 3114.6973 3099.591 2483.661 -194.87 3095.059 3111.2732 3127.3865 3143.2983 3159.3108 3174.9207 3190.7317 3206.4421 3221.8506 3237.4602 3252.8687 2143.2678 3239.6758 3225.778 3211.7798 3197.177 3182.675 3168.173 3153.6711 3139.27 3123.1567 2421.0205 -2378.6223 3125.3723 3141.4856 3157.6995 3173.5107 3189.4226 3205.0322 351.87378 3200.5005 3186.8042 3172.705 3158.3037 
-2825.4639 -2813.5803 -2801.8982 -2790.4175 -2778.433 -2766.9524 -1001.0376 3299.8992 3299.8992 3299.8992 3299.8992 3299.8992 3299.8992 3299.8992 3299.8992 3299.8992 3299.8992 3299.8992 3299.8992 3299.8992 3299.8992 3299.8992 3299.8992 2135.4126 -1024.3011 -3015.1978 -3001.1992 -2987.8052 -2974.9146 -2961.7217 -2948.831 -2935.8398 -2922.9492 -2910.562 -2898.175 -2885.6873 -2873.401 -2861.1145 -2849.0295 -2836.9446 -2824.8596 -2813.1775 -2801.193 -2789.3096 -2778.131 -2766.5496 60.62622 3299.8992 3299.8992 3299.8992 3299.8992 3299.8992 3299.8992 3299.8992 3299.8992 3299.8992 3299.8992 3299.8992 3299.8992 3299.8992 3299.8992 3299.8992 3299.8992 1904.6906 -1198.526 -3013.9893 -3000.6958 -2987.1 -2973.6052 -2960.5132 -2947.6226 -2934.732 -2922.0427 -2909.4543 -2896.8657 -2884.7808 -2872.293 -2859.906 -2847.821 -2835.9375 -2823.8525 -2812.0696 -2800.3875 -2789.0076 -2776.9226 -2765.442 1393.1946 3299.8992 3299.8992 3299.8992 3299.8992 3299.8992 3299.8992 3299.8992 3299.8992 3299.8992 3299.8992 3299.8992 3299.8992 3299.8992 3299.8992 3299.8992 3299.8992 1642.0441 -1443.045 -3012.7808 -2999.6887 -2985.8916 -2972.5981 -2959.506 -2946.515 -2933.8257 -2921.0356 -2908.2458 -2895.8586 -2883.3708 -2871.286 -2859.3018 -2846.9146 -2834.8296 -2822.8455 -2811.0625 -2799.3804 -2787.5977 -2776.3184 -2764.8376 3214.9016 3299.8992 3299.8992 3299.8992 3299.8992 3299.8992 3299.8992 3299.8992 3299.8992 3299.8992 3299.8992 3299.8992 3299.8992 3299.8992 3299.8992 3299.8992 3299.8992 1397.2229 -1694.3115 -3011.8743 -2998.4802 -2984.9854 -2971.591 -2958.5999 -2945.6084 -2932.8186 -2920.1294 -2907.4402 -2894.9524 -2882.5652 -2870.4802 -2858.0933 -2846.109 -2834.024 -2821.939 -2810.1562 -2798.5747 -2787.094 -2775.1099 -2763.6292 3299.8992 3299.8992 3299.8992 3299.8992 3299.8992 3299.8992 3299.8992 3299.8992 3299.8992 3299.8992 3299.8992 3299.8992 3299.8992 3299.8992 3299.8992 3299.8992 3299.8992 1211.4166 -1805.9967 -3011.4714 -2998.2788 -2984.4817 -2971.1882 -2958.0962 -2945.2056 -2932.4158 -2919.6257 -2907.138 -2894.6501 -2882.2632 -2869.9768 -2857.791 -2845.6055 -2833.722 
-2486.1785 -2475.1006 -2463.922 -2453.1462 -2442.4712 -2431.7961 -2421.121 -2410.7483 -2400.1738 -2389.801 -2379.428 -2366.5374 257.9132 3299.8992 3299.8992 3299.8992 3299.8992 3299.8992 3299.8992 3299.8992 3299.8992 3299.8992 3299.8992 3299.8992 3299.8992 3299.8992 3299.8992 631.74133 -2623.7456 -2610.9558 -2598.6694 -2586.383 -2574.3987 -2562.616 -2550.833 -2539.3523 -2527.6702 -2516.3909 -2505.1116 -2493.933 -2482.7544 -2471.7773 -2461.203 -2450.0244 -2439.148 -2428.473 -2417.8984 -2407.3242 -2396.9512 -2386.4775 -2376.2053 -2232.2937 447.34497 3299.8992 3299.8992 3299.8992 3299.8992 3299.8992 3299.8992 3299.8992 3299.8992 3299.8992 3299.8992 3299.8992 3299.8992 3299.8992 3299.8992 210.37903 -2620.523 -2608.0352 -2595.5474 -2583.3618 -2571.2769 -2559.494 -2547.8118 -2536.2305 -2524.649 -2513.3696 -2502.0903 -2490.9119 -2479.834 -2468.8567 -2458.2825 -2447.2046 -2436.3281 -2425.653 -2415.0786 -2404.5044 -2394.2322 -2383.6577 -2373.3855 -2014.3616 919.6655 3299.8992 3299.8992 3299.8992 3299.8992 3299.8992 3299.8992 3299.8992 3299.8992 3299.8992 3299.8992 3299.8992 3299.8992 3299.8992 3299.8992 -727.41394 -2617.5017 -2604.8125 -2592.4255 -2580.3406 -2568.3562 -2556.5735 -2544.8914 -2533.3098 -2521.829 -2510.5498 -2499.17 -2488.092 -2477.1147 -2466.0369 -2455.0598 -2444.3848 -2433.609 -2423.0347 -2412.4602 -2401.9866 -2391.513 -2381.1401 -2370.868 -1883.6426 1219.6747 3299.8992 3299.8992 3299.8992 3299.8992 3299.8992 3299.8992 3299.8992 3299.8992 3299.8992 3299.8992 3299.8992 3299.8992 3299.8992 3299.8992 -1026.6174 -2615.8904 -2603.302 -2591.0156 -2578.8298 -2566.9463 -2555.0627 -2543.4814 -2531.9 -2520.4192 -2509.14 -2497.76 -2486.5813 -2475.6042 -2464.627 -2453.65 -2442.874 -2432.2998 -2421.7253 -2411.0503 -2400.5767 -2390.103 -2379.7302 -2369.458 -1872.3633 1148.877 3299.8992 3299.8992 3299.8992 3299.8992 3299.8992 3299.8992 3299.8992 3299.8992 3299.8992 3299.8992 3299.8992 3299.8992 3299.8992 3299.8992 -1786.6608 -2610.9558 -2598.3672 -2586.0808 -2574.1973 -2562.2131 -2550.3296 -2538.748 -2527.1667 -2515.7866 -2504.5073 -2493.228 -2482.1501 
-3236.2517 -3221.1455 -3206.4421 -3191.336 -3176.532 -3162.03 -2569.464 3299.8992 3299.8992 3299.8992 3299.8992 3299.8992 3299.8992 3299.8992 3299.8992 3299.8992 3299.6978 3283.786 3268.0754 3252.2644 3236.7554 3221.1455 3205.2336 3190.0269 3174.5178 3155.3833 929.6356 -2831.1035 3173.6113 3190.1274 3206.543 3222.7568 3238.971 3255.0842 3270.996 3287.0085 3299.8992 -3281.6711 -3266.162 -3250.5522 -3235.446 -3220.1384 -3205.536 -3190.4297 -3175.7263 -3161.2244 -2056.8604 3299.8992 3299.8992 3299.8992 3299.8992 3299.8992 3299.8992 3299.8992 3299.8992 3299.8992 3298.3887 3282.4768 3266.7664 3251.1565 3235.5469 3219.937 3203.8237 3188.617 3173.2085 3145.0103 593.2709 -2957.3914 3174.7192 3191.2354 3207.7515 3223.9653 3240.1794 3256.2927 3272.2046 3288.217 3299.8992 -3280.5632 -3264.9536 -3249.4446 -3234.137 -3219.1313 -3204.5288 -3189.3218 -3174.6184 -3160.2173 -1491.8884 3299.8992 3299.8992 3299.8992 3299.8992 3299.8992 3299.8992 3299.8992 3299.8992 3299.8992 3297.0793 3281.369 3265.5579 3249.948 3234.3384 3218.93 3202.716 3187.509 3172.2014 3105.3313 260.83374 3284.5916 3176.6326 3193.048 3209.5642 3225.6775 3241.8914 3257.904 3274.0173 3289.8284 3299.8992 -3278.8513 -3263.3423 -3247.8333 -3232.6262 -3217.4194 -3202.3132 -3187.7104 -3173.108 -3158.5051 -519.1498 3299.8992 3299.8992 3299.8992 3299.8992 3299.8992 3299.8992 3299.8992 3299.8992 3299.8992 3295.8708 3280.0598 3264.45 3248.7395 3233.029 3217.4194 3201.9104 3186.4014 3170.8923 3019.0247 -52.770996 3161.4258 3178.0425 3194.6594 3211.0747 3227.3894 3243.5027 3259.7168 3275.5278 3291.4397 3299.8992 -3277.24 -3261.8315 -3246.3225 -3231.1157 -3216.0095 -3200.702 -3186.2 -3171.5972 -3157.0952 259.82666 3299.8992 3299.8992 3299.8992 3299.8992 3299.8992 3299.8992 3299.8992 3299.8992 3299.8992 3295.166 3279.4556 3263.745 3248.0347 3232.5256 3216.8152 3201.3062 3185.797 3170.288 2909.4543 -235.85815 3162.1306 3178.8481 3195.3643 3211.7798 3228.0945 3244.3083 3260.321 3276.3335 3292.1448 3299.8992 -3276.6357 -3261.1267 -3245.7183 
-3016.5068 -3003.3142 -2990.2222 -2977.1301 -2964.34 -2951.5503 -2938.861 -2926.2725 -1305.1758 1700.5554 3299.8992 3299.8992 3299.8992 3299.8992 3299.8992 3299.8992 3299.8992 3299.8992 3299.8992 3299.8992 3299.8992 3299.8992 3299.8992 3299.8992 3299.8992 3299.8992 3299.8992 -2174.286 -3180.359 -3165.0513 -3149.945 -3135.1409 -3120.5383 -3106.137 -3092.1387 -3077.9387 -3064.1418 -3050.3447 -3036.7493 -3023.2544 -3009.961 -2996.6675 -2983.676 -2970.7854 -2957.8948 -2945.2056 -2932.5164 -2792.4316 -288.72986 2749.0264 3299.8992 3299.8992 3299.8992 3299.8992 3299.8992 3299.8992 3299.8992 3299.8992 3299.8992 3299.8992 3299.8992 3299.8992 3299.8992 3299.8992 3299.8992 3299.8992 3299.8992 -3194.458 -3178.7476 -3163.44 -3148.4343 -3133.8318 -3119.229 -3104.828 -3090.628 -3076.6296 -3062.631 -3048.9348 -3035.44 -3021.8445 -3008.6516 -2995.3582 -2982.367 -2969.4763 -2956.6863 -2943.8965 -2931.4087 -2918.921 -820.2667 2265.9302 3299.8992 3299.8992 3299.8992 3299.8992 3299.8992 3299.8992 3299.8992 3299.8992 3299.8992 3299.8992 3299.8992 3299.8992 3299.8992 3299.8992 3299.8992 3299.8992 3299.8992 -3187.4084 -3171.698 -3156.5918 -3141.687 -3126.8828 -3112.4817 -3098.0803 -3083.8806 -3070.0835 -3056.1858 -3042.5903 -3028.894 -3015.6006 -3002.4077 -2989.1143 -2976.2236 -2963.2324 -2950.6438 -2937.854 -2925.3662 -2489.3005 290.94543 3106.137 3299.8992 3299.8992 3299.8992 3299.8992 3299.8992 3299.8992 3299.8992 3299.8992 3299.8992 3299.8992 3299.8992 3299.8992 3299.8992 3299.8992 3299.8992 3299.8992 3299.8992 -3187.7104 -3172.1008 -3156.8938 -3141.989 -3127.3865 -3112.7837 -3098.584 -3084.4849 -3070.4863 -3056.6895 -3042.8923 -3029.3975 -3016.0034 -3002.6091 -2989.517 -2976.6265 -2963.7358 -2950.946 -2938.2568 -2925.769 -2832.0098 -317.12952 2675.6104 3299.8992 3299.8992 3299.8992 3299.8992 3299.8992 3299.8992 3299.8992 3299.8992 3299.8992 3299.8992 3299.8992 3299.8992 3299.8992 3299.8992 3299.8992 3299.8992 3299.8992 -3181.366 -3165.9575 -3150.65 -3135.745 -3121.2432 -3106.7412 -3092.4407 -3078.241 -3064.4438 -3050.647 -3036.9507 -3023.4558 -3010.263 

-173.11707 -273.0194 -240.39001 -102.822876 -39.276123 -17.926025 -47.131348 44.41223 114.30359 187.21619 240.89355 183.99353 121.75598 56.900024 82.78198 90.03296 20.141602 -153.3783 -233.64258 -206.65283 -167.1753 -202.62451 -193.05725 -146.53015 -41.592407 84.89685 84.79614 29.910278 45.01648 122.86377 154.38538 145.9259 152.87476 114.90784 91.241455 91.64429 45.01648 -14.904785 24.169922 12.991333 -66.26587 -118.2312 -141.79688 -157.00378 -156.19812 -144.91882 -192.05017 -123.66943 -88.220215 -68.984985 -64.85596 -115.10925 -83.58765 17.22107 99.298096 194.56787 241.4978 253.68347 256.4026 210.68115 174.32556 208.26416 297.18933 361.44104 361.23962 249.75586 17.623901 -123.065186 -156.09741 -122.86377 -67.37366 -58.61206 -73.21472 -86.91101 13.092041 99.09668 56.497192 -75.32959 -156.50024 -208.46558 -166.57104 -139.5813 -121.051025 -53.67737 3.3233643 -29.507446 -137.26501 -209.17053 -326.19324 -431.3324 -398.09875 -299.70703 -200.81177 -30.31311 57.806396 114.60571 175.23193 247.33887 264.96277 183.79211 143.91174 143.10608 147.94006 97.68677 42.800903 59.61914 56.69861 23.666382 -23.76709 -61.331177 -71.80481 -37.060547 -8.660889 -57.60498 -139.37988 -164.85901 -33.535767 111.78589 151.26343 96.98181 30.31311 -78.45154 -97.787476 -52.670288 -25.680542 -69.68994 -145.9259 -129.00696 -50.756836 131.32324 264.96277 237.16736 81.37207 38.269043 25.177002 41.189575 109.77173 77.84729 -47.03064 -99.70093 -57.000732 -5.1361084 6.7474365 86.709595 112.18872 216.62292 193.56079 24.77417 -218.23425 -400.71716 -549.5636 -567.2882 -421.66443 -296.7865 -243.41125 -258.81958 -290.84473 -368.3899 -341.29944 -204.03442 -21.652222 67.977905 51.361084 24.371338 63.546753 87.41455 112.69226 130.92041 39.074707 34.94568 163.5498 196.98486 162.94556 196.48132 212.19177 220.85266 175.83618 115.61279 51.05896 11.480713 -34.140015 -145.12024 -201.3153 -163.65051 -146.83228 -170.59937 -324.68262 -403.13416 -330.7251 -279.364 -296.8872 -311.792 -353.88794 -423.57788 -421.463 -387.02087 -337.1704 -271.6095 -201.2146 -165.76538 -205.74646 -321.35925 -290.24048 -183.28857 -114.30359 -132.73315 -129.00696 -80.667114 -68.984985 -8.963013 53.57666 86.40747 120.84961 183.38928 231.93054 237.97302 206.85425 151.56555 149.55139 162.44202 
62.23755 115.61279 141.29333 130.21545 135.15015 166.0675 239.08081 187.3169 132.33032 111.58447 114.505005 162.74414 185.60486 117.92908 34.240723 -22.055054 -33.737183 -44.41223 -28.601074 30.715942 51.864624 30.81665 17.523193 -12.588501 -84.59473 -140.7898 -139.17847 -114.90784 -124.072266 -148.04077 -122.25952 -103.125 -120.547485 -81.97632 -55.389404 -71.40198 -124.97864 -149.14856 -189.02893 -158.31299 -120.64819 -67.37366 -27.29187 16.918945 59.518433 119.64111 190.84167 114.80713 97.787476 86.8103 85.702515 147.73865 162.2406 112.490845 103.125 124.77722 147.53723 163.4491 186.30981 219.94629 225.48523 162.03918 84.191895 67.8772 62.942505 54.382324 107.455444 160.12573 143.3075 79.559326 -9.365845 -139.37988 -226.79443 -159.92432 -105.13916 -117.32483 -89.63013 -45.01648 -91.54358 -146.53015 -202.02026 -248.14453 -274.63074 -278.45764 -288.83057 -258.21533 -193.05725 -238.77869 -259.62524 -248.9502 -292.8589 -310.38208 -298.69995 -331.43005 -347.94617 -373.82812 -390.14282 -333.64563 -214.40735 -72.81189 31.420898 73.61755 85.702515 108.05969 118.13049 70.59631 73.81897 140.58838 186.30981 185.20203 155.39246 99.90234 59.014893 128.80554 199.30115 205.94788 181.97937 171.30432 140.58838 174.7284 224.17603 276.34277 275.235 309.77783 319.2444 351.87378 391.35132 305.34668 240.69214 181.67725 111.78589 89.42871 105.74341 57.504272 26.083374 19.537354 2.6184082 -10.876465 12.487793 48.03772 23.666382 -27.493286 -61.935425 -121.65527 -131.62537 -141.79688 -155.79529 -158.71582 -165.36255 -159.7229 -164.15405 -192.95654 -207.05566 -190.13672 -254.69055 -318.1366 -321.8628 -262.44507 -241.19568 -158.81653 -77.041626 21.551514 99.19739 171.1029 234.95178 313.80615 340.59448 321.66138 365.57007 358.21838 253.9856 206.04858 186.41052 132.22961 108.1604 87.31384 56.295776 49.54834 63.546753 76.94092 32.32727 -50.656128 -87.61597 -88.62305 -94.262695 -128.80554 -105.944824 -49.649048 -39.678955 -62.036133 -47.131348 -78.149414 -94.86694 -49.850464 -27.493286 -36.154175 -13.595581 -14.804077 -58.71277 -52.368164 -26.184082 48.44055 75.027466 77.142334 69.79065 121.65527 154.18396 106.951904 105.54199 90.737915 33.737183 51.260376 78.652954 24.472046 -1.3092041 -20.24231 -25.27771 -36.85913 -93.759155 -119.23828 
2898.7793 2885.1836 2872.1924 2858.5967 2845.706 2832.5134 2828.787 2848.4253 2867.2576 2885.5864 2903.6133 2921.4385 2938.9617 2956.5857 2973.706 2990.7256 3007.7454 3024.5635 3041.1804 3057.6965 3074.2126 3090.1245 3106.2378 -2770.276 1597.5311 3106.4392 3092.2393 3077.9387 3063.6382 3049.3376 3035.037 3021.1394 3007.544 2993.6462 2979.849 2965.75 2951.7517 2937.7532 2924.057 2910.3606 2896.7651 2883.673 2869.876 2857.2876 2844.2961 2830.8013 2829.3914 2848.9287 2867.7612 2886.09 2904.1167 2921.9421 2939.4653 2956.8877 2974.008 2991.3298 3008.2488 3024.8657 3041.5833 3058.2 3074.5146 3091.1316 3107.4463 -2509.2407 2132.2905 3104.5256 3090.326 3076.0254 3061.8254 3047.525 3033.2244 3019.4275 3005.7312 2991.934 2978.0364 2963.9373 2949.8381 2936.0413 2922.345 2908.6487 2895.053 2881.3567 2868.466 2855.072 2842.0806 2828.787 2830.5999 2850.0366 2868.7683 2887.0972 2905.2246 2922.9492 2940.4724 2957.9956 2975.116 2992.2363 3009.0544 3025.8728 3042.5903 3059.0056 3075.5217 3091.5344 3107.5469 -2215.0725 2526.5625 3102.713 3088.3118 3073.9104 3059.8113 3045.5107 3031.1096 3017.212 3003.717 2989.92 2975.8208 2961.8225 2947.9248 2934.027 2920.23 2906.5337 2893.0388 2879.9468 2866.2505 2853.5613 2840.57 2827.0752 2830.7007 2850.0366 2868.6675 2887.0972 2905.1238 2922.8484 2940.4724 2957.7942 2975.0151 2992.1355 3008.9539 3025.8728 3042.389 3059.0056 3075.3203 3092.0378 3107.7483 -1773.8708 3114.093 3099.1882 3084.7869 3070.5872 3056.2866 3042.0867 3027.7861 3014.1907 3000.4944 2986.5967 2972.5981 2958.7004 2944.7021 2931.0059 2917.1082 2903.4119 2889.917 2876.9255 2863.733 2850.238 2837.448 2823.9531 2830.8013 2850.238 2868.869 2887.0972 2905.1238 2922.9492 2940.573 2957.8948 2975.116 2992.1355 3009.0544 3025.772 3042.4895 3059.0056 3075.4211 3091.4336 3107.9497 -1877.4994 2973.1018 3099.994 3085.794 3071.5942 3057.2937 3043.0938 3028.7932 3015.097 3001.4006 2987.6038 2973.6052 2959.607 2945.5078 2931.7107 2917.9138 2904.318 2890.7227 2877.3284 2864.2363 2850.9429 2838.0522 2824.356 2833.722 2852.957 2871.5881 2889.917 2907.843 2925.6682 2943.0908 2960.5132 2977.6335 2994.754 3011.6729 3028.3904 3045.0073 3061.4226 
3143.6003 3128.595 3113.9922 3099.0874 2565.1335 -420.95947 3095.2605 3111.4746 3127.588 3143.4998 3159.5122 3175.122 3190.933 3206.543 3222.052 3237.6616 -3205.536 2677.6245 3237.6616 3223.764 3209.6648 3194.9614 3180.5603 3166.159 3151.657 3137.155 3121.1426 2324.24 -2571.7803 3124.3652 3140.68 3156.6924 3172.6042 3188.4155 3204.126 936.8866 3197.882 3184.1858 3170.1873 3155.6853 3141.0828 3126.0771 3111.2732 3093.5486 2074.1821 -1301.1475 3098.3826 3114.4958 3130.5083 3146.521 3162.332 3178.1433 3193.8538 3209.4634 3225.0732 3240.3809 -3010.8672 3124.1638 3238.6687 3224.9724 3210.7727 3196.0693 3181.668 3167.0654 3152.5635 3138.162 3122.0488 1730.1636 3114.093 3130.1055 3146.2188 3162.2314 3178.4453 3194.0552 3209.7656 1654.4312 3201.6082 3187.6099 3173.7122 3159.2102 3144.5068 3129.5012 3114.6973 3098.1812 2422.8333 -1411.4227 3100.1953 3116.3086 3132.321 3148.3337 3164.1448 3179.8552 3195.6665 3211.2761 3226.886 3242.2942 -2629.6875 3251.8616 3237.6616 3223.9653 3209.6648 3195.0623 3180.5603 3166.0583 3151.5564 3137.0544 3120.9412 1390.0726 3115.503 3131.9182 3148.1323 3164.0442 3179.956 3195.767 3211.4775 2742.8833 3200.0977 3186.2 3172.2014 3157.8003 3143.097 3127.9907 3113.086 3095.3613 2167.5383 -2182.9468 3102.1086 3118.222 3134.2346 3150.247 3166.159 3181.7688 3197.5798 3213.2903 3228.7993 3244.2078 -2335.7207 3252.063 3237.9639 3224.1667 3209.967 3195.6665 3180.7617 3166.159 3151.7578 3137.2559 3120.8403 1139.0076 3116.812 3133.2275 3149.4414 3165.3533 3181.2651 3197.0764 3212.686 3213.1897 3199.594 3185.797 3171.4966 3157.0952 3142.3918 3127.2856 3112.4817 3094.4548 2071.3623 -2493.7317 3102.713 3119.1284 3135.1409 3151.0527 3166.7632 3182.5745 3198.0835 3213.794 3229.5044 3244.812 -2012.5488 3250.5522 3236.554 3222.6562 3208.4563 3194.2566 3179.3518 3164.8499 3150.247 3135.3423 3119.3298 843.631 3117.819 3134.1338 3150.1465 3166.159 3182.0708 3197.9827 3213.391 3211.8804 3197.9827 3184.085 3169.9858 3155.3833 3140.7805 3126.178 3110.7695 3054.8767 1555.9387 3150.0457 3106.137 3122.2502 3138.263 3154.1748 3169.9858 3185.797 3201.5076 3217.1172 3232.6262 3248.0347 -1359.4574 3250.653 3236.6545 3222.7568 
-2821.637 -2809.854 -2798.2727 -2786.3892 -2775.1099 -2763.7297 3299.8992 3299.8992 3299.8992 3299.8992 3299.8992 3299.8992 3299.8992 3299.8992 3299.8992 3299.8992 3299.8992 3299.8992 3299.8992 3299.8992 3299.8992 3299.8992 3299.8992 975.35706 -1967.633 -3011.27 -2998.0774 -2984.2803 -2970.9868 -2957.9956 -2945.0042 -2932.5164 -2919.5251 -2906.9365 -2894.4487 -2882.1624 -2869.876 -2857.5896 -2845.807 -2833.722 -2821.637 -2809.7534 -2798.0713 -2786.6912 -2774.6062 -2763.1255 3299.8992 3299.8992 3299.8992 3299.8992 3299.8992 3299.8992 3299.8992 3299.8992 3299.8992 3299.8992 3299.8992 3299.8992 3299.8992 3299.8992 3299.8992 3299.8992 3299.8992 691.9647 -2415.8843 -3010.3638 -2996.3652 -2983.0718 -2970.282 -2957.19 -2944.2993 -2931.5093 -2918.82 -2906.0303 -2893.8445 -2881.3567 -2869.0703 -2856.8848 -2844.5984 -2832.8154 -2820.932 -2809.1492 -2797.0642 -2785.2812 -2774.1028 -2762.5212 3299.8992 3299.8992 3299.8992 3299.8992 3299.8992 3299.8992 3299.8992 3299.8992 3299.8992 3299.8992 3299.8992 3299.8992 3299.8992 3299.8992 3299.8992 3299.8992 3116.0063 89.730835 -2980.252 -3006.3354 -2992.4377 -2979.2449 -2966.3542 -2953.363 -2940.4724 -2927.6824 -2914.6912 -2902.5054 -2890.0176 -2877.6306 -2865.4448 -2853.3599 -2841.1743 -2829.19 -2817.3064 -2805.5237 -2793.5393 -2782.0586 -2770.0745 -2758.6943 3299.8992 3299.8992 3299.8992 3299.8992 3299.8992 3299.8992 3299.8992 3299.8992 3299.8992 3299.8992 3299.8992 3299.8992 3299.8992 3299.8992 3299.8992 3299.8992 3112.3809 192.95654 -2857.0862 -3005.5298 -2991.632 -2978.4392 -2965.5486 -2952.4565 -2939.6667 -2926.8767 -2914.1875 -2901.4983 -2889.212 -2876.825 -2864.74 -2852.4536 -2840.4692 -2828.485 -2816.5007 -2804.718 -2792.7336 -2780.951 -2769.7722 -2758.3923 3299.8992 3299.8992 3299.8992 3299.8992 3299.8992 3299.8992 3299.8992 3299.8992 3299.8992 3299.8992 3299.8992 3299.8992 3299.8992 3299.8992 3299.8992 3299.8992 2813.278 -299.10278 -3016.4062 -3002.71 -2988.8123 -2975.6194 -2962.9302 -2949.7375 -2936.9475 -2923.9563 -2911.569 -2898.88 -2886.493 -2874.3071 -2862.0208 -2849.9358 -2837.7502 -2825.7659 -2813.9832 -2802.0996 -2790.216 -2778.7354 -2766.9524 -2755.5725 3299.8992 3299.8992 3299.8992 3299.8992 3299.8992 3299.8992 3299.8992 3299.8992 3299.8992 3299.8992 3299.8992 3299.8992 3299.8992 3299.8992 
-2471.0723 -2460.1958 -2449.118 -2438.3423 -2427.8687 -2417.1936 -2406.5186 -2396.1455 -2385.7727 -2375.299 -2365.1274 -1655.3375 1626.8372 3299.8992 3299.8992 3299.8992 3299.8992 3299.8992 3299.8992 3299.8992 3299.8992 3299.8992 3299.8992 3299.8992 3299.8992 3299.8992 3299.8992 -2351.0283 -2607.5317 -2595.1445 -2582.8582 -2570.6726 -2558.8896 -2547.2075 -2535.324 -2523.944 -2512.4634 -2501.2847 -2490.0054 -2479.0283 -2467.9504 -2456.9731 -2446.4995 -2435.4216 -2424.646 -2414.0715 -2403.6987 -2393.1243 -2382.6506 -2372.3784 -2362.1062 -1752.42 1642.5476 3299.8992 3299.8992 3299.8992 3299.8992 3299.8992 3299.8992 3299.8992 3299.8992 3299.8992 3299.8992 3299.8992 3299.8992 3299.8992 3299.8992 -2613.8762 -2600.885 -2588.5986 -2576.4128 -2564.328 -2552.3438 -2540.7622 -2529.181 -2517.8008 -2506.32 -2495.0408 -2483.8623 -2472.7844 -2461.8071 -2450.83 -2440.3564 -2429.5806 -2418.704 -2408.2305 -2397.6562 -2387.1826 -2376.8096 -2366.5374 -2356.4666 -1460.9711 2092.2087 3299.8992 3299.8992 3299.8992 3299.8992 3299.8992 3299.8992 3299.8992 3299.8992 3299.8992 3299.8992 3299.8992 3299.8992 3299.8992 3003.3142 -2608.8408 -2596.051 -2583.5632 -2571.3774 -2559.494 -2547.6104 -2535.9282 -2524.347 -2512.9668 -2501.486 -2490.509 -2479.3303 -2468.1519 -2457.1746 -2446.298 -2435.321 -2424.7466 -2414.273 -2403.598 -2393.1243 -2382.852 -2372.4792 -2362.1062 -2351.9348 -1285.437 2368.9543 3299.8992 3299.8992 3299.8992 3299.8992 3299.8992 3299.8992 3299.8992 3299.8992 3299.8992 3299.8992 3299.8992 3299.8992 3299.8992 2943.997 -2605.719 -2592.929 -2580.4412 -2568.2556 -2556.372 -2544.589 -2532.907 -2521.4263 -2509.9456 -2498.6663 -2487.387 -2476.309 -2465.2312 -2454.3547 -2443.4783 -2433.0046 -2421.9268 -2411.2517 -2400.6775 -2390.2039 -2379.7302 -2369.458 -2359.1858 -2349.115 -1188.6566 2626.9683 3299.8992 3299.8992 3299.8992 3299.8992 3299.8992 3299.8992 3299.8992 3299.8992 3299.8992 3299.8992 3299.8992 3299.8992 3299.8992 2399.8718 -2602.3955 -2589.6057 -2577.3193 -2565.1335 -2553.25 -2541.3665 -2529.6843 -2518.2036 -2506.8237 -2495.4436 -2484.2651 -2473.1873 -2462.1094 -2451.233 -2440.3564 -2429.48 -2419.0063 -2408.432 -2397.9583 -2387.384 -2377.1118 -2366.8396 -2356.4666 -2346.3958 -931.5491 3119.4304 3299.8992 3299.8992 3299.8992 3299.8992 3299.8992 3299.8992 3299.8992 
-3230.4106 -3215.5059 -3200.0977 -3185.4949 -3170.7915 -3156.3904 1242.0319 3299.8992 3299.8992 3299.8992 3299.8992 3299.8992 3299.8992 3299.8992 3299.8992 3299.8992 3293.4539 3277.7434 3261.9324 3246.3225 3230.612 3215.103 3199.594 3183.9844 3168.576 2754.8674 -559.7351 3163.2385 3179.8552 3196.4722 3212.7869 3229.1016 3245.2148 3261.3281 3277.24 3293.051 -3291.2383 -3275.6287 -3260.1196 -3244.7112 -3229.5044 -3214.3982 -3199.292 -3184.6892 -3169.9858 -3155.484 2515.686 3299.8992 3299.8992 3299.8992 3299.8992 3299.8992 3299.8992 3299.8992 3299.8992 3299.8992 3291.4397 3275.7292 3260.0188 3244.4092 3228.9001 3213.1897 3197.177 3182.0708 3166.6626 2646.405 -696.5973 3162.9363 3179.5532 3195.9685 3212.384 3228.598 3244.812 3260.9253 3276.7363 3292.6482 -3291.641 -3276.132 -3260.623 -3245.114 -3229.7058 -3214.7002 -3200.1982 -3185.092 -3170.3887 -3156.0881 3280.8655 3299.8992 3299.8992 3299.8992 3299.8992 3299.8992 3299.8992 3299.8992 3299.8992 3299.8992 3289.224 3273.6145 3257.8032 3242.1936 3226.5837 3211.0747 3194.9614 3179.8552 3164.447 2308.429 -1244.6503 3164.9504 3181.668 3198.184 3214.5996 3230.713 3246.9268 3262.9395 3278.7505 3294.6624 -3289.4255 -3273.9165 -3258.5083 -3243.2007 -3227.9937 -3212.7869 -3198.3855 -3183.1787 -3168.6768 -3154.074 3299.8992 3299.8992 3299.8992 3299.8992 3299.8992 3299.8992 3299.8992 3299.8992 3299.8992 3299.8992 3289.627 3273.9165 3258.1055 3242.5964 3226.9866 3211.377 3195.2637 3180.1575 3164.6484 2089.389 -1509.613 3167.5688 3184.3872 3200.9033 3217.218 3233.432 3249.5452 3265.5579 3281.4697 3297.3816 -3286.908 -3271.4995 -3256.0913 -3240.6829 -3225.3752 -3210.3699 -3195.767 -3180.7617 -3165.9575 -3151.5564 3299.8992 3299.8992 3299.8992 3299.8992 3299.8992 3299.8992 3299.8992 3299.8992 3299.8992 3299.8992 3288.7207 3272.9094 3257.199 3241.5894 3226.181 3210.4705 3194.458 3179.251 3163.8428 2040.9485 -1639.0228 3167.5688 3184.2864 3200.702 3217.0166 3233.2305 3249.3438 3265.457 3281.4697 3297.0793 -3287.1094 -3271.6003 -3255.9905 -3240.5823 -3225.3752 -3210.4705 -3195.3643 -3180.7617 -3166.2598 -3151.8584 3299.8992 3299.8992 3299.8992 3299.8992 3299.8992 3299.8992 3299.8992 3299.8992 3299.8992 3299.8992 3286.5051 3270.8953 3255.0842 3239.5752 
-2997.0703 -2983.8774 -2970.8862 -2958.0962 -2945.3064 -2932.7178 -2920.23 -2840.1672 -371.91467 2614.8833 3299.8992 3299.8992 3299.8992 3299.8992 3299.8992 3299.8992 3299.8992 3299.8992 3299.8992 3299.8992 3299.8992 3299.8992 3299.8992 3299.8992 3299.8992 3299.8992 3286.6057 -3172.705 -3157.2966 -3142.1904 -3127.3865 -3112.683 -3098.4832 -3084.2834 -3070.285 -3056.3872 -3042.5903 -3028.9946 -3015.6006 -3002.3071 -2989.215 -2976.123 -2963.2324 -2950.3418 -2937.7532 -2925.1648 -2912.677 -2895.6572 -626.70593 2270.2605 3299.8992 3299.8992 3299.8992 3299.8992 3299.8992 3299.8992 3299.8992 3299.8992 3299.8992 3299.8992 3299.8992 3299.8992 3299.8992 3299.8992 3299.8992 3299.8992 2848.8281 -3159.8145 -3144.5068 -3129.7026 -3114.8987 -3100.3967 -3086.1968 -3072.0977 -3058.0994 -3044.2017 -3030.7068 -3017.212 -3003.9185 -2990.7256 -2977.7344 -2964.6423 -2951.8523 -2939.0625 -2926.4739 -2914.087 -2901.6997 -2839.6636 -376.64795 2703.003 3299.8992 3299.8992 3299.8992 3299.8992 3299.8992 3299.8992 3299.8992 3299.8992 3299.8992 3299.8992 3299.8992 3299.8992 3299.8992 3299.8992 3299.8992 3299.8992 1967.3309 -3149.0386 -3133.6304 -3118.927 -3104.1228 -3089.7217 -3075.4211 -3061.5234 -3047.6257 -3033.9294 -3020.3337 -3007.141 -2993.8477 -2980.5542 -2967.5627 -2954.773 -2941.8823 -2929.193 -2916.7053 -2904.419 -2892.0317 -2879.544 -537.1765 2640.1611 3299.8992 3299.8992 3299.8992 3299.8992 3299.8992 3299.8992 3299.8992 3299.8992 3299.8992 3299.8992 3299.8992 3299.8992 3299.8992 3299.8992 3299.8992 3299.8992 1848.0927 -3137.9607 -3122.754 -3108.0505 -3093.4478 -3079.1472 -3065.048 -3051.1504 -3037.454 -3023.7578 -3010.263 -2996.9695 -2983.7769 -2970.6848 -2957.6934 -2944.9036 -2932.2144 -2919.7266 -2907.138 -2894.9524 -2882.7666 -2385.5713 399.20654 3299.8992 3299.8992 3299.8992 3299.8992 3299.8992 3299.8992 3299.8992 3299.8992 3299.8992 3299.8992 3299.8992 3299.8992 3299.8992 3299.8992 3299.8992 3299.8992 3299.8992 613.8153 -3133.429 -3118.3228 -3103.418 -3088.916 -3074.716 -3060.617 -3046.6187 -3032.9224 -3019.4275 -3005.9326 -2992.7397 -2979.6477 -2966.5557 -2953.5645 -2940.7744 -2928.0852 -2915.4968 -2903.1096 -2890.7227 -2878.6377 -1842.1509 1122.5922 3299.8992 3299.8992 3299.8992 3299.8992 3299.8992 3299.8992 3299.8992 3299.8992 3299.8992 3299.8992 3299.8992 

200.91248 197.79053 90.83862 30.413818 15.509033 47.131348 73.013306 4.3304443 -67.37366 -28.198242 27.79541 18.429565 -19.638062 -93.255615 -136.66077 -158.01086 -244.61975 -260.02808 -163.14697 -86.60889 -88.42163 -121.45386 -79.45862 6.0424805 52.56958 3.3233643 8.862305 74.020386 89.328 90.234375 26.184082 -13.595581 31.723022 23.565674 -86.8103 -189.23035 -208.16345 -173.82202 -113.80005 38.772583 165.06042 272.7173 367.3828 411.3922 441.00037 491.6565 425.89417 290.6433 133.53882 -5.5389404 -130.719 -160.32715 -124.072266 -173.11707 -225.0824 -279.66614 -345.62988 -336.969 -334.552 -338.1775 -270.80383 -221.15479 -168.28308 -140.08484 -114.10217 -118.93616 -60.62622 12.789917 62.23755 90.03296 58.20923 45.721436 23.26355 25.982666 84.2926 156.70166 178.656 112.79297 9.869385 -15.811157 -15.811157 -15.811157 -15.811157 -15.811157 -15.811157 -15.811157 -15.811157 -15.811157 -15.811157 -15.811157 -15.811157 -15.811157 -15.811157 -15.811157 -15.811157 -15.811157 -15.811157 -15.811157 -15.811157 -15.811157 18.832397 73.21472 121.25244 140.7898 202.82593 216.42151 199.40186 181.97937 138.57422 62.13684 -50.857544 -91.94641 -56.69861 -45.318604 -91.64429 -93.35632 -70.69702 -51.05896 -3.4240723 22.25647 105.441284 180.36804 205.54504 181.87866 166.77246 133.3374 -21.350098 -73.41614 -37.161255 -57.10144 -127.697754 -80.163574 -44.41223 -67.8772 -84.39331 -79.055786 -52.368164 35.34851 42.90161 -2.1148682 -2.1148682 -2.1148682 -2.1148682 -2.1148682 -2.1148682 -2.1148682 -2.1148682 -2.1148682 -2.1148682 -2.1148682 -2.1148682 -2.1148682 -2.1148682 -2.1148682 -2.1148682 -2.1148682 -2.1148682 -2.1148682 -2.1148682 -2.1148682 -88.62305 -66.467285 -75.531006 -97.08252 -64.75525 69.08569 135.65369 170.80078 177.64893 203.22876 207.86133 227.80151 203.02734 135.04944 68.17932 3.3233643 -26.989746 101.11084 153.27759 124.27368 5.4382324 -164.7583 -250.66223 -145.9259 13.293457 111.38306 231.93054 292.65747 276.34277 261.438 196.38062 156.29883 128.80554 143.4082 158.11157 114.90784 68.78357 47.53418 -27.996826 -77.142334 
-148.24219 -156.70166 -119.13757 -81.37207 -85.60181 -126.086426 -111.483765 -95.773315 -145.32166 -165.76538 -119.4397 -92.85278 -85.40039 -20.74585 -6.3446045 -17.523193 51.05896 80.4657 15.609741 26.385498 75.631714 151.56555 178.35388 153.17688 126.690674 183.28857 193.6615 142.70325 142.1997 138.47351 112.08801 128.50342 124.575806 82.58057 44.51294 1.1077881 -28.601074 -3.5247803 18.429565 27.29187 -17.926025 -145.12024 -256.80542 -333.1421 -365.16724 -381.38123 -308.77075 -256.90613 -282.68738 -287.42065 -229.11072 -265.16418 -286.8164 -202.82593 -146.12732 -122.76306 -34.84497 36.053467 103.62854 218.03284 285.10437 293.76526 280.77393 249.25232 223.7732 283.49304 294.77234 249.75586 192.95654 152.97546 152.27051 190.43884 211.99036 188.42468 162.1399 117.32483 97.88818 107.15332 117.82837 90.5365 42.39807 39.678955 56.19507 16.113281 -26.586914 -71.30127 -120.34607 -146.83228 -188.7268 -195.87708 -204.53796 -298.90137 -366.17432 -331.02722 -330.22156 -360.33325 -345.8313 -379.6692 -423.9807 -418.9453 -358.5205 -253.28064 -165.16113 -50.454712 64.956665 192.95654 205.54504 214.60876 234.54895 238.17444 265.56702 294.1681 232.23267 155.19104 184.29565 218.03284 224.78027 260.2295 282.9895 272.11304 208.06274 123.36731 58.61206 18.933105 -28.097534 -81.37207 -51.965332 -25.680542 -41.290283 -67.37366 -100.909424 -144.11316 -99.3988 0.20141602 22.558594 11.984253 62.23755 49.346924 57.000732 93.255615 150.05493 109.973145 44.210815 23.867798 46.829224 113.39722 102.72217 79.76074 72.61047 35.34851 5.6396484 6.4453125 -3.9276123 -49.145508 -36.053467 -6.6467285 18.630981 46.627808 54.986572 15.408325 -102.923584 -192.453 -247.03674 -269.99817 -290.74402 -317.83447 -284.50012 -249.65515 -241.79993 -232.53479 -216.62292 -199.60327 -115.31067 35.44922 144.21387 193.46008 193.7622 102.62146 87.213135 134.44519 181.67725 216.82434 218.93921 207.05566 205.44434 250.66223 214.70947 197.58911 176.94397 172.61353 196.88416 211.58752 153.17688 83.99048 63.74817 43.00232 20.141602 30.111694 61.73401 83.99048 
3077.9387 3093.9514 3109.9639 -1392.0868 3114.1936 3099.3896 3084.9883 3070.7886 3056.5886 3042.1875 3027.9875 3014.2913 3000.4944 2986.6973 2972.699 2958.7004 2944.7021 2930.8044 2917.1082 2903.4119 2889.917 2876.9255 2863.2292 2850.6409 2837.7502 2823.4497 2835.3333 2854.367 2873.0986 2891.327 2909.3535 2926.9775 2944.6013 2961.8225 2979.0435 2996.0632 3012.9822 3029.8003 3046.3164 3062.8325 3079.1472 3095.7642 3112.0789 -1094.5953 3112.683 3098.1812 3083.9812 3069.6807 3055.481 3041.1804 3026.9805 3013.385 2999.588 2985.6902 2971.692 2957.6934 2943.7957 2929.898 2916.101 2902.5054 2889.1113 2875.415 2862.625 2849.1301 2836.441 2768.2617 2837.146 2856.381 2874.8108 2893.0388 2910.9648 2928.6895 2946.2126 2963.5344 2980.6548 2997.6746 3014.4927 3031.311 3047.9277 3064.4438 3080.7585 3096.6704 3113.2874 -778.6743 3112.3809 3097.7783 3083.5784 3069.3787 3055.1787 3040.8782 3026.5776 3012.9822 2999.185 2985.3882 2971.289 2957.2905 2943.4937 2929.596 2915.7988 2902.2034 2888.7085 2875.2136 2861.8193 2849.1301 2836.3403 2112.2498 2838.9587 2857.9924 2876.5227 2894.6501 2912.5762 2930.3008 2947.9248 2965.1458 2982.1655 2999.185 3016.104 3032.8215 3049.539 3065.9546 3082.3699 3098.886 3114.5964 -417.4347 3111.8774 3097.0732 3082.672 3068.3716 3054.1716 3039.972 3025.772 3012.0757 2998.2788 2984.2803 2970.3826 2956.3843 2942.3857 2928.5889 2914.7917 2901.0955 2887.7014 2874.71 2861.1145 2848.526 2835.6353 757.52563 2840.973 2859.906 2878.4363 2896.5637 2914.4897 2932.013 2949.5361 2966.757 2983.9783 3000.8972 3017.8162 3034.5337 3051.2512 3067.566 3083.9812 3100.4973 3116.51 102.72217 3110.266 3095.462 3081.1614 3066.8608 3052.5603 3038.3606 3024.1606 3010.5652 2996.768 2982.8704 2968.872 2954.8735 2940.9758 2927.0781 2913.2812 2899.6855 2886.392 2873.401 2860.208 2846.9146 2834.024 -750.9796 2841.98 2860.913 2879.3425 2897.47 2915.4968 2933.1206 2950.4424 2967.865 2984.9854 3001.9043 3018.7224 3035.5408 3052.1575 3068.573 
3208.5571 3194.1558 3179.3518 3164.749 3150.247 3135.2417 3119.229 783.5083 3118.0205 3134.3352 3150.348 3166.4612 3182.2722 3198.184 3266.3635 3209.7656 3196.0693 3181.9702 3167.871 3153.3691 3138.565 3123.9624 3108.554 2982.9712 1524.4171 3089.0166 3105.6335 3121.7468 3137.7593 3153.772 3169.583 3185.2935 3201.004 3216.6138 3232.1228 3247.531 -1095.3003 3248.7395 3234.7412 3220.8435 3206.4421 3192.2424 3177.3376 3162.7349 3148.233 3133.2275 3117.0134 361.54175 3118.927 3135.3423 3151.355 3167.3674 3183.1787 3198.9897 -3036.8499 3207.953 3194.2566 3180.258 3166.159 3151.4556 3136.6516 3122.0488 3105.6335 2657.483 755.31006 3093.8506 3110.4675 3126.5808 3142.5933 3158.4045 3174.3164 3190.0269 3205.7373 3221.2463 3236.7554 3252.1636 -457.51648 3250.3508 3236.3525 3222.4548 3208.0535 3193.8538 3178.8481 3164.3462 3149.7437 3134.6375 3118.5242 317.53235 3120.5383 3136.853 3152.9663 3169.0796 3184.8906 3200.702 -2672.6897 3207.4492 3193.6523 3179.7546 3165.5547 3150.9521 3136.148 3121.646 3106.2378 2712.671 585.1135 3094.6562 3111.2732 3127.3865 3143.399 3159.3108 3175.122 3190.8325 3206.4421 3222.052 3237.561 3253.07 -92.752075 3249.4446 3235.446 3221.5483 3207.1472 3192.9473 3177.942 3163.339 3148.6357 3133.731 3110.8704 -305.24597 3123.4587 3139.8743 3155.8867 3171.7986 3187.6099 3203.5217 -2249.716 3208.3557 3194.5586 3180.661 3166.3604 3151.7578 3136.853 3122.2502 3105.6335 2421.222 228.20435 3099.3896 3115.503 3131.6162 3147.528 3163.5405 3179.251 3194.9614 3210.6719 3226.2817 3241.69 3257.0984 550.06714 3250.5522 3236.6545 3222.6562 3208.255 3193.451 3178.7476 3164.3462 3149.8442 3135.0403 3114.1936 -589.9475 3125.5737 3141.8884 3158.0017 3173.9136 3189.8254 3205.536 -1625.528 3207.6506 3193.8538 3179.8552 3165.5547 3150.8513 3135.9465 3120.9412 3106.137 2469.9646 390.44495 3098.1812 3114.395 3130.4077 3146.521 3162.332 3178.1433 3193.8538 3209.5642 3225.0732 3240.5823 3255.9905 1120.4773 3247.0276 3233.13 3219.1313 
3299.8992 3299.8992 2764.9382 -248.14453 -3015.6006 -3001.8035 -2988.6108 -2975.2166 -2961.8225 -2948.932 -2936.0413 -2923.2512 -2910.7634 -2898.0742 -2885.6873 -2873.401 -2861.1145 -2849.0295 -2836.9446 -2825.061 -2813.0767 -2801.294 -2789.8132 -2778.0303 -2766.8518 -2627.371 3299.8992 3299.8992 3299.8992 3299.8992 3299.8992 3299.8992 3299.8992 3299.8992 3299.8992 3299.8992 3299.8992 3299.8992 3299.8992 3299.8992 3299.8992 3299.8992 2622.235 -349.7589 -3016.3054 -3002.4077 -2988.6108 -2975.418 -2962.6282 -2949.4353 -2936.5447 -2923.9563 -2911.3677 -2898.88 -2886.392 -2874.1057 -2861.9202 -2849.533 -2837.3474 -2825.7659 -2813.7817 -2801.9988 -2790.1152 -2778.3325 -2767.2546 -2053.2349 3299.8992 3299.8992 3299.8992 3299.8992 3299.8992 3299.8992 3299.8992 3299.8992 3299.8992 3299.8992 3299.8992 3299.8992 3299.8992 3299.8992 3299.8992 3299.8992 2240.7532 -933.96606 -3013.2842 -2999.4873 -2986.5967 -2973.001 -2959.8083 -2946.817 -2934.027 -2921.237 -2908.6487 -2896.06 -2883.8745 -2871.3867 -2859.3018 -2847.0154 -2835.1318 -2823.1475 -2811.264 -2799.4812 -2787.799 -2776.3184 -2764.6362 -1134.4757 3299.8992 3299.8992 3299.8992 3299.8992 3299.8992 3299.8992 3299.8992 3299.8992 3299.8992 3299.8992 3299.8992 3299.8992 3299.8992 3299.8992 3299.8992 3299.8992 2077.4048 -922.8882 -3013.1836 -2999.4873 -2985.6902 -2972.4976 -2959.7075 -2946.7163 -2933.9263 -2921.237 -2908.3464 -2895.758 -2883.673 -2871.3867 -2859.1003 -2847.0154 -2834.8296 -2822.946 -2811.1633 -2799.4812 -2787.4968 -2776.016 -2764.2334 160.12573 3299.8992 3299.8992 3299.8992 3299.8992 3299.8992 3299.8992 3299.8992 3299.8992 3299.8992 3299.8992 3299.8992 3299.8992 3299.8992 3299.8992 3299.8992 3299.8992 1961.5906 -1175.061 -3012.7808 -2998.883 -2985.791 -2972.3967 -2959.1033 -2946.2126 -2933.322 -2920.5322 -2908.0444 -2895.4558 -2883.0688 -2870.7825 -2858.5967 -2846.4111 -2834.4268 -2822.5432 -2810.7605 -2798.7761 -2787.3962 -2775.6133 -2764.4348 1378.4912 3299.8992 3299.8992 3299.8992 3299.8992 3299.8992 3299.8992 3299.8992 3299.8992 3299.8992 3299.8992 3299.8992 3299.8992 3299.8992 3299.8992 
3299.8992 3299.8992 3299.8992 3299.8992 3299.8992 3299.8992 2244.1772 -2601.6907 -2589.0015 -2576.715 -2564.4287 -2552.6458 -2540.7622 -2529.08 -2517.5994 -2506.1187 -2494.7388 -2483.661 -2472.583 -2461.5051 -2450.6287 -2439.7522 -2429.3792 -2418.402 -2407.727 -2397.2534 -2386.7798 -2376.4067 -2366.1345 -2355.7617 -2345.59 -345.12634 3299.8992 3299.8992 3299.8992 3299.8992 3299.8992 3299.8992 3299.8992 3299.8992 3299.8992 3299.8992 3299.8992 3299.8992 3299.8992 3299.8992 1649.7986 -2602.8992 -2590.3105 -2578.0242 -2565.9392 -2553.8542 -2542.172 -2530.49 -2518.9087 -2507.6294 -2496.2493 -2484.97 -2473.892 -2462.8142 -2452.0386 -2441.162 -2430.1848 -2419.6106 -2409.137 -2324.4414 -2388.2903 -2378.018 -2367.6453 -2357.373 -2347.2014 -304.03748 3299.8992 3299.8992 3299.8992 3299.8992 3299.8992 3299.8992 3299.8992 3299.8992 3299.8992 3299.8992 3299.8992 3299.8992 3299.8992 3299.8992 1164.4867 -2602.7983 -2590.21 -2577.9236 -2565.7378 -2553.7537 -2542.0715 -2530.2886 -2518.9087 -2507.428 -2496.2493 -2485.0708 -2473.892 -2462.915 -2451.9377 -2441.162 -2430.5876 -2419.6106 -2408.9355 -2398.462 -2387.9883 -2377.6152 -2367.2424 -2357.1716 -2346.7986 -217.32788 3299.8992 3299.8992 3299.8992 3299.8992 3299.8992 3299.8992 3299.8992 3299.8992 3299.8992 3299.8992 3299.8992 3299.8992 3299.8992 3299.8992 857.6294 -2601.7913 -2589.4043 -2576.9165 -2564.8315 -2552.948 -2541.2659 -2529.5837 -2518.0022 -2506.6223 -2495.343 -2484.1643 -2473.0864 -2462.0085 -2451.233 -2440.155 -2429.8828 -2418.9055 -2408.13 -2397.6562 -2387.2832 -2376.8096 -2366.5374 -2356.2651 -2274.3896 328.71094 3299.8992 3299.8992 3299.8992 3299.8992 3299.8992 3299.8992 3299.8992 3299.8992 3299.8992 3299.8992 3299.8992 3299.8992 3299.8992 3299.8992 321.05713 -2602.8992 -2590.3105 -2577.9236 -2565.8386 -2553.955 -2542.273 -2530.49 -2519.0093 -2507.6294 -2496.35 -2485.0708 -2473.993 -2463.0156 -2452.1392 -2441.2627 -2430.3862 -2419.812 -2409.3384 -2398.764 -2388.2903 -2377.9175 -2367.6453 -2357.2722 -2265.225 305.04456 3299.8992 3299.8992 3299.8992 3299.8992 3299.8992 3299.8992 3299.8992 3299.8992 
3223.8647 3208.255 3192.8467 3177.2368 3161.7278 1957.663 -1567.4194 3165.6555 3182.373 3198.8892 3215.3044 3231.4177 3247.7324 3263.6443 3279.4556 3295.3674 -3288.8213 -3273.413 -3257.8032 -3242.4956 -3227.3894 -3212.2832 -3197.0764 -3182.5745 -3167.9717 -3153.5706 3299.8992 3299.8992 3299.8992 3299.8992 3299.8992 3299.8992 3299.8992 3299.8992 3299.8992 3298.59 3282.8796 3267.0684 3251.4587 3235.7483 3220.2393 3204.5288 3189.3218 3173.7122 3157.8003 1466.3086 -2101.6753 3166.9646 3183.5815 3199.9968 3216.3115 3232.5256 3248.7395 3264.7522 3280.664 3296.3745 -3287.915 -3272.3052 -3256.897 -3241.5894 -3226.3823 -3211.2761 -3196.17 -3181.5674 -3166.9646 -2978.7415 3299.8992 3299.8992 3299.8992 3299.8992 3299.8992 3299.8992 3299.8992 3299.8992 3299.8992 3296.878 3281.067 3265.3564 3249.646 3234.137 3218.527 3202.9175 3187.509 3172.1008 3154.2754 1263.9862 -2332.0952 3167.166 3183.783 3200.1982 3216.6138 3232.727 3248.8403 3264.9536 3280.8655 3296.576 -3287.6128 -3272.2046 -3256.5947 -3241.388 -3226.181 -3211.0747 -3196.4722 -3181.4666 -3166.864 -2634.4207 3299.8992 3299.8992 3299.8992 3299.8992 3299.8992 3299.8992 3299.8992 3299.8992 3299.8992 3294.9646 3279.2542 3263.5437 3247.8333 3232.2234 3216.6138 3201.2053 3185.1929 3170.0867 3151.1536 1007.5836 -2544.4885 3167.6697 3184.2864 3200.601 3216.9158 3233.13 3249.2432 3265.155 3281.1675 3296.878 -3287.4114 -3271.8018 -3256.2927 -3241.0857 -3225.879 -3210.6719 -3196.17 -3180.9631 -3166.5618 -2029.8706 3299.8992 3299.8992 3299.8992 3299.8992 3299.8992 3299.8992 3299.8992 3299.8992 3299.8992 3292.9504 3277.1392 3261.4287 3245.7183 3230.2092 3214.7002 3199.1912 3183.078 3167.9717 3145.514 625.3967 -2893.1396 3168.9788 3185.6963 3202.011 3218.225 3234.6404 3250.4517 3266.565 3282.5774 3298.2878 -3286.0015 -3270.4924 -3254.9834 -3239.7766 -3224.3682 -3209.3628 -3194.6594 -3179.8552 -3165.2527 -1401.9562 3299.8992 3299.8992 3299.8992 3299.8992 3299.8992 3299.8992 3299.8992 3299.8992 3299.8992 3291.641 3275.9307 3260.2202 3244.6106 3229.1016 
