wall_time,elapsed_s,F1_N,F2_N
2026-07-21T16:19:42.411,0.0479,-1.2759,-0.7178
2026-07-21T16:19:42.411,0.0479,-1.2759,-0.7766
2026-07-21T16:19:42.411,0.053,-1.315,-0.6787
2026-07-21T16:19:42.411,0.053,-1.2759,-0.6982
2026-07-21T16:19:42.443,0.053,-1.2171,-0.7374
2026-07-21T16:19:42.443,0.0636,-1.2563,-0.7374
2026-07-21T16:19:42.443,0.0636,-1.2759,-0.6982
2026-07-21T16:19:42.443,0.0636,-1.2955,-0.6982
2026-07-21T16:19:42.474,0.1111,-1.2955,-0.6982
2026-07-21T16:19:42.474,0.1111,-1.3346,-0.6982
2026-07-21T16:19:42.474,0.1111,-1.1976,-0.6787
2026-07-21T16:19:42.496,0.1111,-1.2759,-0.757
2026-07-21T16:19:42.496,0.1111,-1.2563,-0.7374
2026-07-21T16:19:42.506,0.1583,-1.2759,-0.6982
2026-07-21T16:19:42.538,0.1583,-1.2367,-0.7962
2026-07-21T16:19:42.538,0.1583,-1.3346,-0.757
2026-07-21T16:19:42.538,0.1583,-1.2367,-0.6982
2026-07-21T16:19:42.554,0.1755,-1.2367,-0.7766
2026-07-21T16:19:42.554,0.1755,-1.315,-0.7374
2026-07-21T16:19:42.570,0.2058,-1.2955,-0.7766
2026-07-21T16:19:42.601,0.2216,-1.1584,-0.7374
2026-07-21T16:19:42.601,0.2216,-1.315,-0.7962
2026-07-21T16:19:42.601,0.2216,-1.315,-0.757
2026-07-21T16:19:42.617,0.2216,-1.2955,-0.6787
2026-07-21T16:19:42.618,0.2216,-1.2367,-0.7374
2026-07-21T16:19:42.648,0.2691,-1.2367,-0.757
2026-07-21T16:19:42.648,0.2691,-1.2759,-0.757
2026-07-21T16:19:42.648,0.2691,-1.2563,-0.7374
2026-07-21T16:19:42.664,0.2691,-1.2759,-0.7766
2026-07-21T16:19:42.664,0.2889,-1.315,-0.6982
2026-07-21T16:19:42.696,0.3165,-1.2955,-0.7374
2026-07-21T16:19:42.696,0.3165,-1.2955,-0.8157
2026-07-21T16:19:42.696,0.3165,-1.3934,-0.7962
2026-07-21T16:19:42.712,0.3323,-1.2955,-0.8353
2026-07-21T16:19:42.712,0.3323,-1.2367,-0.8353
2026-07-21T16:19:42.743,0.3795,-1.3346,-0.8353
2026-07-21T16:19:42.759,0.3795,-1.2563,-0.8353
2026-07-21T16:19:42.759,0.3795,-1.2759,-0.8549
2026-07-21T16:19:42.759,0.3795,-1.2955,-0.7962
2026-07-21T16:19:42.775,0.3891,-1.2955,-0.8353
2026-07-21T16:19:42.775,0.3891,-1.2563,-0.9136
2026-07-21T16:19:42.796,0.4269,-1.3346,-0.9332
2026-07-21T16:19:42.806,0.4279,-1.2367,-0.8157
2026-07-21T16:19:42.806,0.4285,-1.1976,-0.8157
2026-07-21T16:19:42.822,0.4285,-1.2367,-0.8745
2026-07-21T16:19:42.832,0.443,-1.2563,-0.7766
2026-07-21T16:19:42.838,0.4753,-1.1584,-0.757
2026-07-21T16:19:42.858,0.4753,-1.2367,-0.757
2026-07-21T16:19:42.858,0.4753,-1.1976,-0.6591
2026-07-21T16:19:42.871,0.4909,-1.1192,-0.5612
2026-07-21T16:19:42.886,0.4909,-1.0997,-0.5024
2026-07-21T16:19:42.917,0.5382,-1.2367,-0.3654
2026-07-21T16:19:42.918,0.5382,-1.1192,-0.0129
2026-07-21T16:19:42.918,0.5382,-1.0605,0.5549
2026-07-21T16:19:42.918,0.5538,-1.1192,1.2598
2026-07-21T16:19:42.934,0.5538,-1.1584,2.2584
2026-07-21T16:19:42.934,0.5698,-1.0409,3.2375
2026-07-21T16:19:42.966,0.6171,-1.1584,4.4907
2026-07-21T16:19:42.981,0.6171,-1.3934,6.0571
2026-07-21T16:19:42.981,0.6171,-1.5892,7.9564
2026-07-21T16:19:42.981,0.6331,-1.6479,10.4432
2026-07-21T16:19:42.996,0.6488,-1.55,12.6167
2026-07-21T16:19:42.996,0.6488,-1.315,14.9076
2026-07-21T16:19:43.012,0.654,-1.0801,16.8853
2026-07-21T16:19:43.028,0.6645,-0.943,18.6867
2026-07-21T16:19:43.032,0.712,-0.8647,20.4098
2026-07-21T16:19:43.044,0.712,-0.6689,21.8979
2026-07-21T16:19:43.060,0.712,-0.4731,23.484
2026-07-21T16:19:43.060,0.7278,-0.2381,25.2071
2026-07-21T16:19:43.076,0.7278,-0.0031,26.6952
2026-07-21T16:19:43.076,0.7278,0.2906,28.203
2026-07-21T16:19:43.097,0.7436,0.4081,29.6519
2026-07-21T16:19:43.097,0.7543,0.643,31.003
2026-07-21T16:19:43.107,0.7593,0.7997,31.982
2026-07-21T16:19:43.123,0.7906,0.7801,32.8828
2026-07-21T16:19:43.139,0.7906,0.9172,33.5289
2026-07-21T16:19:43.139,0.7906,1.0542,34.2142
2026-07-21T16:19:43.155,0.8073,1.1717,34.7625
2026-07-21T16:19:43.155,0.8073,1.2892,35.3499
2026-07-21T16:19:43.170,0.8073,1.4067,36.1136
2026-07-21T16:19:43.186,0.8224,1.5437,36.7989
2026-07-21T16:19:43.186,0.8224,1.6417,37.4647
2026-07-21T16:19:43.202,0.8224,1.8766,38.0325
2026-07-21T16:19:43.218,0.8543,2.092,38.4437
2026-07-21T16:19:43.218,0.87,2.2095,38.894
2026-07-21T16:19:43.233,0.87,2.3074,39.3444
2026-07-21T16:19:43.233,0.87,2.4445,39.5598
2026-07-21T16:19:43.250,0.8858,2.4053,39.4423
2026-07-21T16:19:43.265,0.8914,2.4053,38.992
2026-07-21T16:19:43.265,0.9015,2.4445,37.8758
2026-07-21T16:19:43.284,0.933,2.464,36.094
2026-07-21T16:19:43.297,0.933,2.4249,33.803
2026-07-21T16:19:43.297,0.933,2.7186,31.7862
2026-07-21T16:19:43.313,0.9543,2.7773,30.7876
2026-07-21T16:19:43.328,0.9543,2.699,30.3764
2026-07-21T16:19:43.334,0.9644,2.5424,30.2002
2026-07-21T16:19:43.344,0.9644,2.464,30.0631
2026-07-21T16:19:43.360,0.9962,2.4053,29.6911
2026-07-21T16:19:43.360,0.9962,2.464,29.2603
2026-07-21T16:19:43.376,0.9962,2.4053,28.5162
2026-07-21T16:19:43.376,1.0119,2.4053,28.34
2026-07-21T16:19:43.397,1.0119,2.464,29.0645
2026-07-21T16:19:43.397,1.0119,2.5228,29.9065
2026-07-21T16:19:43.407,1.0596,2.4445,30.6897
2026-07-21T16:19:43.423,1.0596,2.5619,31.5904
2026-07-21T16:19:43.434,1.0596,2.6794,32.1191
2026-07-21T16:19:43.439,1.0753,2.7773,32.4128
2026-07-21T16:19:43.455,1.0753,2.8557,32.7653
2026-07-21T16:19:43.455,1.0753,2.9731,33.2352
2026-07-21T16:19:43.470,1.0926,3.0515,33.4702
2026-07-21T16:19:43.497,1.1229,3.0319,33.7443
2026-07-21T16:19:43.497,1.1229,3.0319,33.9597
2026-07-21T16:19:43.502,1.1386,3.169,34.0968
2026-07-21T16:19:43.518,1.1386,3.0906,34.273
2026-07-21T16:19:43.518,1.1386,3.071,34.1751
2026-07-21T16:19:43.535,1.1545,3.0515,34.038
2026-07-21T16:19:43.566,1.1859,3.0319,33.8814
2026-07-21T16:19:43.566,1.1859,3.0123,33.6072
2026-07-21T16:19:43.566,1.1859,3.071,33.4114
2026-07-21T16:19:43.566,1.1925,3.071,33.2156
2026-07-21T16:19:43.581,1.2016,3.0515,33.0786
2026-07-21T16:19:43.597,1.2016,3.0906,33.2156
2026-07-21T16:19:43.613,1.2488,3.1102,33.2939
2026-07-21T16:19:43.613,1.2488,2.8948,33.3723
2026-07-21T16:19:43.613,1.2488,2.9536,33.4114
2026-07-21T16:19:43.635,1.2544,2.9731,33.3331
2026-07-21T16:19:43.644,1.2645,2.8361,33.3723
2026-07-21T16:19:43.644,1.2645,2.8557,33.431
2026-07-21T16:19:43.676,1.296,2.8752,33.5289
2026-07-21T16:19:43.676,1.296,2.7382,33.5485
2026-07-21T16:19:43.676,1.3117,2.7382,33.6072
2026-07-21T16:19:43.697,1.3117,2.7382,33.5877
2026-07-21T16:19:43.707,1.3117,2.7578,33.6268
2026-07-21T16:19:43.707,1.3274,2.699,33.8226
2026-07-21T16:19:43.723,1.3602,2.8361,33.9401
2026-07-21T16:19:43.739,1.3602,2.6794,33.9989
2026-07-21T16:19:43.739,1.3747,2.7186,33.9989
2026-07-21T16:19:43.754,1.3747,2.7382,33.7639
2026-07-21T16:19:43.754,1.3747,2.7186,33.3723
2026-07-21T16:19:43.786,1.4256,2.5228,32.6674
2026-07-21T16:19:43.786,1.4267,2.464,31.7079
2026-07-21T16:19:43.797,1.4267,2.2682,30.1023
2026-07-21T16:19:43.803,1.4378,1.8375,27.9876
2026-07-21T16:19:43.817,1.4549,1.2696,25.2267
2026-07-21T16:19:43.817,1.4549,0.643,21.6434
2026-07-21T16:19:43.836,1.47,-0.0227,17.8056
2026-07-21T16:19:43.861,1.5024,-0.7472,14.5356
2026-07-21T16:19:43.862,1.5024,-1.2955,11.6572
2026-07-21T16:19:43.869,1.5179,-1.5696,8.5634
2026-07-21T16:19:43.880,1.5346,-1.8633,5.7634
2026-07-21T16:19:43.880,1.5346,-1.8046,3.4333
2026-07-21T16:19:43.897,1.5346,-1.8633,1.6514
2026-07-21T16:19:43.898,1.5548,-1.8829,0.4962
2026-07-21T16:19:43.913,1.5658,-1.8046,-0.2087
2026-07-21T16:19:43.913,1.5658,-1.6871,-0.6003
2026-07-21T16:19:43.936,1.5972,-1.7458,-0.6003
2026-07-21T16:19:43.945,1.6129,-1.785,-0.5612
2026-07-21T16:19:43.961,1.6129,-1.6675,-0.5024
2026-07-21T16:19:43.961,1.6129,-1.5109,-0.7962
2026-07-21T16:19:43.977,1.6287,-1.3934,-1.0703
2026-07-21T16:19:43.992,1.6287,-1.4521,-1.1878
2026-07-21T16:19:43.992,1.6287,-1.4325,-1.129
2026-07-21T16:19:44.008,1.6287,-1.2367,-1.0311
2026-07-21T16:19:44.008,1.6444,-1.0409,-0.8549
2026-07-21T16:19:44.024,1.6757,-0.8647,-0.6199
2026-07-21T16:19:44.040,1.6757,-0.7864,-0.6199
2026-07-21T16:19:44.040,1.6757,-0.8647,-0.5808
2026-07-21T16:19:44.056,1.6757,-0.9038,-0.6395
2026-07-21T16:19:44.056,1.6757,-0.9038,-0.5808
2026-07-21T16:19:44.071,1.6757,-0.9038,-0.6395
2026-07-21T16:19:44.071,1.6946,-0.9038,-0.6003
2026-07-21T16:19:44.103,1.7232,-0.9234,-0.6199
2026-07-21T16:19:44.103,1.7232,-0.9626,-0.6199
2026-07-21T16:19:44.118,1.7232,-0.9234,-0.522
2026-07-21T16:19:44.118,1.7232,-0.9234,-0.5808
2026-07-21T16:19:44.138,1.7232,-0.9234,-0.5612
2026-07-21T16:19:44.150,1.7563,-0.9038,-0.5416
2026-07-21T16:19:44.150,1.7563,-0.8647,-0.5612
2026-07-21T16:19:44.166,1.7563,-0.9038,-0.5808
2026-07-21T16:19:44.166,1.7708,-0.8647,-0.5612
2026-07-21T16:19:44.199,1.8022,-0.8647,-0.6003
2026-07-21T16:19:44.199,1.8022,-0.943,-0.5808
2026-07-21T16:19:44.199,1.8022,-0.9626,-0.6003
2026-07-21T16:19:44.213,1.8022,-0.9234,-0.6787
2026-07-21T16:19:44.237,1.8337,-0.9626,-0.6591
2026-07-21T16:19:44.237,1.8337,-1.0018,-0.6199
2026-07-21T16:19:44.245,1.8494,-0.9038,-0.5612
2026-07-21T16:19:44.245,1.8494,-0.943,-0.522
2026-07-21T16:19:44.261,1.8808,-0.9822,-0.385
2026-07-21T16:19:44.276,1.8808,-0.9234,-0.3654
2026-07-21T16:19:44.276,1.8808,-0.9626,-0.2675
2026-07-21T16:19:44.298,1.9281,-0.943,-0.5024
2026-07-21T16:19:44.308,1.9281,-0.943,-0.5024
2026-07-21T16:19:44.323,1.9281,-0.9822,-0.522
2026-07-21T16:19:44.323,1.9281,-1.0018,-0.6003
2026-07-21T16:19:44.339,1.9595,-0.943,-0.5612
2026-07-21T16:19:44.339,1.9595,-0.9822,-0.6199
2026-07-21T16:19:44.355,1.9752,-0.9626,-0.6199
2026-07-21T16:19:44.355,1.9752,-1.0213,-0.6199
2026-07-21T16:19:44.371,1.9752,-0.9822,-0.6003
2026-07-21T16:19:44.387,2.0071,-0.9626,-0.6395
2026-07-21T16:19:44.402,2.0071,-1.0018,-0.5808
2026-07-21T16:19:44.402,2.0071,-0.9626,-0.6199
2026-07-21T16:19:44.418,2.0071,-0.8843,-0.5808
2026-07-21T16:19:44.418,2.0387,-1.0213,-0.6395
2026-07-21T16:19:44.450,2.0555,-0.9626,-0.6395
2026-07-21T16:19:44.450,2.0555,-1.0018,-0.6395
2026-07-21T16:19:44.450,2.0555,-0.8255,-0.6591
2026-07-21T16:19:44.465,2.0555,-0.9822,-0.5808
2026-07-21T16:19:44.481,2.0863,-0.9822,-0.6003
2026-07-21T16:19:44.481,2.0863,-0.9822,-0.6591
2026-07-21T16:19:44.498,2.0956,-1.0801,-0.6395
2026-07-21T16:19:44.498,2.1032,-1.0213,-0.6591
2026-07-21T16:19:44.513,2.1335,-1.0018,-0.6787
2026-07-21T16:19:44.529,2.1335,-1.0605,-0.6395
2026-07-21T16:19:44.529,2.1335,-1.0605,-0.6591
2026-07-21T16:19:44.546,2.1335,-1.0605,-0.757
2026-07-21T16:19:44.560,2.1648,-1.0997,-0.6591
2026-07-21T16:19:44.560,2.1648,-1.0018,-0.8549
2026-07-21T16:19:44.576,2.1805,-0.8843,-0.8353
2026-07-21T16:19:44.576,2.1805,-0.8255,-0.5808
2026-07-21T16:19:44.607,2.2276,-0.6689,-0.4633
2026-07-21T16:19:44.607,2.2276,-0.4535,-0.0717
2026-07-21T16:19:44.607,2.2276,-0.2773,0.5745
2026-07-21T16:19:44.623,2.2434,-0.1206,1.5731
2026-07-21T16:19:44.623,2.2434,0.1927,2.6892
2026-07-21T16:19:44.655,2.2906,0.4081,3.9032
2026-07-21T16:19:44.655,2.2967,0.5843,5.3522
2026-07-21T16:19:44.670,2.3063,0.7801,6.9774
2026-07-21T16:19:44.670,2.3063,1.1326,8.6418
2026-07-21T16:19:44.686,2.3063,1.3479,10.2278
2026-07-21T16:19:44.686,2.322,1.7787,11.8922
2026-07-21T16:19:44.717,2.3561,2.3074,13.7524
2026-07-21T16:19:44.717,2.3696,2.8752,15.73
2026-07-21T16:19:44.717,2.3709,3.4822,17.7077
2026-07-21T16:19:44.739,2.3709,3.8934,19.5874
2026-07-21T16:19:44.749,2.3855,4.2655,21.5259
2026-07-21T16:19:44.765,2.4012,4.4613,23.4448
2026-07-21T16:19:44.765,2.4012,4.7942,25.2267
2026-07-21T16:19:44.780,2.4328,5.127,26.9889
2026-07-21T16:19:44.799,2.4328,5.4012,28.9079
2026-07-21T16:19:44.799,2.4328,5.6753,31.1792
2026-07-21T16:19:44.799,2.4561,5.9886,33.5289
2026-07-21T16:19:44.814,2.4642,6.204,35.6436
2026-07-21T16:19:44.828,2.4642,6.4585,37.4255
2026-07-21T16:19:44.840,2.4642,6.6543,38.9332
2026-07-21T16:19:44.844,2.4851,6.7914,40.1081
2026-07-21T16:19:44.860,2.53,6.7718,41.2046
2026-07-21T16:19:44.875,2.53,7.0068,42.1445
2026-07-21T16:19:44.875,2.53,7.0068,43.006
2026-07-21T16:19:44.891,2.5435,7.0264,43.9459
2026-07-21T16:19:44.907,2.5435,7.1047,44.7095
2026-07-21T16:19:44.907,2.5592,7.0851,45.4536
2026-07-21T16:19:44.907,2.5602,6.9676,45.9431
2026-07-21T16:19:44.938,2.5602,6.9089,46.2173
2026-07-21T16:19:44.940,2.5753,6.8893,46.5305
2026-07-21T16:19:44.940,2.6067,6.9089,46.7068
2026-07-21T16:19:44.970,2.6067,6.7718,46.7655
2026-07-21T16:19:44.970,2.6067,6.7522,46.6676
2026-07-21T16:19:44.973,2.6225,6.6935,46.5893
2026-07-21T16:19:44.986,2.6225,6.6543,46.4718
2026-07-21T16:19:45.002,2.6382,6.6347,46.041
2026-07-21T16:19:45.003,2.6382,6.5564,45.7865
2026-07-21T16:19:45.018,2.6565,6.5173,45.7669
2026-07-21T16:19:45.049,2.7015,6.5368,45.7473
2026-07-21T16:19:45.049,2.7015,6.4781,45.8061
2026-07-21T16:19:45.049,2.7015,6.3802,46.0214
2026-07-21T16:19:45.049,2.7015,6.3802,45.8452
2026-07-21T16:19:45.065,2.7172,6.3802,45.4144
2026-07-21T16:19:45.065,2.7172,6.2431,45.062
2026-07-21T16:19:45.081,2.733,6.3606,44.7291
2026-07-21T16:19:45.097,2.733,6.3019,44.5137
2026-07-21T16:19:45.099,2.7812,6.204,44.2983
2026-07-21T16:19:45.113,2.7812,6.1256,43.9263
2026-07-21T16:19:45.141,2.7989,6.1648,43.2606
2026-07-21T16:19:45.141,2.7989,6.0473,42.2032
2026-07-21T16:19:45.144,2.8054,5.8907,41.4983
2026-07-21T16:19:45.144,2.812,5.8319,41.0088
2026-07-21T16:19:45.160,2.812,5.6949,40.2255
2026-07-21T16:19:45.176,2.8278,5.5186,39.6773
2026-07-21T16:19:45.176,2.8278,5.362,39.0899
2026-07-21T16:19:45.207,2.8753,5.3228,38.3066
2026-07-21T16:19:45.207,2.8753,5.0683,37.2688
2026-07-21T16:19:45.224,2.8753,4.8921,35.8199
2026-07-21T16:19:45.224,2.8991,4.6767,33.7443
2026-07-21T16:19:45.224,2.9068,4.2459,30.9051
2026-07-21T16:19:45.248,2.9228,3.7172,27.2043
2026-07-21T16:19:45.255,2.9228,3.1298,22.9357
2026-07-21T16:19:45.255,2.9228,2.4836,18.7063
2026-07-21T16:19:45.270,2.9386,1.7983,14.888
2026-07-21T16:19:45.286,2.9997,1.25,11.7551
2026-07-21T16:19:45.286,3.0023,0.7801,9.425
2026-07-21T16:19:45.318,3.0023,0.3885,7.5061
2026-07-21T16:19:45.318,3.0183,0.1144,5.9984
2026-07-21T16:19:45.318,3.0341,-0.1206,4.5102
2026-07-21T16:19:45.342,3.0341,-0.3947,3.1396
2026-07-21T16:19:45.342,3.0498,-0.6297,2.0626
2026-07-21T16:19:45.366,3.057,-0.8647,1.1619
2026-07-21T16:19:45.366,3.0655,-1.0409,0.5353
2026-07-21T16:19:45.366,3.0655,-1.2759,0.1046
2026-07-21T16:19:45.381,3.0823,-1.4129,-0.2283
2026-07-21T16:19:45.400,3.0823,-1.5304,-0.4045
2026-07-21T16:19:45.400,3.0823,-1.6675,-0.5612
2026-07-21T16:19:45.414,3.1287,-1.6283,-0.6591
2026-07-21T16:19:45.429,3.1287,-1.7067,-0.7178
2026-07-21T16:19:45.429,3.1287,-1.7262,-0.7374
2026-07-21T16:19:45.445,3.1444,-1.6675,-0.5612
2026-07-21T16:19:45.461,3.1444,-1.6479,-0.6003
2026-07-21T16:19:45.477,3.1444,-1.6088,-0.522
2026-07-21T16:19:45.477,3.1572,-1.55,-0.4437
2026-07-21T16:19:45.477,3.1572,-1.5109,-0.385
2026-07-21T16:19:45.500,3.1603,-1.5109,-0.5024
2026-07-21T16:19:45.508,3.1699,-1.55,-0.4241
2026-07-21T16:19:45.525,3.1759,-1.5109,-0.4437
2026-07-21T16:19:45.525,3.1766,-1.4913,-0.4633
2026-07-21T16:19:45.525,3.1766,-1.4913,-0.4829
2026-07-21T16:19:45.543,3.2232,-1.4521,-0.4437
2026-07-21T16:19:45.557,3.2232,-1.4521,-0.5024
2026-07-21T16:19:45.557,3.2232,-1.4325,-0.5024
2026-07-21T16:19:45.571,3.2232,-1.3346,-0.522
2026-07-21T16:19:45.587,3.2232,-1.3346,-0.5416
2026-07-21T16:19:45.587,3.2389,-1.3934,-0.5416
2026-07-21T16:19:45.603,3.2389,-1.3738,-0.522
2026-07-21T16:19:45.613,3.2389,-1.2955,-0.4437
2026-07-21T16:19:45.634,3.2864,-1.2955,-0.4633
2026-07-21T16:19:45.634,3.2864,-1.2955,-0.385
2026-07-21T16:19:45.650,3.2864,-1.2563,-0.3262
2026-07-21T16:19:45.650,3.2864,-1.1584,-0.3458
2026-07-21T16:19:45.666,3.2864,-1.178,-0.2871
2026-07-21T16:19:45.666,3.3023,-1.1388,-0.2871
2026-07-21T16:19:45.682,3.3023,-1.2171,-0.2283
2026-07-21T16:19:45.700,3.3495,-1.2367,-0.2087
2026-07-21T16:19:45.713,3.3495,-1.1388,-0.1892
2026-07-21T16:19:45.713,3.3495,-1.1388,-0.2479
2026-07-21T16:19:45.729,3.3572,-1.178,-0.2087
2026-07-21T16:19:45.729,3.3572,-1.1388,-0.1108
2026-07-21T16:19:45.745,3.3653,-1.1584,-0.1892
2026-07-21T16:19:45.745,3.4008,-1.1388,-0.2087
2026-07-21T16:19:45.776,3.4008,-1.178,-0.0912
2026-07-21T16:19:45.776,3.4008,-1.0997,-0.0912
2026-07-21T16:19:45.776,3.416,-1.1388,-0.1892
2026-07-21T16:19:45.800,3.416,-1.2955,-0.2087
2026-07-21T16:19:45.808,3.4286,-1.2759,-0.2675
2026-07-21T16:19:45.808,3.46,-1.2367,-0.3066
2026-07-21T16:19:45.843,3.46,-1.2955,-0.3458
2026-07-21T16:19:45.843,3.46,-1.2171,-0.3066
2026-07-21T16:19:45.843,3.46,-1.2563,-0.2479
2026-07-21T16:19:45.859,3.4758,-1.2563,-0.2087
2026-07-21T16:19:45.859,3.4758,-1.1192,-0.15
2026-07-21T16:19:45.871,3.5247,-1.1976,-0.1304
2026-07-21T16:19:45.887,3.5247,-1.178,-0.1108
2026-07-21T16:19:45.903,3.5247,-1.2171,-0.0717
2026-07-21T16:19:45.903,3.5247,-1.2171,-0.0521
2026-07-21T16:19:45.918,3.5403,-1.1388,0.0067
2026-07-21T16:19:45.918,3.5403,-1.178,0.1437
2026-07-21T16:19:45.934,3.5574,-1.1192,0.4179
2026-07-21T16:19:45.966,3.5878,-1.1976,0.5158
2026-07-21T16:19:45.967,3.5878,-1.1584,0.8486
2026-07-21T16:19:45.967,3.6028,-1.178,1.2794
2026-07-21T16:19:45.967,3.6028,-1.1584,1.7885
2026-07-21T16:19:45.983,3.6186,-1.2367,2.2193
2026-07-21T16:19:46.000,3.6343,-1.178,2.6696
2026-07-21T16:19:46.014,3.6815,-1.2759,3.0417
2026-07-21T16:19:46.030,3.6815,-1.2563,3.355
2026-07-21T16:19:46.030,3.6815,-1.3934,3.727
2026-07-21T16:19:46.030,3.6815,-1.4325,4.0011
2026-07-21T16:19:46.045,3.7016,-1.6088,4.334
2026-07-21T16:19:46.045,3.7132,-1.6283,4.8039
2026-07-21T16:19:46.061,3.7132,-1.6088,5.3718
2026-07-21T16:19:46.077,3.7132,-1.6675,5.8417
2026-07-21T16:19:46.077,3.7289,-1.7067,6.3117
2026-07-21T16:19:46.108,3.776,-1.7067,6.7816
2026-07-21T16:19:46.108,3.776,-1.7067,7.1536
2026-07-21T16:19:46.108,3.776,-1.7654,7.369
2026-07-21T16:19:46.124,3.776,-1.7654,7.5648
2026-07-21T16:19:46.144,3.7918,-1.8046,7.5257
2026-07-21T16:19:46.144,3.7918,-1.8829,7.4865
2026-07-21T16:19:46.156,3.802,-2.02,7.5648
2026-07-21T16:19:46.156,3.8076,-2.0787,7.7215
2026-07-21T16:19:46.172,3.8091,-2.0787,7.9956
2026-07-21T16:19:46.187,3.8578,-2.1766,8.1718
2026-07-21T16:19:46.203,3.8578,-2.0983,8.211
2026-07-21T16:19:46.203,3.8578,-2.1179,8.211
2026-07-21T16:19:46.219,3.8709,-2.1374,8.2697
2026-07-21T16:19:46.219,3.8709,-2.1179,8.583
2026-07-21T16:19:46.234,3.8709,-2.2158,9.1313
2026-07-21T16:19:46.250,3.8886,-2.2745,9.8949
2026-07-21T16:19:46.252,3.9023,-2.1374,10.5019
2026-07-21T16:19:46.266,3.9338,-2.2549,10.9131
2026-07-21T16:19:46.282,3.9338,-2.2158,11.1285
2026-07-21T16:19:46.291,3.9497,-2.2353,11.2656
2026-07-21T16:19:46.300,3.9579,-2.157,10.9719
2026-07-21T16:19:46.314,3.9654,-2.2158,10.4628
2026-07-21T16:19:46.314,3.9654,-2.2353,9.8362
2026-07-21T16:19:46.329,3.9654,-2.1766,8.7593
2026-07-21T16:19:46.331,3.9654,-2.157,7.5844
2026-07-21T16:19:46.345,3.9811,-2.2158,6.4683
2026-07-21T16:19:46.361,4.0135,-2.0787,5.3326
2026-07-21T16:19:46.376,4.0297,-2.0004,4.1382
2026-07-21T16:19:46.376,4.0297,-1.922,3.6487
2026-07-21T16:19:46.376,4.0297,-1.9025,3.4529
2026-07-21T16:19:46.401,4.0452,-1.8241,3.355
2026-07-21T16:19:46.408,4.0452,-1.922,3.1787
2026-07-21T16:19:46.408,4.0578,-1.8437,3.1004
2026-07-21T16:19:46.424,4.0578,-1.7654,3.0221
2026-07-21T16:19:46.446,4.0923,-1.7262,2.9438
2026-07-21T16:19:46.456,4.0923,-1.8437,2.8067
2026-07-21T16:19:46.456,4.0923,-1.7654,2.8654
2026-07-21T16:19:46.456,4.0923,-1.7067,2.8459
2026-07-21T16:19:46.472,4.1034,-1.8046,3.0417
2026-07-21T16:19:46.488,4.108,-1.8046,3.4137
2026-07-21T16:19:46.500,4.108,-1.7458,3.727
2026-07-21T16:19:46.504,4.158,-1.9025,3.9424
2026-07-21T16:19:46.519,4.158,-1.7262,4.2753
2026-07-21T16:19:46.519,4.158,-1.8241,4.4515
2026-07-21T16:19:46.546,4.158,-1.9025,4.6473
2026-07-21T16:19:46.546,4.1716,-1.8437,4.7648
2026-07-21T16:19:46.551,4.1716,-1.8829,4.8431
2026-07-21T16:19:46.567,4.1716,-1.8829,4.8823
2026-07-21T16:19:46.582,4.2192,-1.8829,4.9018
2026-07-21T16:19:46.598,4.2192,-1.785,4.8627
2026-07-21T16:19:46.601,4.2192,-1.7458,4.6277
2026-07-21T16:19:46.601,4.2192,-1.8241,4.4907
2026-07-21T16:19:46.614,4.235,-1.6871,4.1774
2026-07-21T16:19:46.614,4.235,-1.7458,3.8836
2026-07-21T16:19:46.646,4.2667,-1.7067,3.8249
2026-07-21T16:19:46.646,4.2667,-1.6871,3.7466
2026-07-21T16:19:46.646,4.2667,-1.6871,3.7074
2026-07-21T16:19:46.662,4.2824,-1.7458,3.6683
2026-07-21T16:19:46.678,4.2824,-1.7262,3.6683
2026-07-21T16:19:46.678,4.2981,-1.8046,3.5508
2026-07-21T16:19:46.709,4.3296,-1.8437,3.4333
2026-07-21T16:19:46.709,4.3296,-1.8046,3.2962
2026-07-21T16:19:46.709,4.3453,-1.7262,2.9242
2026-07-21T16:19:46.725,4.3453,-1.785,2.5522
2026-07-21T16:19:46.725,4.3611,-1.7067,2.1214
2026-07-21T16:19:46.747,4.3768,-1.6675,1.7102
2026-07-21T16:19:46.772,4.4151,-1.4913,1.3773
2026-07-21T16:19:46.772,4.4163,-1.5109,1.1228
2026-07-21T16:19:46.772,4.4214,-1.4325,0.9074
2026-07-21T16:19:46.788,4.4246,-1.4129,0.8486
2026-07-21T16:19:46.804,4.4277,-1.3934,0.8486
2026-07-21T16:19:46.804,4.4277,-1.3738,0.7899
2026-07-21T16:19:46.819,4.4398,-1.3738,0.9074
2026-07-21T16:19:46.847,4.4712,-1.4913,1.0836
2026-07-21T16:19:46.847,4.4712,-1.4521,1.299
2026-07-21T16:19:46.851,4.4712,-1.5109,1.4948
2026-07-21T16:19:46.859,4.4712,-1.5304,1.7689
2026-07-21T16:19:46.870,4.4869,-1.5304,2.1605
2026-07-21T16:19:46.870,4.4869,-1.4913,2.4347
2026-07-21T16:19:46.901,4.5345,-1.5892,2.7284
2026-07-21T16:19:46.901,4.5345,-1.6088,3.1592
2026-07-21T16:19:46.901,4.5345,-1.6088,3.4333
2026-07-21T16:19:46.914,4.5513,-1.6088,3.7074
2026-07-21T16:19:46.914,4.5589,-1.7067,3.9228
2026-07-21T16:19:46.930,4.5589,-1.6675,4.1774
2026-07-21T16:19:46.947,4.5669,-1.7067,4.5298
2026-07-21T16:19:46.977,4.6051,-1.8046,4.9018
2026-07-21T16:19:46.977,4.6051,-1.8633,5.3326
2026-07-21T16:19:46.977,4.6051,-1.8829,5.6068
2026-07-21T16:19:46.977,4.6152,-1.9025,5.8221
2026-07-21T16:19:46.994,4.6152,-1.9025,6.0767
2026-07-21T16:19:47.010,4.6307,-1.8829,6.4487
2026-07-21T16:19:47.010,4.6307,-1.9416,6.6641
2026-07-21T16:19:47.026,4.6621,-2.0004,6.8991
2026-07-21T16:19:47.041,4.6778,-2.0395,7.0949
2026-07-21T16:19:47.048,4.6778,-2.0591,7.2515
2026-07-21T16:19:47.058,4.6778,-2.1179,7.4278
2026-07-21T16:19:47.058,4.6936,-2.1179,7.5648
2026-07-21T16:19:47.073,4.6936,-2.1374,7.6627
2026-07-21T16:19:47.073,4.7256,-2.1962,7.7215
2026-07-21T16:19:47.105,4.7413,-2.0787,7.839
2026-07-21T16:19:47.105,4.7413,-2.1374,7.8585
2026-07-21T16:19:47.120,4.7413,-2.157,8.1327
2026-07-21T16:19:47.120,4.7413,-2.1962,8.446
2026-07-21T16:19:47.136,4.7571,-2.1374,8.7201
2026-07-21T16:19:47.148,4.7592,-2.2353,9.0138
2026-07-21T16:19:47.152,4.7899,-2.1374,9.2292
2026-07-21T16:19:47.168,4.7899,-2.2549,9.4446
2026-07-21T16:19:47.168,4.7899,-2.2549,9.4642
2026-07-21T16:19:47.184,4.806,-2.2941,9.5816
2026-07-21T16:19:47.184,4.806,-2.1962,9.6796
2026-07-21T16:19:47.216,4.8368,-2.2158,9.7187
2026-07-21T16:19:47.232,4.8525,-2.2353,9.8362
2026-07-21T16:19:47.232,4.8525,-2.2158,9.8558
2026-07-21T16:19:47.233,4.8591,-2.157,9.9537
2026-07-21T16:19:47.249,4.8682,-2.2549,10.0907
2026-07-21T16:19:47.249,4.8682,-2.1766,10.1495
2026-07-21T16:19:47.264,4.9063,-2.2158,10.3257
2026-07-21T16:19:47.279,4.9164,-2.0983,10.5215
2026-07-21T16:19:47.279,4.9164,-2.1766,10.6782
2026-07-21T16:19:47.295,4.9164,-2.0591,10.7173
2026-07-21T16:19:47.302,4.9164,-2.1766,10.8348
2026-07-21T16:19:47.311,4.9633,-2.157,10.8936
2026-07-21T16:19:47.327,4.9633,-2.2158,10.7761
2026-07-21T16:19:47.342,4.9633,-2.1962,10.874
2026-07-21T16:19:47.349,4.979,-2.1766,11.011
2026-07-21T16:19:47.358,4.979,-2.1962,11.0698
2026-07-21T16:19:47.359,4.979,-2.0983,11.0306
2026-07-21T16:19:47.374,5.0104,-2.1374,10.874
2026-07-21T16:19:47.406,5.031,-2.157,10.6782
2026-07-21T16:19:47.406,5.0321,-2.0983,10.5411
2026-07-21T16:19:47.406,5.0321,-2.1374,10.5411
2026-07-21T16:19:47.406,5.0421,-2.1766,10.5215
2026-07-21T16:19:47.422,5.0421,-2.1179,10.5998
2026-07-21T16:19:47.453,5.0897,-2.0983,10.5998
2026-07-21T16:19:47.453,5.0897,-2.1962,10.5607
2026-07-21T16:19:47.453,5.0897,-2.0983,10.5215
2026-07-21T16:19:47.473,5.0897,-2.157,10.5998
2026-07-21T16:19:47.475,5.0897,-2.157,10.639
2026-07-21T16:19:47.485,5.1055,-2.157,10.639
2026-07-21T16:19:47.501,5.1377,-2.1374,10.6194
2026-07-21T16:19:47.517,5.1377,-2.1766,10.5998
2026-07-21T16:19:47.517,5.1377,-2.1179,10.5411
2026-07-21T16:19:47.517,5.1377,-2.1374,10.4628
2026-07-21T16:19:47.532,5.1377,-2.157,10.4432
2026-07-21T16:19:47.550,5.1596,-2.1766,10.4824
2026-07-21T16:19:47.550,5.185,-2.1374,10.6194
2026-07-21T16:19:47.564,5.185,-2.1179,10.7369
2026-07-21T16:19:47.580,5.185,-2.0591,10.9327
2026-07-21T16:19:47.580,5.2007,-2.1374,10.9915
2026-07-21T16:19:47.602,5.2007,-2.0591,10.9131
2026-07-21T16:19:47.602,5.2073,-2.1374,10.9719
2026-07-21T16:19:47.628,5.2324,-2.0787,10.8152
2026-07-21T16:19:47.628,5.2324,-2.1766,10.9327
2026-07-21T16:19:47.628,5.2482,-2.1374,10.9523
2026-07-21T16:19:47.650,5.2598,-2.1374,10.9523
2026-07-21T16:19:47.659,5.2953,-2.0591,10.9523
2026-07-21T16:19:47.675,5.2953,-2.157,10.9327
2026-07-21T16:19:47.675,5.2953,-2.0983,10.9131
2026-07-21T16:19:47.675,5.2953,-2.1179,10.9719
2026-07-21T16:19:47.691,5.311,-2.0787,10.8544
2026-07-21T16:19:47.707,5.3427,-2.0591,10.9327
2026-07-21T16:19:47.722,5.3427,-2.0787,10.9523
2026-07-21T16:19:47.722,5.3427,-2.1374,11.0502
2026-07-21T16:19:47.738,5.3599,-2.0787,11.0894
2026-07-21T16:19:47.750,5.3599,-2.0395,11.0698
2026-07-21T16:19:47.754,5.3599,-2.0591,10.9915
2026-07-21T16:19:47.769,5.3901,-2.1179,10.9719
2026-07-21T16:19:47.785,5.4079,-2.0591,10.9915
2026-07-21T16:19:47.785,5.4079,-2.0004,10.9719
2026-07-21T16:19:47.803,5.4079,-2.0983,11.011
2026-07-21T16:19:47.803,5.4219,-1.9808,11.0306
2026-07-21T16:19:47.817,5.4602,-2.0787,11.0894
2026-07-21T16:19:47.833,5.4602,-2.1374,11.1285
2026-07-21T16:19:47.833,5.4602,-2.0591,11.246
2026-07-21T16:19:47.851,5.4602,-2.0591,11.2852
2026-07-21T16:19:47.851,5.4693,-2.0591,11.3635
2026-07-21T16:19:47.865,5.4693,-2.0787,11.4027
2026-07-21T16:19:47.896,5.5083,-1.9808,11.5397
2026-07-21T16:19:47.896,5.5164,-2.0395,11.4614
2026-07-21T16:19:47.896,5.5164,-2.0983,11.481
2026-07-21T16:19:47.903,5.5164,-2.0395,11.4418
2026-07-21T16:19:47.912,5.5321,-2.02,11.4418
2026-07-21T16:19:47.928,5.5645,-2.0591,11.618
2026-07-21T16:19:47.951,5.5645,-1.9808,11.853
2026-07-21T16:19:47.951,5.5645,-2.0787,12.1076
2026-07-21T16:19:47.959,5.5645,-2.0787,12.4404
2026-07-21T16:19:47.959,5.5645,-2.0787,12.7146
2026-07-21T16:19:47.975,5.5796,-2.0004,12.8516
2026-07-21T16:19:47.990,5.6111,-2.0395,12.8516
2026-07-21T16:19:48.006,5.6111,-1.9808,12.9495
2026-07-21T16:19:48.007,5.6268,-2.0395,13.0083
2026-07-21T16:19:48.022,5.6268,-2.0004,13.067
2026-07-21T16:19:48.022,5.6268,-2.1179,13.1258
2026-07-21T16:19:48.054,5.6744,-1.9612,13.1062
2026-07-21T16:19:48.054,5.6744,-2.0591,13.0279
2026-07-21T16:19:48.054,5.6744,-2.02,13.0279
2026-07-21T16:19:48.069,5.6744,-1.9612,13.1062
2026-07-21T16:19:48.069,5.6744,-1.922,13.1649
2026-07-21T16:19:48.085,5.6951,-2.0004,13.1845
2026-07-21T16:19:48.103,5.7223,-1.9416,13.1453
2026-07-21T16:19:48.103,5.7223,-1.8241,12.9104
2026-07-21T16:19:48.117,5.7223,-1.9025,12.5775
2026-07-21T16:19:48.117,5.7223,-1.922,12.0684
2026-07-21T16:19:48.138,5.738,-1.8633,11.4222
2026-07-21T16:19:48.149,5.7694,-1.9025,10.5803
2026-07-21T16:19:48.151,5.7694,-1.9416,9.66
2026-07-21T16:19:48.165,5.7851,-1.8633,8.5047
2026-07-21T16:19:48.181,5.7851,-1.785,7.3103
2026-07-21T16:19:48.181,5.7851,-1.922,6.3508
2026-07-21T16:19:48.203,5.8331,-1.8437,5.3718
2026-07-21T16:19:48.212,5.8331,-1.8633,4.3732
2026-07-21T16:19:48.212,5.8331,-1.785,3.5704
2026-07-21T16:19:48.228,5.8488,-1.7067,2.6892
2026-07-21T16:19:48.228,5.8488,-1.6088,1.9647
2026-07-21T16:19:48.245,5.8645,-1.5696,1.3577
2026-07-21T16:19:48.260,5.8959,-1.4521,0.8878
2026-07-21T16:19:48.276,5.9116,-1.3934,0.6724
2026-07-21T16:19:48.276,5.9116,-1.4521,0.457
2026-07-21T16:19:48.291,5.9273,-1.3738,0.2612
2026-07-21T16:19:48.291,5.9273,-1.3346,0.1241
2026-07-21T16:19:48.307,5.9273,-1.3934,-0.0521
2026-07-21T16:19:48.323,5.9603,-1.3738,-0.1108
2026-07-21T16:19:48.339,5.9748,-1.4129,-0.15
2026-07-21T16:19:48.339,5.9748,-1.3346,-0.2283
2026-07-21T16:19:48.339,5.9748,-1.3542,-0.3066
2026-07-21T16:19:48.370,5.9748,-1.2955,-0.3654
2026-07-21T16:19:48.370,5.9748,-1.2955,-0.4437
2026-07-21T16:19:48.370,5.9905,-1.2955,-0.4241
2026-07-21T16:19:48.403,6.0224,-1.315,-0.5024
2026-07-21T16:19:48.403,6.0224,-1.3542,-0.5024
2026-07-21T16:19:48.403,6.0224,-1.3738,-0.5612
2026-07-21T16:19:48.417,6.0224,-1.315,-0.522
2026-07-21T16:19:48.417,6.0224,-1.3346,-0.6199
2026-07-21T16:19:48.433,6.0392,-1.2955,-0.5808
2026-07-21T16:19:48.453,6.0704,-1.315,-0.6199
2026-07-21T16:19:48.465,6.0704,-1.2955,-0.5416
2026-07-21T16:19:48.465,6.0704,-1.2955,-0.522
2026-07-21T16:19:48.481,6.0704,-1.315,-0.5416
2026-07-21T16:19:48.482,6.0704,-1.1976,-0.6003
2026-07-21T16:19:48.503,6.1178,-1.2759,-0.6003
2026-07-21T16:19:48.503,6.1178,-1.3542,-0.6199
2026-07-21T16:19:48.513,6.1178,-1.2367,-0.6003
2026-07-21T16:19:48.529,6.1178,-1.315,-0.5808
2026-07-21T16:19:48.553,6.1603,-1.2759,-0.5416
2026-07-21T16:19:48.553,6.1603,-1.3542,-0.6003
2026-07-21T16:19:48.561,6.1653,-1.315,-0.5808
2026-07-21T16:19:48.561,6.1653,-1.3542,-0.6395
2026-07-21T16:19:48.576,6.1968,-1.3542,-0.6199
2026-07-21T16:19:48.593,6.2104,-1.3738,-0.6395
2026-07-21T16:19:48.593,6.2104,-1.5304,-0.6199
2026-07-21T16:19:48.608,6.2125,-1.5304,-0.6199
2026-07-21T16:19:48.608,6.2225,-1.5109,-0.6199
2026-07-21T16:19:48.639,6.2564,-1.55,-0.6591
2026-07-21T16:19:48.639,6.2605,-1.6088,-0.6395
2026-07-21T16:19:48.639,6.2605,-1.5304,-0.522
2026-07-21T16:19:48.655,6.2605,-1.6088,-0.7178
2026-07-21T16:19:48.665,6.2605,-1.6871,-0.5612
2026-07-21T16:19:48.687,6.292,-1.6088,-0.7374
2026-07-21T16:19:48.687,6.292,-1.6675,-0.6591
2026-07-21T16:19:48.699,6.3107,-1.6675,-0.6199
2026-07-21T16:19:48.703,6.3107,-1.6479,-0.6787
2026-07-21T16:19:48.719,6.3107,-1.55,-0.6003
2026-07-21T16:19:48.719,6.3394,-1.4913,-0.7178
2026-07-21T16:19:48.735,6.3394,-1.55,-0.6395
2026-07-21T16:19:48.750,6.3551,-1.5696,-0.6982
2026-07-21T16:19:48.753,6.3608,-1.4913,-0.6591
2026-07-21T16:19:48.782,6.3865,-1.5304,-0.5612
2026-07-21T16:19:48.782,6.3865,-1.5304,-0.6787
2026-07-21T16:19:48.782,6.3865,-1.4717,-0.6787
2026-07-21T16:19:48.798,6.4023,-1.55,-0.7178
2026-07-21T16:19:48.813,6.4344,-1.4325,-0.6982
2026-07-21T16:19:48.829,6.4344,-1.4325,-0.6591
2026-07-21T16:19:48.829,6.4344,-1.55,-0.6395
2026-07-21T16:19:48.845,6.4344,-1.4913,-0.6003
2026-07-21T16:19:48.845,6.4501,-1.4325,-0.6591
2026-07-21T16:19:48.877,6.4817,-1.4521,-0.6591
2026-07-21T16:19:48.877,6.4817,-1.4717,-0.6787
2026-07-21T16:19:48.877,6.4817,-1.4325,-0.6591
2026-07-21T16:19:48.877,6.4817,-1.5304,-0.6199
2026-07-21T16:19:48.904,6.5131,-1.5109,-0.6395
2026-07-21T16:19:48.909,6.5131,-1.4325,-0.7374
2026-07-21T16:19:48.909,6.5131,-1.4129,-0.7374
2026-07-21T16:19:48.924,6.5288,-1.4717,-0.6199
2026-07-21T16:19:48.924,6.5288,-1.4129,-0.6003
2026-07-21T16:19:48.940,6.5612,-1.4521,-0.7178
2026-07-21T16:19:48.956,6.5612,-1.5109,-0.6395
2026-07-21T16:19:48.971,6.5612,-1.4717,-0.5612
2026-07-21T16:19:48.971,6.5762,-1.4521,-0.6395
2026-07-21T16:19:49.004,6.608,-1.4913,-0.6982
2026-07-21T16:19:49.004,6.6116,-1.5109,-0.5808
2026-07-21T16:19:49.004,6.6116,-1.3346,-0.6982
2026-07-21T16:19:49.019,6.6116,-1.4521,-0.6395
2026-07-21T16:19:49.036,6.6399,-1.5109,-0.6787
2026-07-21T16:19:49.036,6.6399,-1.4717,-0.6199
2026-07-21T16:19:49.036,6.6557,-1.4717,-0.6787
2026-07-21T16:19:49.054,6.6613,-1.5696,-0.5416
2026-07-21T16:19:49.067,6.6873,-1.4913,-0.6591
2026-07-21T16:19:49.083,6.6873,-1.4913,-0.6982
2026-07-21T16:19:49.083,6.6873,-1.5304,-0.7178
2026-07-21T16:19:49.098,6.6873,-1.4717,-0.6787
2026-07-21T16:19:49.114,6.7344,-1.5109,-0.7178
2026-07-21T16:19:49.114,6.7344,-1.4129,-0.6982
2026-07-21T16:19:49.130,6.7344,-1.4913,-0.6982
2026-07-21T16:19:49.130,6.7344,-1.5109,-0.6787
2026-07-21T16:19:49.146,6.7664,-1.5109,-0.757
2026-07-21T16:19:49.161,6.7664,-1.4325,-0.6591
2026-07-21T16:19:49.161,6.7821,-1.4913,-0.7178
2026-07-21T16:19:49.177,6.7821,-1.5109,-0.6395
2026-07-21T16:19:49.177,6.7821,-1.4913,-0.6395
2026-07-21T16:19:49.194,6.8135,-1.4717,-0.7178
2026-07-21T16:19:49.209,6.8135,-1.4717,-0.6982
2026-07-21T16:19:49.209,6.8135,-1.5304,-0.6787
2026-07-21T16:19:49.225,6.8135,-1.4717,-0.6591
2026-07-21T16:19:49.256,6.8612,-1.3934,-0.6395
2026-07-21T16:19:49.256,6.8612,-1.4717,-0.6591
2026-07-21T16:19:49.256,6.8612,-1.4717,-0.6199
2026-07-21T16:19:49.256,6.8612,-1.4325,-0.6395
2026-07-21T16:19:49.288,6.8925,-1.4717,-0.6787
2026-07-21T16:19:49.288,6.8925,-1.4717,-0.6199
2026-07-21T16:19:49.288,6.8925,-1.4521,-0.6395
2026-07-21T16:19:49.304,6.9093,-1.5109,-0.7178
2026-07-21T16:19:49.335,6.9401,-1.4717,-0.6199
2026-07-21T16:19:49.335,6.9401,-1.4325,-0.6003
2026-07-21T16:19:49.335,6.9401,-1.4717,-0.6787
2026-07-21T16:19:49.352,6.9401,-1.5696,-0.6199
2026-07-21T16:19:49.367,6.9716,-1.4129,-0.6395
2026-07-21T16:19:49.367,6.9716,-1.4913,-0.6982
2026-07-21T16:19:49.367,6.9716,-1.5304,-0.6003
2026-07-21T16:19:49.383,6.9873,-1.4521,-0.6395
2026-07-21T16:19:49.414,7.0188,-1.4521,-0.6003
2026-07-21T16:19:49.414,7.0188,-1.5304,-0.6199
2026-07-21T16:19:49.414,7.0188,-1.4717,-0.5416
2026-07-21T16:19:49.430,7.0346,-1.4521,-0.6003
2026-07-21T16:19:49.446,7.0661,-1.4913,-0.6591
2026-07-21T16:19:49.461,7.0661,-1.4521,-0.6395
2026-07-21T16:19:49.461,7.0661,-1.4913,-0.6395
2026-07-21T16:19:49.461,7.0819,-1.4913,-0.6003
2026-07-21T16:19:49.477,7.0819,-1.55,-0.6787
2026-07-21T16:19:49.477,7.1133,-1.4521,-0.6591
2026-07-21T16:19:49.509,7.1195,-1.4913,-0.7178
2026-07-21T16:19:49.509,7.1195,-1.5304,-0.6199
2026-07-21T16:19:49.525,7.129,-1.4717,-0.6003
2026-07-21T16:19:49.525,7.1614,-1.4325,-0.6591
2026-07-21T16:19:49.556,7.1614,-1.5109,-0.6199
2026-07-21T16:19:49.556,7.1614,-1.55,-0.6787
2026-07-21T16:19:49.562,7.1614,-1.5304,-0.6003
2026-07-21T16:19:49.562,7.1765,-1.4717,-0.6003
2026-07-21T16:19:49.572,7.208,-1.5696,-0.6003
2026-07-21T16:19:49.587,7.208,-1.5109,-0.6199
2026-07-21T16:19:49.604,7.208,-1.4717,-0.6199
2026-07-21T16:19:49.604,7.2196,-1.5696,-0.6199
2026-07-21T16:19:49.619,7.2236,-1.5109,-0.6395
2026-07-21T16:19:49.635,7.2551,-1.5109,-0.6395
2026-07-21T16:19:49.651,7.2551,-1.5696,-0.6591
2026-07-21T16:19:49.651,7.2551,-1.4717,-0.6787
2026-07-21T16:19:49.651,7.2617,-1.5304,-0.6199
2026-07-21T16:19:49.666,7.287,-1.6088,-0.7178
2026-07-21T16:19:49.682,7.287,-1.6283,-0.6787
2026-07-21T16:19:49.682,7.287,-1.4913,-0.6395
2026-07-21T16:19:49.698,7.3027,-1.5892,-0.6787
2026-07-21T16:19:49.704,7.3027,-1.55,-0.6395
2026-07-21T16:19:49.714,7.3346,-1.4913,-0.6395
2026-07-21T16:19:49.730,7.3346,-1.5696,-0.6199
2026-07-21T16:19:49.730,7.3346,-1.5696,-0.6199
2026-07-21T16:19:49.745,7.3504,-1.4913,-0.6003
2026-07-21T16:19:49.777,7.3818,-1.5892,-0.6003
2026-07-21T16:19:49.777,7.3818,-1.6283,-0.6003
2026-07-21T16:19:49.777,7.3818,-1.5696,-0.5416
2026-07-21T16:19:49.777,7.3975,-1.5892,-0.5612
2026-07-21T16:19:49.824,7.4295,-1.6088,-0.6395
2026-07-21T16:19:49.824,7.4295,-1.6088,-0.5612
2026-07-21T16:19:49.824,7.4295,-1.5892,-0.6003
2026-07-21T16:19:49.824,7.4295,-1.6479,-0.5416
2026-07-21T16:19:49.840,7.4295,-1.6479,-0.5808
2026-07-21T16:19:49.869,7.4622,-1.5696,-0.6003
2026-07-21T16:19:49.871,7.4622,-1.5892,-0.6395
2026-07-21T16:19:49.872,7.4759,-1.5892,-0.5808
2026-07-21T16:19:49.872,7.4759,-1.5109,-0.5808
2026-07-21T16:19:49.887,7.5074,-1.5892,-0.6591
2026-07-21T16:19:49.905,7.5074,-1.6283,-0.5612
2026-07-21T16:19:49.905,7.5074,-1.5304,-0.6395
2026-07-21T16:19:49.919,7.521,-1.5696,-0.6787
2026-07-21T16:19:49.934,7.5547,-1.5696,-0.6982
2026-07-21T16:19:49.950,7.5547,-1.6088,-0.6395
2026-07-21T16:19:49.950,7.5547,-1.5109,-0.6787
2026-07-21T16:19:49.964,7.5623,-1.5892,-0.6591
2026-07-21T16:19:49.966,7.5871,-1.55,-0.7178
2026-07-21T16:19:49.982,7.6022,-1.5109,-0.6395
2026-07-21T16:19:49.982,7.6022,-1.55,-0.6787
2026-07-21T16:19:49.997,7.6022,-1.5109,-0.7766
2026-07-21T16:19:50.005,7.6336,-1.4717,-0.6199
2026-07-21T16:19:50.030,7.6493,-1.5109,-0.6787
2026-07-21T16:19:50.030,7.6493,-1.6088,-0.6982
2026-07-21T16:19:50.030,7.6493,-1.5304,-0.5808
2026-07-21T16:19:50.045,7.6493,-1.5304,-0.7374
2026-07-21T16:19:50.076,7.6965,-1.5696,-0.6591
2026-07-21T16:19:50.076,7.6965,-1.5696,-0.6787
2026-07-21T16:19:50.076,7.6965,-1.55,-0.6395
2026-07-21T16:19:50.076,7.6965,-1.5696,-0.6787
2026-07-21T16:19:50.092,7.6965,-1.6675,-0.6003
2026-07-21T16:19:50.108,7.7442,-1.5304,-0.6395
2026-07-21T16:19:50.123,7.7442,-1.6479,-0.6199
2026-07-21T16:19:50.123,7.7442,-1.6283,-0.4829
2026-07-21T16:19:50.139,7.7626,-1.6088,-0.6199
2026-07-21T16:19:50.139,7.7626,-1.6088,-0.5612
2026-07-21T16:19:50.155,7.7626,-1.5696,-0.5808
2026-07-21T16:19:50.171,7.7913,-1.5696,-0.5612
2026-07-21T16:19:50.187,7.8071,-1.6479,-0.5416
2026-07-21T16:19:50.187,7.8071,-1.6479,-0.5612
2026-07-21T16:19:50.187,7.8071,-1.6675,-0.5612
2026-07-21T16:19:50.205,7.8071,-1.5696,-0.5612
2026-07-21T16:19:50.234,7.8388,-1.6283,-0.5808
2026-07-21T16:19:50.234,7.8388,-1.6088,-0.5808
2026-07-21T16:19:50.234,7.8388,-1.5304,-0.5808
2026-07-21T16:19:50.250,7.8545,-1.55,-0.4829
2026-07-21T16:19:50.250,7.8626,-1.6283,-0.522
2026-07-21T16:19:50.281,7.8862,-1.5696,-0.522
2026-07-21T16:19:50.281,7.8862,-1.5696,-0.6003
2026-07-21T16:19:50.281,7.8862,-1.5304,-0.5416
2026-07-21T16:19:50.297,7.902,-1.5696,-0.4829
2026-07-21T16:19:50.305,7.902,-1.55,-0.5808
2026-07-21T16:19:50.329,7.9349,-1.5696,-0.5416
2026-07-21T16:19:50.329,7.9349,-1.4325,-0.5416
2026-07-21T16:19:50.329,7.9349,-1.5304,-0.5612
2026-07-21T16:19:50.345,7.9495,-1.5304,-0.6003
2026-07-21T16:19:50.378,7.9808,-1.5892,-0.5808
2026-07-21T16:19:50.378,7.9808,-1.4521,-0.5612
2026-07-21T16:19:50.378,7.9808,-1.4717,-0.5416
2026-07-21T16:19:50.392,7.9808,-1.5696,-0.5808
2026-07-21T16:19:50.392,8.0123,-1.55,-0.6199
2026-07-21T16:19:50.408,8.0229,-1.5109,-0.5612
2026-07-21T16:19:50.408,8.0229,-1.5892,-0.522
2026-07-21T16:19:50.424,8.028,-1.5109,-0.6003
2026-07-21T16:19:50.455,8.0629,-1.5696,-0.5416
2026-07-21T16:19:50.455,8.0629,-1.5892,-0.5612
2026-07-21T16:19:50.455,8.0629,-1.5892,-0.522
2026-07-21T16:19:50.471,8.0754,-1.5892,-0.5416
2026-07-21T16:19:50.489,8.1073,-1.6871,-0.5808
2026-07-21T16:19:50.489,8.1073,-1.55,-0.522
2026-07-21T16:19:50.502,8.1073,-1.5696,-0.5416
2026-07-21T16:19:50.506,8.1073,-1.6283,-0.6003
2026-07-21T16:19:50.518,8.1073,-1.5892,-0.5024
2026-07-21T16:19:50.535,8.1391,-1.5696,-0.5416
2026-07-21T16:19:50.535,8.1391,-1.5892,-0.5024
2026-07-21T16:19:50.550,8.1548,-1.6283,-0.5808
2026-07-21T16:19:50.550,8.1548,-1.6675,-0.522
2026-07-21T16:19:50.566,8.1869,-1.6088,-0.4829
2026-07-21T16:19:50.582,8.1869,-1.6283,-0.6003
2026-07-21T16:19:50.582,8.1869,-1.5696,-0.5612
2026-07-21T16:19:50.597,8.2027,-1.5696,-0.5808
2026-07-21T16:19:50.615,8.2341,-1.6479,-0.5612
2026-07-21T16:19:50.630,8.2341,-1.6479,-0.5612
2026-07-21T16:19:50.630,8.2341,-1.5304,-0.6003
2026-07-21T16:19:50.630,8.2341,-1.5696,-0.6003
2026-07-21T16:19:50.645,8.2498,-1.5892,-0.522
2026-07-21T16:19:50.661,8.2812,-1.4913,-0.5024
2026-07-21T16:19:50.677,8.2812,-1.5109,-0.5024
2026-07-21T16:19:50.677,8.2812,-1.6479,-0.5416
2026-07-21T16:19:50.677,8.2812,-1.55,-0.5612
2026-07-21T16:19:50.708,8.3289,-1.5696,-0.5416
2026-07-21T16:19:50.708,8.3289,-1.55,-0.4045
2026-07-21T16:19:50.708,8.3289,-1.4717,-0.0717
2026-07-21T16:19:50.724,8.3446,-1.3738,0.4374
2026-07-21T16:19:50.740,8.3446,-1.3542,1.2011
2026-07-21T16:19:50.755,8.3761,-1.2955,2.2389
2026-07-21T16:19:50.772,8.3918,-1.2367,3.3158
2026-07-21T16:19:50.772,8.3918,-1.2563,4.4319
2026-07-21T16:19:50.787,8.4079,-1.2759,5.4109
2026-07-21T16:19:50.787,8.4079,-1.2563,6.625
2026-07-21T16:19:50.806,8.4417,-1.3934,8.0152
2026-07-21T16:19:50.806,8.4557,-1.4521,9.7775
2026-07-21T16:19:50.819,8.4639,-1.5696,11.6768
2026-07-21T16:19:50.834,8.4714,-1.5696,13.6349
2026-07-21T16:19:50.834,8.4714,-1.5696,15.5929
2026-07-21T16:19:50.851,8.4714,-1.4521,17.3944
2026-07-21T16:19:50.851,8.4874,-1.55,19.0
2026-07-21T16:19:50.884,8.525,-1.5696,20.3511
2026-07-21T16:19:50.884,8.525,-1.3934,21.5259
2026-07-21T16:19:50.884,8.525,-1.3346,22.3091
2026-07-21T16:19:50.898,8.5346,-1.4129,22.8966
2026-07-21T16:19:50.930,8.5503,-1.3346,23.4057
2026-07-21T16:19:50.930,8.5503,-1.2759,24.1889
2026-07-21T16:19:50.930,8.5503,-1.0997,25.1288
2026-07-21T16:19:50.946,8.5819,-1.0213,26.0491
2026-07-21T16:19:50.962,8.5819,-0.6885,26.754
2026-07-21T16:19:50.968,8.5819,-0.6493,27.2239
2026-07-21T16:19:50.977,8.5977,-0.5514,27.5176
2026-07-21T16:19:50.977,8.5977,-0.5514,27.4393
2026-07-21T16:19:50.993,8.5977,-0.4927,27.2631
2026-07-21T16:19:51.009,8.6296,-0.5906,27.0477
2026-07-21T16:19:51.009,8.6453,-0.4731,26.9106
2026-07-21T16:19:51.009,8.6453,-0.4927,26.8127
2026-07-21T16:19:51.025,8.6453,-0.5122,26.9498
2026-07-21T16:19:51.040,8.6453,-0.5318,26.9498
2026-07-21T16:19:51.040,8.6642,-0.4535,26.5582
2026-07-21T16:19:51.057,8.6925,-0.5318,25.9512
2026-07-21T16:19:51.072,8.6925,-0.5514,25.07
2026-07-21T16:19:51.072,8.6925,-0.5906,23.8952
2026-07-21T16:19:51.088,8.7082,-0.7276,22.3679
2026-07-21T16:19:51.104,8.7259,-0.8451,20.3511
2026-07-21T16:19:51.107,8.7561,-0.9822,18.1972
2026-07-21T16:19:51.119,8.7642,-1.2171,16.3762
2026-07-21T16:19:51.135,8.7718,-1.4129,15.1622
2026-07-21T16:19:51.135,8.7718,-1.4521,14.3202
2026-07-21T16:19:51.151,8.7718,-1.5892,13.5957
2026-07-21T16:19:51.167,8.7875,-1.7262,12.8125
2026-07-21T16:19:51.169,8.7875,-1.7262,12.1467
2026-07-21T16:19:51.183,8.8261,-1.9416,11.2656
2026-07-21T16:19:51.199,8.8347,-2.02,10.3649
2026-07-21T16:19:51.199,8.8347,-2.2353,9.2292
2026-07-21T16:19:51.207,8.8504,-2.2158,7.7998
2026-07-21T16:19:51.214,8.8504,-2.2353,6.2725
2026-07-21T16:19:51.230,8.8663,-2.2353,4.9018
2026-07-21T16:19:51.230,8.8663,-2.2549,3.7857
2026-07-21T16:19:51.269,8.8978,-2.157,2.9438
2026-07-21T16:19:51.269,8.9135,-2.1962,2.3368
2026-07-21T16:19:51.269,8.9135,-2.157,1.9452
2026-07-21T16:19:51.277,8.9135,-2.1374,1.6123
2026-07-21T16:19:51.293,8.9266,-2.1766,1.3773
2026-07-21T16:19:51.309,8.9297,-2.2549,1.064
2026-07-21T16:19:51.309,8.9297,-2.157,0.829
2026-07-21T16:19:51.325,8.9772,-2.1962,0.5941
2026-07-21T16:19:51.325,8.9772,-2.2158,0.3787
2026-07-21T16:19:51.340,8.9772,-2.2158,0.2025
2026-07-21T16:19:51.340,8.9932,-2.1962,0.1829
2026-07-21T16:19:51.369,8.9932,-2.2549,-0.0325
2026-07-21T16:19:51.369,8.9932,-2.1179,-0.15
2026-07-21T16:19:51.372,9.009,-2.1766,-0.1696
2026-07-21T16:19:51.388,9.0404,-2.1374,-0.1304
2026-07-21T16:19:51.388,9.0404,-2.1179,-0.1108
2026-07-21T16:19:51.407,9.0404,-2.1179,-0.0912
2026-07-21T16:19:51.420,9.0404,-2.157,-0.1892
2026-07-21T16:19:51.436,9.0561,-2.0787,-0.1696
2026-07-21T16:19:51.436,9.0561,-2.0591,-0.3066
2026-07-21T16:19:51.452,9.0648,-2.157,-0.2087
2026-07-21T16:19:51.467,9.088,-2.1179,-0.2087
2026-07-21T16:19:51.470,9.1011,-2.02,-0.1892
2026-07-21T16:19:51.470,9.1011,-2.0787,-0.2871
2026-07-21T16:19:51.483,9.1036,-2.1179,-0.1892
2026-07-21T16:19:51.499,9.1036,-2.0787,-0.2087
2026-07-21T16:19:51.507,9.1354,-2.0591,-0.1892
2026-07-21T16:19:51.531,9.1354,-2.0983,-0.2283
2026-07-21T16:19:51.531,9.1354,-2.0004,-0.15
2026-07-21T16:19:51.543,9.1511,-2.0591,-0.15
2026-07-21T16:19:51.546,9.1511,-2.0787,-0.1304
2026-07-21T16:19:51.546,9.1511,-2.0787,-0.2087
2026-07-21T16:19:51.570,9.1836,-2.0591,-0.2087
2026-07-21T16:19:51.578,9.1836,-2.0787,-0.1892
2026-07-21T16:19:51.578,9.1982,-2.0591,-0.2479
2026-07-21T16:19:51.594,9.1982,-2.02,-0.1304
2026-07-21T16:19:51.609,9.2298,-2.0591,-0.15
2026-07-21T16:19:51.626,9.2298,-2.0983,-0.15
2026-07-21T16:19:51.626,9.2298,-2.02,-0.15
2026-07-21T16:19:51.641,9.2455,-2.0395,-0.15
2026-07-21T16:19:51.641,9.2455,-2.02,-0.15
2026-07-21T16:19:51.672,9.2774,-2.0004,-0.3654
2026-07-21T16:19:51.672,9.2774,-1.922,-0.1696
2026-07-21T16:19:51.672,9.2774,-2.0395,-0.2087
2026-07-21T16:19:51.688,9.2774,-1.9808,-0.1304
2026-07-21T16:19:51.704,9.3088,-1.9416,-0.2087
2026-07-21T16:19:51.720,9.3247,-2.0004,-0.2087
2026-07-21T16:19:51.720,9.3247,-1.9416,-0.2087
2026-07-21T16:19:51.720,9.3283,-2.0004,-0.1892
2026-07-21T16:19:51.736,9.3565,-1.9416,-0.1696
2026-07-21T16:19:51.751,9.3565,-2.02,-0.15
2026-07-21T16:19:51.751,9.3565,-1.922,-0.1304
2026-07-21T16:19:51.771,9.3647,-1.922,-0.1892
2026-07-21T16:19:51.783,9.4038,-1.9808,-0.1304
2026-07-21T16:19:51.799,9.4038,-1.9025,-0.1304
2026-07-21T16:19:51.799,9.4038,-1.922,-0.2087
2026-07-21T16:19:51.807,9.4196,-1.8633,-0.2283
2026-07-21T16:19:51.815,9.4526,-1.922,-0.2283
2026-07-21T16:19:51.831,9.4526,-1.922,-0.2479
2026-07-21T16:19:51.831,9.4526,-1.9025,-0.2675
2026-07-21T16:19:51.846,9.4526,-1.9025,-0.2283
2026-07-21T16:19:51.862,9.4672,-1.8633,-0.2675
2026-07-21T16:19:51.871,9.499,-1.8241,-0.2675
2026-07-21T16:19:51.878,9.499,-1.9808,-0.2675
2026-07-21T16:19:51.878,9.499,-1.8241,-0.1892
2026-07-21T16:19:51.895,9.5111,-1.9025,-0.1696
2026-07-21T16:19:51.910,9.5147,-1.8829,-0.0521
2026-07-21T16:19:51.926,9.5465,-1.8046,-0.0521
2026-07-21T16:19:51.926,9.5465,-1.7067,-0.0129
2026-07-21T16:19:51.926,9.5465,-1.785,-0.1108
2026-07-21T16:19:51.954,9.5649,-1.7067,-0.0717
2026-07-21T16:19:51.957,9.5649,-1.8633,-0.2479
2026-07-21T16:19:51.989,9.5941,-1.8437,-0.2479
2026-07-21T16:19:51.989,9.6099,-1.785,-0.2283
2026-07-21T16:19:51.989,9.6114,-1.6675,-0.2087
2026-07-21T16:19:52.005,9.6114,-1.6871,-0.2479
2026-07-21T16:19:52.008,9.6114,-1.7067,-0.2087
2026-07-21T16:19:52.037,9.6417,-1.6088,-0.2283
2026-07-21T16:19:52.037,9.6417,-1.6088,-0.2087
2026-07-21T16:19:52.037,9.6417,-1.6283,-0.2479
2026-07-21T16:19:52.037,9.6574,-1.5892,-0.2087
2026-07-21T16:19:52.054,9.665,-1.6088,-0.2283
2026-07-21T16:19:52.072,9.6952,-1.6283,-0.2871
2026-07-21T16:19:52.084,9.6952,-1.5696,-0.2675
2026-07-21T16:19:52.084,9.6952,-1.4913,-0.3066
2026-07-21T16:19:52.100,9.7048,-1.55,-0.3654
2026-07-21T16:19:52.116,9.7362,-1.55,-0.3458
2026-07-21T16:19:52.131,9.7362,-1.5109,-0.4045
2026-07-21T16:19:52.131,9.7362,-1.5109,-0.2479
2026-07-21T16:19:52.138,9.7362,-1.5109,-0.3066
2026-07-21T16:19:52.147,9.7519,-1.4913,-0.2675
2026-07-21T16:19:52.163,9.7834,-1.5304,-0.2479
2026-07-21T16:19:52.179,9.7834,-1.4717,-0.1696
2026-07-21T16:19:52.179,9.7834,-1.3542,-0.2087
2026-07-21T16:19:52.179,9.7834,-1.3934,-0.1696
2026-07-21T16:19:52.195,9.8149,-1.4129,-0.1892
2026-07-21T16:19:52.226,9.8304,-1.4129,-0.1304
2026-07-21T16:19:52.226,9.8304,-1.4129,-0.2871
2026-07-21T16:19:52.226,9.8304,-1.4521,-0.2283
2026-07-21T16:19:52.242,9.8304,-1.3934,-0.1892
2026-07-21T16:19:52.258,9.865,-1.3934,-0.1696
2026-07-21T16:19:52.258,9.865,-1.3738,-0.1892
2026-07-21T16:19:52.273,9.865,-1.3738,-0.15
2026-07-21T16:19:52.273,9.865,-1.3934,-0.1696
2026-07-21T16:19:52.305,9.8933,-1.1976,-0.1892
2026-07-21T16:19:52.305,9.8933,-1.3934,-0.2087
2026-07-21T16:19:52.308,9.9091,-1.315,-0.1304
2026-07-21T16:19:52.320,9.9405,-1.3346,-0.2087
2026-07-21T16:19:52.336,9.9405,-1.3934,-0.1108
2026-07-21T16:19:52.336,9.9405,-1.315,-0.15
2026-07-21T16:19:52.352,9.9405,-1.315,-0.1304
2026-07-21T16:19:52.367,9.9718,-1.3934,-0.1892
2026-07-21T16:19:52.374,9.9718,-1.2759,-0.1108
2026-07-21T16:19:52.383,9.9718,-1.2955,-0.0717
2026-07-21T16:19:52.383,9.9881,-1.3738,-0.1696
2026-07-21T16:19:52.399,10.0194,-1.3542,-0.2087
2026-07-21T16:19:52.414,10.0194,-1.3542,-0.15
2026-07-21T16:19:52.414,10.031,-1.3738,-0.2871
2026-07-21T16:19:52.431,10.0351,-1.3934,-0.2087
2026-07-21T16:19:52.431,10.0665,-1.315,-0.1696
2026-07-21T16:19:52.462,10.0665,-1.3542,-0.1892
2026-07-21T16:19:52.462,10.0665,-1.3346,-0.1892
2026-07-21T16:19:52.474,10.0665,-1.315,-0.1108
2026-07-21T16:19:52.478,10.0824,-1.3542,-0.2087
2026-07-21T16:19:52.509,10.1143,-1.3934,-0.15
2026-07-21T16:19:52.509,10.1143,-1.315,-0.15
2026-07-21T16:19:52.509,10.1143,-1.2563,-0.1696
2026-07-21T16:19:52.509,10.1143,-1.3934,-0.15
2026-07-21T16:19:52.525,10.1466,-1.3346,-0.1304
2026-07-21T16:19:52.557,10.1622,-1.2759,-0.1304
2026-07-21T16:19:52.557,10.1622,-1.2955,-0.15
2026-07-21T16:19:52.557,10.1658,-1.3738,-0.15
2026-07-21T16:19:52.557,10.1658,-1.315,-0.1892
2026-07-21T16:19:52.589,10.194,-1.2759,-0.1696
2026-07-21T16:19:52.589,10.2097,-1.3738,-0.1696
2026-07-21T16:19:52.605,10.2097,-1.315,-0.15
2026-07-21T16:19:52.608,10.2097,-1.3542,-0.1696
2026-07-21T16:19:52.620,10.2411,-1.3542,-0.1696
2026-07-21T16:19:52.637,10.2568,-1.3738,-0.1696
2026-07-21T16:19:52.637,10.2568,-1.3542,-0.2087
2026-07-21T16:19:52.652,10.266,-1.3738,-0.2283
2026-07-21T16:19:52.652,10.266,-1.3346,-0.1304
2026-07-21T16:19:52.684,10.304,-1.3346,-0.2087
2026-07-21T16:19:52.684,10.304,-1.3346,-0.2087
2026-07-21T16:19:52.684,10.304,-1.4129,-0.15
2026-07-21T16:19:52.699,10.304,-1.3542,-0.2283
2026-07-21T16:19:52.709,10.304,-1.4129,-0.2479
2026-07-21T16:19:52.715,10.3512,-1.4521,-0.2087
2026-07-21T16:19:52.731,10.3512,-1.4129,-0.2087
2026-07-21T16:19:52.731,10.3512,-1.3346,-0.2675
2026-07-21T16:19:52.747,10.3512,-1.4521,-0.2675
2026-07-21T16:19:52.762,10.3663,-1.3738,-0.2283
2026-07-21T16:19:52.778,10.3979,-1.3542,-0.2283
2026-07-21T16:19:52.794,10.3979,-1.3738,-0.1892
2026-07-21T16:19:52.794,10.3979,-1.3934,-0.2283
2026-07-21T16:19:52.794,10.3979,-1.3934,-0.2675
2026-07-21T16:19:52.809,10.4176,-1.3738,-0.2871
2026-07-21T16:19:52.825,10.4451,-1.4325,-0.2675
2026-07-21T16:19:52.841,10.4451,-1.315,-0.1892
2026-07-21T16:19:52.841,10.4451,-1.3738,-0.2479
2026-07-21T16:19:52.841,10.4608,-1.4129,-0.1696
2026-07-21T16:19:52.862,10.4626,-1.3738,-0.2479
2026-07-21T16:19:52.888,10.4926,-1.4325,-0.2087
2026-07-21T16:19:52.888,10.4926,-1.4129,-0.1892
2026-07-21T16:19:52.888,10.4926,-1.3934,-0.1696
2026-07-21T16:19:52.903,10.5084,-1.315,-0.15
2026-07-21T16:19:52.909,10.5399,-1.4325,-0.15
2026-07-21T16:19:52.935,10.5556,-1.3934,-0.0325
2026-07-21T16:19:52.935,10.5556,-1.3934,-0.1108
2026-07-21T16:19:52.935,10.5556,-1.4521,-0.1304
2026-07-21T16:19:52.951,10.5556,-1.4325,-0.0717
2026-07-21T16:19:52.951,10.6028,-1.4129,-0.0912
2026-07-21T16:19:52.983,10.6028,-1.55,0.0067
2026-07-21T16:19:52.983,10.6028,-1.55,-0.0521
2026-07-21T16:19:52.983,10.6185,-1.6088,0.0654
2026-07-21T16:19:52.998,10.6185,-1.6283,0.1241
2026-07-21T16:19:53.009,10.6353,-1.6675,0.2416
2026-07-21T16:19:53.014,10.6666,-1.6283,0.4766
2026-07-21T16:19:53.045,10.6815,-1.7262,0.829
2026-07-21T16:19:53.045,10.6815,-1.7262,1.2598
2026-07-21T16:19:53.045,10.6815,-1.8046,1.7885
2026-07-21T16:19:53.061,10.6973,-1.8437,2.3759
2026-07-21T16:19:53.061,10.6973,-1.8829,2.9438
2026-07-21T16:19:53.078,10.7445,-1.922,3.5312
2026-07-21T16:19:53.108,10.7602,-1.9612,4.1774
2026-07-21T16:19:53.108,10.7602,-1.9612,4.9018
2026-07-21T16:19:53.109,10.7668,-2.2353,5.8221
2026-07-21T16:19:53.124,10.7668,-2.2158,6.6445
2026-07-21T16:19:53.140,10.7759,-2.3724,7.604
2026-07-21T16:19:53.140,10.7759,-2.5095,8.4068
2026-07-21T16:19:53.156,10.7916,-2.4507,9.2879
2026-07-21T16:19:53.156,10.7916,-2.4507,9.8949
2026-07-21T16:19:53.187,10.8387,-2.5095,10.5803
2026-07-21T16:19:53.187,10.8387,-2.4507,11.2656
2026-07-21T16:19:53.187,10.8387,-2.4116,11.9509
2026-07-21T16:19:53.203,10.8387,-2.5291,12.4209
2026-07-21T16:19:53.209,10.8544,-2.4507,13.0866
2026-07-21T16:19:53.219,10.8671,-2.4311,13.5565
2026-07-21T16:19:53.234,10.8701,-2.4116,14.1635
2026-07-21T16:19:53.234,10.8701,-2.4116,14.6531
2026-07-21T16:19:53.266,10.9173,-2.3528,14.9664
2026-07-21T16:19:53.266,10.9173,-2.3528,15.1426
2026-07-21T16:19:53.266,10.9173,-2.3724,15.3384
2026-07-21T16:19:53.281,10.9173,-2.2745,15.495
2026-07-21T16:19:53.281,10.933,-2.2353,15.5538
2026-07-21T16:19:53.310,10.9346,-2.2549,15.8279
2026-07-21T16:19:53.313,10.9346,-2.2941,15.8671
2026-07-21T16:19:53.313,10.9491,-2.2353,16.0041
2026-07-21T16:19:53.328,10.981,-2.2549,16.0041
2026-07-21T16:19:53.344,10.981,-2.2353,15.9062
2026-07-21T16:19:53.344,10.981,-2.157,15.8867
2026-07-21T16:19:53.360,10.9967,-2.1962,15.8279
2026-07-21T16:19:53.360,10.9967,-2.1766,15.6713
2026-07-21T16:19:53.377,11.0135,-2.1179,15.4755
2026-07-21T16:19:53.392,11.0135,-2.2158,15.3776
2026-07-21T16:19:53.392,11.0442,-2.2353,15.2992
2026-07-21T16:19:53.410,11.0599,-2.1962,15.0838
2026-07-21T16:19:53.424,11.061,-2.157,14.8685
2026-07-21T16:19:53.424,11.0671,-2.1374,14.5943
2026-07-21T16:19:53.439,11.0671,-2.0591,14.4377
2026-07-21T16:19:53.455,11.0756,-2.157,14.1048
2026-07-21T16:19:53.456,11.0756,-2.2549,13.8698
2026-07-21T16:19:53.487,11.1241,-2.2158,13.8698
2026-07-21T16:19:53.487,11.1241,-2.1962,13.674
2026-07-21T16:19:53.487,11.1241,-2.2549,13.3999
2026-07-21T16:19:53.487,11.1352,-2.2745,13.3803
2026-07-21T16:19:53.510,11.1387,-2.1962,13.3803
2026-07-21T16:19:53.518,11.1387,-2.1766,13.4391
2026-07-21T16:19:53.534,11.1862,-2.2549,13.5565
2026-07-21T16:19:53.534,11.1862,-2.0983,13.5761
2026-07-21T16:19:53.550,11.1862,-2.2158,13.5174
2026-07-21T16:19:53.567,11.2019,-2.2353,13.3803
2026-07-21T16:19:53.567,11.2032,-2.1766,12.93
2026-07-21T16:19:53.581,11.2177,-2.2158,12.323
2026-07-21T16:19:53.581,11.2177,-2.2353,11.3635
2026-07-21T16:19:53.597,11.2355,-2.3137,10.3453
2026-07-21T16:19:53.629,11.2673,-2.3724,9.1509
2026-07-21T16:19:53.629,11.2673,-2.392,7.8977
2026-07-21T16:19:53.629,11.2814,-2.392,6.5466
2026-07-21T16:19:53.629,11.2971,-2.2549,5.0781
2026-07-21T16:19:53.646,11.2971,-2.2158,3.7662
2026-07-21T16:19:53.660,11.3129,-2.1374,2.6109
2026-07-21T16:19:53.660,11.3129,-1.9416,1.6319
2026-07-21T16:19:53.678,11.36,-1.8437,0.9074
2026-07-21T16:19:53.692,11.3677,-1.8046,0.4179
2026-07-21T16:19:53.692,11.3677,-1.6283,0.1829
2026-07-21T16:19:53.710,11.3757,-1.5696,-0.0521
2026-07-21T16:19:53.724,11.3757,-1.55,-0.1892
2026-07-21T16:19:53.724,11.3914,-1.4325,-0.2087
2026-07-21T16:19:53.740,11.3914,-1.3934,-0.3066
2026-07-21T16:19:53.756,11.3914,-1.4913,-0.2871
2026-07-21T16:19:53.756,11.4072,-1.4717,-0.3654
2026-07-21T16:19:53.771,11.4072,-1.4521,-0.3458
2026-07-21T16:19:53.787,11.4438,-1.4521,-0.2675
2026-07-21T16:19:53.787,11.4438,-1.4913,-0.1696
2026-07-21T16:19:53.803,11.4622,-1.4717,-0.0521
2026-07-21T16:19:53.810,11.4662,-1.5696,0.2612
2026-07-21T16:19:53.818,11.4827,-1.5892,0.7116
2026-07-21T16:19:53.834,11.4857,-1.6479,1.3186
2026-07-21T16:19:53.834,11.4884,-1.7067,1.9647
2026-07-21T16:19:53.850,11.5038,-1.7262,2.748
2026-07-21T16:19:53.882,11.5366,-1.9025,3.6095
2026-07-21T16:19:53.882,11.5366,-2.0395,4.3536
2026-07-21T16:19:53.882,11.5366,-2.0983,5.4501
2026-07-21T16:19:53.900,11.5522,-2.3137,6.7229
2026-07-21T16:19:53.904,11.5522,-2.392,8.0348
2026-07-21T16:19:53.927,11.5678,-2.4899,9.053
2026-07-21T16:19:53.927,11.5835,-2.4703,9.8362
2026-07-21T16:19:53.931,11.5835,-2.4507,10.4432
2026-07-21T16:19:53.946,11.5835,-2.4507,11.0894
2026-07-21T16:19:53.946,11.5993,-2.5095,11.5201
2026-07-21T16:19:53.979,11.6307,-2.4116,12.2251
2026-07-21T16:19:53.979,11.6368,-2.4899,12.8712
2026-07-21T16:19:53.979,11.6368,-2.4703,13.537
2026-07-21T16:19:53.995,11.6469,-2.4116,14.0461
2026-07-21T16:19:53.995,11.6469,-2.392,14.4573
2026-07-21T16:19:54.026,11.6628,-2.3137,14.8489
2026-07-21T16:19:54.026,11.6628,-2.3332,15.1622
2026-07-21T16:19:54.026,11.6679,-2.2745,15.2405
2026-07-21T16:19:54.042,11.6679,-2.2941,15.1622
2026-07-21T16:19:54.058,11.7099,-2.392,15.1034
2026-07-21T16:19:54.058,11.7099,-2.2941,15.0643
2026-07-21T16:19:54.073,11.7099,-2.2745,15.2405
2026-07-21T16:19:54.079,11.7099,-2.2549,15.4755
2026-07-21T16:19:54.105,11.7257,-2.1962,15.8279
2026-07-21T16:19:54.111,11.7257,-2.1766,16.1999
2026-07-21T16:19:54.111,11.7257,-2.2549,16.5132
2026-07-21T16:19:54.121,11.7413,-2.1374,16.944
2026-07-21T16:19:54.121,11.7681,-2.2158,17.3552
2026-07-21T16:19:54.138,11.7727,-2.157,17.7272
2026-07-21T16:19:54.153,11.7727,-2.2353,18.0993
2026-07-21T16:19:54.168,11.7884,-2.0787,18.6475
2026-07-21T16:19:54.168,11.7884,-2.1766,19.0783
2026-07-21T16:19:54.184,11.7884,-2.1374,19.5678
2026-07-21T16:19:54.200,11.8199,-2.0591,19.9595
2026-07-21T16:19:54.200,11.8199,-2.02,20.1553
2026-07-21T16:19:54.211,11.8376,-2.157,20.3706
2026-07-21T16:19:54.215,11.8376,-2.0983,20.586
2026-07-21T16:19:54.231,11.8517,-2.0983,20.7818
2026-07-21T16:19:54.231,11.8517,-2.1962,20.9777
2026-07-21T16:19:54.247,11.8836,-2.1374,21.2909
2026-07-21T16:19:54.263,11.8993,-2.0787,21.2322
2026-07-21T16:19:54.263,11.8993,-2.1179,21.3105
2026-07-21T16:19:54.280,11.8993,-2.0395,21.2714
2026-07-21T16:19:54.294,11.8993,-2.0591,21.0951
2026-07-21T16:19:54.294,11.915,-2.0787,20.8797
2026-07-21T16:19:54.311,11.9464,-2.1179,20.5469
2026-07-21T16:19:54.326,11.9464,-2.1179,20.214
2026-07-21T16:19:54.326,11.9464,-2.0591,19.9399
2026-07-21T16:19:54.342,11.9621,-2.1374,19.842
2026-07-21T16:19:54.342,11.9688,-2.0395,19.7049
2026-07-21T16:19:54.358,11.9688,-2.0591,19.607
2026-07-21T16:19:54.373,11.9935,-2.1179,19.4895
2026-07-21T16:19:54.389,11.9935,-2.0395,19.4112
2026-07-21T16:19:54.389,12.0093,-2.0591,19.2154
2026-07-21T16:19:54.389,12.0093,-2.1179,18.9217
2026-07-21T16:19:54.411,12.025,-2.0983,18.5888
2026-07-21T16:19:54.436,12.0568,-2.0787,18.3342
2026-07-21T16:19:54.436,12.0568,-2.0983,18.393
2026-07-21T16:19:54.436,12.0689,-2.0983,18.7259
2026-07-21T16:19:54.452,12.0725,-2.0591,18.8629
2026-07-21T16:19:54.452,12.0725,-2.0787,19.2154
2026-07-21T16:19:54.468,12.0725,-2.1374,19.5287
2026-07-21T16:19:54.484,12.1043,-2.0591,19.4308
2026-07-21T16:19:54.499,12.1043,-2.0983,19.2741
2026-07-21T16:19:54.499,12.12,-2.1179,18.765
2026-07-21T16:19:54.512,12.12,-2.0983,18.021
2026-07-21T16:19:54.515,12.1386,-2.0591,16.8265
2026-07-21T16:19:54.532,12.1693,-2.1179,15.4167
2026-07-21T16:19:54.547,12.1838,-2.0004,13.9286
2026-07-21T16:19:54.547,12.1838,-2.0395,13.0474
2026-07-21T16:19:54.563,12.1838,-2.0395,12.7146
2026-07-21T16:19:54.579,12.1838,-2.0004,12.8908
2026-07-21T16:19:54.581,12.1838,-2.02,13.1062
2026-07-21T16:19:54.594,12.1996,-2.0983,13.4586
2026-07-21T16:19:54.612,12.2393,-2.0983,14.0852
2026-07-21T16:19:54.612,12.2393,-2.0787,14.7706
2026-07-21T16:19:54.612,12.2393,-1.9808,15.2405
2026-07-21T16:19:54.627,12.2473,-2.02,15.6517
2026-07-21T16:19:54.642,12.2473,-1.922,15.6713
2026-07-21T16:19:54.642,12.2787,-1.9612,16.1216
2026-07-21T16:19:54.674,12.2787,-2.0004,16.8853
2026-07-21T16:19:54.674,12.2944,-1.8633,18.0601
2026-07-21T16:19:54.690,12.2944,-1.9416,19.0979
2026-07-21T16:19:54.690,12.2944,-2.02,20.0182
2026-07-21T16:19:54.690,12.3416,-1.9612,20.6644
2026-07-21T16:19:54.712,12.3416,-2.0591,20.9972
2026-07-21T16:19:54.721,12.3416,-2.0004,21.3497
2026-07-21T16:19:54.721,12.3416,-2.0395,21.7217
2026-07-21T16:19:54.737,12.3416,-1.922,22.0154
2026-07-21T16:19:54.753,12.3573,-2.0591,22.0742
2026-07-21T16:19:54.782,12.389,-2.0787,22.2112
2026-07-21T16:19:54.782,12.389,-2.0787,22.27
2026-07-21T16:19:54.782,12.389,-2.0591,22.1525
2026-07-21T16:19:54.784,12.4048,-2.0591,22.0546
2026-07-21T16:19:54.800,12.4048,-2.0395,22.0154
2026-07-21T16:19:54.832,12.4397,-2.0395,21.8979
2026-07-21T16:19:54.832,12.4397,-1.9808,22.035
2026-07-21T16:19:54.832,12.4397,-2.0787,22.27
2026-07-21T16:19:54.832,12.4523,-2.0004,22.5833
2026-07-21T16:19:54.847,12.4523,-2.0591,22.8378
2026-07-21T16:19:54.864,12.4856,-2.0591,23.0141
2026-07-21T16:19:54.864,12.4856,-2.02,23.1903
2026-07-21T16:19:54.882,12.5002,-2.0787,23.4252
2026-07-21T16:19:54.882,12.5002,-2.0004,23.5427
2026-07-21T16:19:54.895,12.5399,-2.0591,23.7385
2026-07-21T16:19:54.927,12.5479,-1.9808,23.856
2026-07-21T16:19:54.927,12.5479,-2.0591,23.9148
2026-07-21T16:19:54.928,12.5479,-2.0591,23.9735
2026-07-21T16:19:54.943,12.5479,-2.02,24.0518
2026-07-21T16:19:54.943,12.5637,-2.0983,23.9735
2026-07-21T16:19:54.983,12.5951,-2.0395,24.0714
2026-07-21T16:19:54.983,12.5951,-2.0591,24.1497
2026-07-21T16:19:54.983,12.5951,-2.02,23.9735
2026-07-21T16:19:54.991,12.6108,-2.0591,23.719
2026-07-21T16:19:55.006,12.6108,-2.0591,23.8169
2026-07-21T16:19:55.012,12.6108,-2.02,23.5427
2026-07-21T16:19:55.038,12.6587,-2.0983,23.484
2026-07-21T16:19:55.038,12.6587,-1.9416,23.3078
2026-07-21T16:19:55.038,12.6587,-1.9416,23.112
2026-07-21T16:19:55.053,12.6698,-2.02,22.8966
2026-07-21T16:19:55.053,12.6743,-1.9808,22.6224
2026-07-21T16:19:55.087,12.7062,-2.02,22.407
2026-07-21T16:19:55.087,12.7062,-2.0591,22.3287
2026-07-21T16:19:55.087,12.7062,-2.02,22.3091
2026-07-21T16:19:55.101,12.7219,-2.0395,22.2504
2026-07-21T16:19:55.117,12.7219,-2.0787,22.1525
2026-07-21T16:19:55.117,12.7219,-1.9808,22.035
2026-07-21T16:19:55.149,12.77,-2.0004,21.8196
2026-07-21T16:19:55.149,12.77,-1.8437,21.2909
2026-07-21T16:19:55.149,12.77,-2.0395,20.8014
2026-07-21T16:19:55.165,12.7851,-1.9025,20.1161
2026-07-21T16:19:55.165,12.7851,-1.922,18.9804
2026-07-21T16:19:55.196,12.8324,-1.922,17.8056
2026-07-21T16:19:55.196,12.8324,-1.8633,16.4937
2026-07-21T16:19:55.196,12.841,-1.7458,15.4755
2026-07-21T16:19:55.213,12.8485,-1.7654,14.8489
2026-07-21T16:19:55.213,12.8485,-1.785,14.4573
2026-07-21T16:19:55.228,12.8485,-1.785,14.0852
2026-07-21T16:19:55.243,12.8699,-1.8633,13.7719
2026-07-21T16:19:55.243,12.8956,-1.8241,13.6544
2026-07-21T16:19:55.259,12.9114,-1.8046,13.537
2026-07-21T16:19:55.259,12.9114,-1.9025,13.5761
2026-07-21T16:19:55.284,12.9114,-1.8437,13.6349
2026-07-21T16:19:55.291,12.9271,-1.8829,13.8307
2026-07-21T16:19:55.291,12.9271,-1.785,13.9286
2026-07-21T16:19:55.313,12.9271,-1.8437,14.2615
2026-07-21T16:19:55.323,12.9698,-1.7654,14.7118
2026-07-21T16:19:55.323,12.9744,-1.8437,15.123
2026-07-21T16:19:55.338,12.9744,-1.8437,15.6517
2026-07-21T16:19:55.338,12.9744,-1.8046,16.0825
2026-07-21T16:19:55.354,12.9901,-1.8046,16.3958
2026-07-21T16:19:55.370,12.9901,-1.9025,16.6895
2026-07-21T16:19:55.386,13.0216,-1.8241,16.9832
2026-07-21T16:19:55.401,13.0374,-1.7654,17.1007
2026-07-21T16:19:55.401,13.0415,-1.8241,17.1986
2026-07-21T16:19:55.417,13.0415,-1.8241,17.4727
2026-07-21T16:19:55.417,13.0531,-1.7458,17.4727
2026-07-21T16:19:55.433,13.0531,-1.7067,17.6489
2026-07-21T16:19:55.433,13.0531,-1.7458,17.8251
2026-07-21T16:19:55.464,13.0849,-1.6675,18.0405
2026-07-21T16:19:55.464,13.0849,-1.7458,18.4322
2026-07-21T16:19:55.464,13.1006,-1.7067,18.8629
2026-07-21T16:19:55.484,13.1006,-1.7262,19.2741
2026-07-21T16:19:55.496,13.1174,-1.7458,19.5678
2026-07-21T16:19:55.496,13.1174,-1.7458,19.7245
2026-07-21T16:19:55.528,13.1482,-1.6871,19.8811
2026-07-21T16:19:55.528,13.1482,-1.7262,20.0574
2026-07-21T16:19:55.528,13.1482,-1.7458,20.214
2026-07-21T16:19:55.543,13.1701,-1.7654,20.5665
2026-07-21T16:19:55.543,13.1701,-1.7262,20.9385
2026-07-21T16:19:55.560,13.1813,-1.7654,21.3105
2026-07-21T16:19:55.591,13.2111,-1.8437,21.7609
2026-07-21T16:19:55.591,13.2111,-1.7067,22.1329
2026-07-21T16:19:55.591,13.2111,-1.7654,22.3679
2026-07-21T16:19:55.607,13.2288,-1.8046,22.5245
2026-07-21T16:19:55.613,13.2288,-1.7654,22.5833
2026-07-21T16:19:55.624,13.2424,-1.7654,22.6812
2026-07-21T16:19:55.654,13.2738,-1.8437,22.7987
2026-07-21T16:19:55.654,13.2738,-1.7458,23.0141
2026-07-21T16:19:55.654,13.2738,-1.7654,23.2294
2026-07-21T16:19:55.654,13.2738,-1.8241,23.2686
2026-07-21T16:19:55.671,13.2738,-1.8046,23.3078
2026-07-21T16:19:55.671,13.2895,-1.7654,22.9357
2026-07-21T16:19:55.701,13.3209,-1.7262,22.6224
2026-07-21T16:19:55.713,13.3209,-1.7262,22.407
2026-07-21T16:19:55.713,13.3209,-1.6675,22.3483
2026-07-21T16:19:55.716,13.3367,-1.7067,22.4658
2026-07-21T16:19:55.732,13.3428,-1.7654,22.7987
2026-07-21T16:19:55.732,13.3704,-1.6675,22.8966
2026-07-21T16:19:55.748,13.3704,-1.8046,22.9357
2026-07-21T16:19:55.764,13.3845,-1.785,22.7987
2026-07-21T16:19:55.764,13.3845,-1.7067,22.4658
2026-07-21T16:19:55.779,13.3845,-1.785,22.0938
2026-07-21T16:19:55.813,13.4314,-1.7067,21.7217
2026-07-21T16:19:55.813,13.4314,-1.7262,21.3497
2026-07-21T16:19:55.813,13.4314,-1.785,21.193
2026-07-21T16:19:55.827,13.4475,-1.6871,21.193
2026-07-21T16:19:55.827,13.4475,-1.7654,21.4084
2026-07-21T16:19:55.843,13.4475,-1.7458,21.4084
2026-07-21T16:19:55.843,13.4792,-1.785,21.3693
2026-07-21T16:19:55.872,13.4959,-1.8633,21.3105
2026-07-21T16:19:55.872,13.4959,-1.7654,21.1735
2026-07-21T16:19:55.886,13.4959,-1.7262,20.8797
2026-07-21T16:19:55.890,13.5109,-1.785,20.5077
2026-07-21T16:19:55.906,13.5435,-1.6871,20.2532
2026-07-21T16:19:55.922,13.5435,-1.785,20.1944
2026-07-21T16:19:55.922,13.5435,-1.785,20.214
2026-07-21T16:19:55.922,13.5584,-1.7654,20.0965
2026-07-21T16:19:55.939,13.5705,-1.7458,20.1553
2026-07-21T16:19:55.954,13.5705,-1.785,20.2336
2026-07-21T16:19:55.954,13.6059,-1.7654,20.3119
2026-07-21T16:19:55.986,13.6059,-1.8241,20.2923
2026-07-21T16:19:55.986,13.6059,-1.785,20.1748
2026-07-21T16:19:55.986,13.6059,-1.8046,19.8811
2026-07-21T16:19:56.001,13.6217,-1.7654,19.7441
2026-07-21T16:19:56.013,13.6217,-1.7458,19.6853
2026-07-21T16:19:56.033,13.6709,-1.8241,19.8028
2026-07-21T16:19:56.033,13.6709,-1.8046,19.8811
2026-07-21T16:19:56.033,13.6709,-1.7262,20.0965
2026-07-21T16:19:56.049,13.6709,-1.785,19.9595
2026-07-21T16:19:56.064,13.6849,-1.785,19.979
2026-07-21T16:19:56.064,13.6954,-1.7458,19.9986
2026-07-21T16:19:56.087,13.7326,-1.785,19.9203
2026-07-21T16:19:56.096,13.7326,-1.7067,19.8811
2026-07-21T16:19:56.096,13.7326,-1.6871,19.9007
2026-07-21T16:19:56.114,13.7443,-1.7067,20.0574
2026-07-21T16:19:56.128,13.7483,-1.8046,20.3119
2026-07-21T16:19:56.138,13.7483,-1.8241,20.4294
2026-07-21T16:19:56.144,13.7954,-1.7654,20.586
2026-07-21T16:19:56.160,13.7954,-1.8437,20.7427
2026-07-21T16:19:56.160,13.7954,-1.7654,20.821
2026-07-21T16:19:56.175,13.7954,-1.7458,20.8014
2026-07-21T16:19:56.187,13.8112,-1.8241,20.6644
2026-07-21T16:19:56.191,13.8112,-1.7458,20.6839
2026-07-21T16:19:56.191,13.8112,-1.6675,20.7427
2026-07-21T16:19:56.214,13.8596,-1.7654,20.8014
2026-07-21T16:19:56.222,13.8596,-1.7262,21.0756
2026-07-21T16:19:56.222,13.8596,-1.7458,21.2909
2026-07-21T16:19:56.238,13.8747,-1.6871,21.4868
2026-07-21T16:19:56.254,13.8747,-1.8437,21.7805
2026-07-21T16:19:56.254,13.8747,-1.7654,21.9567
2026-07-21T16:19:56.270,13.9229,-1.7458,21.8784
2026-07-21T16:19:56.292,13.9229,-1.8829,21.8196
2026-07-21T16:19:56.292,13.9229,-1.7262,21.6042
2026-07-21T16:19:56.302,13.9229,-1.785,21.4084
2026-07-21T16:19:56.317,13.9451,-1.7458,21.2322
2026-07-21T16:19:56.317,13.9451,-1.8046,21.193
2026-07-21T16:19:56.333,13.9536,-1.7458,21.3301
2026-07-21T16:19:56.333,13.9854,-1.7654,21.2714
2026-07-21T16:19:56.365,13.9854,-1.8241,21.428
2026-07-21T16:19:56.365,13.9854,-1.7458,21.6434
2026-07-21T16:19:56.366,14.0011,-1.7654,21.5651
2026-07-21T16:19:56.388,14.0011,-1.7654,21.6826
2026-07-21T16:19:56.396,14.0175,-1.7654,21.5847
2026-07-21T16:19:56.396,14.0482,-1.6479,21.4476
2026-07-21T16:19:56.414,14.0482,-1.8437,21.3497
2026-07-21T16:19:56.428,14.0482,-1.7654,21.2518
2026-07-21T16:19:56.428,14.0649,-1.785,21.3888
2026-07-21T16:19:56.444,14.0715,-1.7458,21.3888
2026-07-21T16:19:56.444,14.08,-1.7654,21.4868
2026-07-21T16:19:56.460,14.112,-1.785,21.5455
2026-07-21T16:19:56.460,14.112,-1.7262,21.5847
2026-07-21T16:19:56.491,14.112,-1.785,21.5651
2026-07-21T16:19:56.491,14.112,-1.7458,21.5847
2026-07-21T16:19:56.491,14.1277,-1.7262,21.5455
2026-07-21T16:19:56.514,14.1277,-1.785,21.5063
2026-07-21T16:19:56.523,14.1277,-1.7458,21.4868
2026-07-21T16:19:56.539,14.1752,-1.7654,21.4476
2026-07-21T16:19:56.555,14.1752,-1.8241,21.3693
2026-07-21T16:19:56.555,14.1752,-1.785,21.2518
2026-07-21T16:19:56.555,14.1752,-1.8046,21.2909
2026-07-21T16:19:56.570,14.1909,-1.8241,21.3693
2026-07-21T16:19:56.589,14.1909,-1.7654,21.5455
2026-07-21T16:19:56.589,14.2228,-1.7067,21.5651
2026-07-21T16:19:56.614,14.2386,-1.8437,21.5651
2026-07-21T16:19:56.614,14.2386,-1.785,21.4476
2026-07-21T16:19:56.618,14.2462,-1.785,21.3888
2026-07-21T16:19:56.634,14.2462,-1.785,21.3105
2026-07-21T16:19:56.634,14.2543,-1.8241,21.2909
2026-07-21T16:19:56.651,14.286,-1.7067,21.4476
2026-07-21T16:19:56.665,14.286,-1.7654,21.4476
2026-07-21T16:19:56.665,14.286,-1.8829,21.6042
2026-07-21T16:19:56.681,14.286,-1.8241,21.7021
2026-07-21T16:19:56.689,14.3017,-1.8046,21.5455
2026-07-21T16:19:56.713,14.3332,-1.785,21.4476
2026-07-21T16:19:56.715,14.3332,-1.8241,21.3105
2026-07-21T16:19:56.715,14.3332,-1.8046,21.0951
2026-07-21T16:19:56.729,14.3489,-1.8241,20.9777
2026-07-21T16:19:56.744,14.3656,-1.8437,21.1539
2026-07-21T16:19:56.744,14.3722,-1.7654,21.2518
2026-07-21T16:19:56.776,14.3964,-1.8046,21.4672
2026-07-21T16:19:56.776,14.3964,-1.9025,21.663
2026-07-21T16:19:56.776,14.4121,-1.785,21.7805
2026-07-21T16:19:56.792,14.4121,-1.785,21.8
2026-07-21T16:19:56.808,14.4121,-1.8633,21.8196
2026-07-21T16:19:56.815,14.4121,-1.785,21.5455
2026-07-21T16:19:56.839,14.4598,-1.8633,21.3888
2026-07-21T16:19:56.839,14.4598,-1.8241,21.3301
2026-07-21T16:19:56.839,14.4598,-1.8241,21.3105
2026-07-21T16:19:56.855,14.4724,-1.8046,21.2909
2026-07-21T16:19:56.855,14.4755,-1.8241,21.3497
2026-07-21T16:19:56.871,14.5069,-1.8437,21.4084
2026-07-21T16:19:56.890,14.5227,-1.785,21.3693
2026-07-21T16:19:56.890,14.5227,-1.8241,21.4672
2026-07-21T16:19:56.902,14.5227,-1.8633,21.5063
2026-07-21T16:19:56.915,14.5384,-1.8437,21.4868
2026-07-21T16:19:56.918,14.5476,-1.8437,21.4476
2026-07-21T16:19:56.918,14.5724,-1.8241,21.428
2026-07-21T16:19:56.950,14.5855,-1.8241,21.3497
2026-07-21T16:19:56.950,14.5855,-1.8046,21.3105
2026-07-21T16:19:56.965,14.5855,-1.8633,21.3497
2026-07-21T16:19:56.965,14.6015,-1.8437,21.3497
2026-07-21T16:19:56.981,14.6015,-1.8633,21.3693
2026-07-21T16:19:56.990,14.6173,-1.8437,21.5651
2026-07-21T16:19:57.015,14.6482,-1.8437,21.663
2026-07-21T16:19:57.015,14.6482,-1.8241,21.5651
2026-07-21T16:19:57.015,14.6482,-1.8437,21.4084
2026-07-21T16:19:57.044,14.6639,-1.9025,21.3497
2026-07-21T16:19:57.044,14.6639,-1.7654,21.3693
2026-07-21T16:19:57.044,14.6725,-1.7654,21.3301
2026-07-21T16:19:57.060,14.711,-1.9025,21.4084
2026-07-21T16:19:57.076,14.711,-1.785,21.4868
2026-07-21T16:19:57.091,14.711,-1.8633,21.663
2026-07-21T16:19:57.091,14.7267,-1.8633,21.7609
2026-07-21T16:19:57.107,14.7267,-1.8046,21.9567
2026-07-21T16:19:57.107,14.7267,-1.785,21.9567
2026-07-21T16:19:57.122,14.7728,-1.8829,21.9175
2026-07-21T16:19:57.138,14.7743,-1.785,21.7805
2026-07-21T16:19:57.138,14.7743,-1.7262,21.6434
2026-07-21T16:19:57.154,14.7743,-1.8633,21.5455
2026-07-21T16:19:57.154,14.7743,-1.8241,21.5455
2026-07-21T16:19:57.169,14.79,-1.785,21.6826
2026-07-21T16:19:57.191,14.8219,-1.8241,21.7609
2026-07-21T16:19:57.201,14.8219,-1.8046,21.8392
2026-07-21T16:19:57.201,14.8219,-1.8437,21.8588
2026-07-21T16:19:57.217,14.8376,-1.8437,21.6826
2026-07-21T16:19:57.217,14.8376,-1.8241,21.8196
2026-07-21T16:19:57.233,14.8533,-1.8241,21.7609
2026-07-21T16:19:57.233,14.8533,-1.8633,21.7413
2026-07-21T16:19:57.265,14.8847,-1.8437,21.8
2026-07-21T16:19:57.265,14.8847,-1.9025,21.8784
2026-07-21T16:19:57.265,14.9004,-1.7458,22.0154
2026-07-21T16:19:57.291,14.9019,-1.8437,22.035
2026-07-21T16:19:57.296,14.9019,-1.9025,21.9959
2026-07-21T16:19:57.296,14.9479,-1.785,21.8784
2026-07-21T16:19:57.327,14.9489,-1.8046,21.7609
2026-07-21T16:19:57.327,14.9489,-1.8241,21.7413
2026-07-21T16:19:57.327,14.9489,-1.8437,21.8588
2026-07-21T16:19:57.345,14.964,-1.8633,21.9763
2026-07-21T16:19:57.359,14.973,-1.8633,22.0938
2026-07-21T16:19:57.359,15.0115,-1.8633,22.1721
2026-07-21T16:19:57.375,15.0115,-1.8241,22.3091
2026-07-21T16:19:57.375,15.0115,-1.8046,22.2896
2026-07-21T16:19:57.392,15.0115,-1.8241,22.1917
2026-07-21T16:19:57.392,15.0272,-1.8829,22.1329
2026-07-21T16:19:57.416,15.0272,-1.7654,21.9959
2026-07-21T16:19:57.438,15.0746,-1.8829,22.0154
2026-07-21T16:19:57.438,15.0746,-1.8241,21.9371
2026-07-21T16:19:57.438,15.0746,-1.8437,21.9763
2026-07-21T16:19:57.438,15.0746,-1.8241,21.9763
2026-07-21T16:19:57.454,15.0909,-1.8046,22.1133
2026-07-21T16:19:57.470,15.0909,-1.8046,22.0742
2026-07-21T16:19:57.501,15.1231,-1.8437,21.9175
2026-07-21T16:19:57.501,15.1231,-1.8241,21.8784
2026-07-21T16:19:57.501,15.1231,-1.7654,21.7805
2026-07-21T16:19:57.516,15.1382,-1.8046,21.7217
2026-07-21T16:19:57.517,15.1498,-1.9025,21.8196
2026-07-21T16:19:57.534,15.1539,-1.785,21.9175
2026-07-21T16:19:57.534,15.1539,-1.8241,21.7021
