9.970093 9.970093 9.970093 9.970093 9.970093 9.970093 9.970093 9.970093 9.970093 9.970093 9.970093 9.970093 9.970093 9.970093 9.970093 9.970093 9.970093 9.970093 9.970093 9.970093 -33.032227 -29.003906 -28.80249 -13.595581 3.5247803 40.182495 114.505005 163.75122 166.87317 160.02502 161.13281 137.76855 111.987305 116.519165 110.27527 23.162842 -109.67102 -206.25 -181.87866 -99.49951 -89.328 -53.17383 -7.1502686 9.466553 29.205322 69.68994 3.2226562 -141.49475 -220.1477 -252.47498 -260.63232 -191.74805 -68.88428 2.2155762 31.018066 51.260376 71.40198 115.41138 110.77881 60.324097 48.843384 19.638062 8.862305 0 -69.28711 -138.3728 -136.45935 -124.575806 -118.2312 -82.37915 -17.019653 33.737183 65.86304 85.90393 84.39331 53.778076 23.666382 -2.0141602 -9.265137 21.652222 27.79541 -3.5247803 -60.324097 -30.715942 28.399658 74.42322 55.69153 49.749756 77.545166 84.59473 58.309937 26.889038 -5.7403564 -47.03064 -69.992065 -25.378418 39.37683 59.71985 14.703369 -108.86536 -149.6521 -125.48218 -57.403564 -16.616821 -35.85205 -67.17224 -81.37207 -131.72607 -170.80078 -127.697754 -76.034546 -79.055786 -100.6073 -80.163574 -37.664795 -8.459473 50.454712 126.79138 225.68665 302.62756 286.21216 252.07214 242.7063 223.7732 196.38062 204.63867 105.54199 -43.304443 -149.14856 -221.96045 -240.99426 -146.42944 -60.525513 -89.63013 -143.3075 -138.3728 -109.67102 -78.85437 -93.759155 -119.84253 -100.10376 -66.87012 -37.664795 -15.408325 -23.464966 -33.233643 16.113281 29.608154 22.860718 -12.789917 -46.829224 -71.20056 -96.98181 -99.70093 -56.295776 -34.44214 14.501953 64.453125 105.84412 132.73315 138.3728 127.89917 106.64978 102.01721 144.01245 233.03833 245.62683 241.90063 215.51514 129.71191 40.786743 14.904785 6.3446045 -8.963013 -49.246216 -58.813477 -34.94568 -16.314697 -54.483032 -125.582886 -119.94324 -124.97864 -128.90625 -127.194214 -144.6167 -139.27917 -74.82605 -70.69702 -72.509766 -50.756836 -53.274536 -28.29895 -26.083374 9.768677 66.36658 58.410645 49.95117 55.18799 88.62305 122.058105 
-103.52783 -79.2572 -49.95117 -50.857544 -76.23596 -109.3689 -83.99048 -36.154175 -51.965332 -55.08728 -24.874878 14.904785 21.350098 61.12976 82.681274 108.05969 158.11157 175.83618 135.7544 130.8197 108.05969 86.00464 45.620728 8.761597 12.387085 22.25647 0.80566406 -0.50354004 10.272217 20.947266 30.917358 106.34766 202.5238 187.01477 55.792236 -6.5460205 -50.958252 -82.47986 -140.7898 -193.46008 -205.0415 -209.9762 -210.37903 -181.073 -154.6875 -181.27441 -134.34448 -46.5271 -16.113281 7.9559326 41.793823 60.72693 43.40515 63.848877 103.62854 135.7544 171.40503 152.47192 113.29651 129.00696 73.31543 44.311523 28.903198 5.2368164 15.005493 29.30603 -19.537354 -56.295776 -45.92285 -68.78357 -76.638794 -69.488525 -56.19507 -52.06604 -74.523926 -57.907104 -42.297363 -52.871704 -56.19507 -50.756836 -13.293457 10.574341 21.853638 26.586914 25.479126 -5.7403564 15.911865 16.818237 -33.83789 -83.688354 -87.716675 -66.467285 -66.970825 -47.735596 11.480713 27.593994 63.24463 110.27527 157.60803 210.47974 163.34839 122.66235 71.80481 31.82373 21.853638 21.450806 -14.501953 -52.56958 -79.96216 -90.83862 -60.12268 -16.415405 23.666382 -21.75293 -75.631714 -74.72534 -55.69153 -37.161255 -37.765503 -55.08728 -84.49402 -123.97156 -146.22803 -138.47351 -117.32483 -130.719 -76.7395 -13.897705 -3.7261963 4.1290283 61.12976 93.85986 103.52783 124.37439 186.91406 195.07141 193.05725 138.57422 101.21155 91.8457 31.118774 0 -10.876465 -11.279297 29.608154 72.40906 25.27771 -32.42798 -88.0188 -103.02429 -57.000732 9.970093 58.61206 47.53418 0 9.567261 5.6396484 5.5389404 -15.408325 -49.54834 -36.254883 -30.615234 -15.710449 -1.8127441 -25.479126 -66.76941 -13.595581 17.019653 -0.10070801 -8.157349 -7.8552246 -33.535767 -61.029053 -44.0094 -0.40283203 -0.10070801 15.005493 48.138428 95.37048 110.980225 63.043213 25.479126 -2.4169922 -29.406738 -33.233643 -9.768677 -33.9386 -41.4917 -54.382324 -41.4917 -32.32727 -16.818237 40.182495 23.76709 -43.707275 -80.06287 -76.84021 -58.813477 -44.110107 -18.530273 
2964.038 2949.4353 2934.9333 2825.5645 2908.2458 2897.3694 2885.5864 2873.3 2860.6108 2847.4182 2834.3262 2821.2341 2808.0413 2794.9492 2782.0586 2769.2688 2756.4788 2743.991 2731.4026 -620.56274 2742.581 2764.2334 2785.2812 2804.6172 2823.8525 2842.5842 2861.1145 2879.141 2896.8657 2914.4897 2931.912 2949.1333 2966.2537 2983.2732 3000.0916 -2264.6208 44.51294 2856.784 2993.5454 2979.0435 2961.7217 2946.7163 2930.4016 2684.0698 2908.85 2896.06 2884.2773 2871.7896 2858.9995 2845.9075 2832.8154 2819.6228 2806.5308 2793.4387 2780.4473 2767.758 2754.9683 2742.4805 2729.7913 -2385.269 2744.4946 2766.5496 2786.6912 2806.9336 2825.8667 2844.4976 2862.4236 2880.551 2898.2756 2915.8997 2933.322 2950.4424 2967.5627 2984.5825 3001.3 -2024.5331 608.5785 3003.717 2989.92 2975.6194 2960.7146 2945.3064 2929.495 2804.718 2905.1238 2892.4346 2880.4504 2868.164 2855.374 2842.282 2829.19 2815.9973 2802.9053 2789.8132 2776.9226 2764.2334 2751.5442 2739.0564 2726.3672 2775.714 2743.991 2765.442 2786.3892 2805.725 2824.8596 2843.5913 2861.9202 2880.0476 2897.7722 2915.396 2932.8186 2949.939 2967.0593 2984.0789 3000.7964 -1980.0201 451.3733 3003.8176 2990.0208 2975.5188 2959.4055 2944.9036 2929.0923 2664.633 2905.3252 2892.7368 2880.8533 2868.3655 2855.5754 2842.4834 2829.2908 2816.098 2803.0059 2790.0146 2777.0232 2764.2334 2751.6448 2739.2578 2726.3672 2723.9502 2747.415 2768.7651 2789.0076 2808.9478 2827.9814 2846.4111 2864.6392 2882.4646 2900.1892 2917.813 2935.1348 2952.356 2969.4763 2986.3953 3003.2134 -1854.0344 673.63586 3003.9185 2990.3228 2975.8208 2959.607 2945.3064 2929.0923 2777.426 2905.6274 2892.7368 2880.551 2867.9626 2855.072 2841.98 2828.888 2815.5945 2802.603 2789.511 2776.6204 2763.8306 2751.242 2738.6536 2725.763 2726.77 2750.0334 2771.7864 2791.5251 2811.6667 2830.4993 2848.9287 2867.0562 2884.9822 2902.7068 2920.23 2937.4512 2954.773 2971.692 2988.7114 3005.429 -1631.8726 1110.2051 3002.6091 2988.8123 2974.109 
340.09094 -2570.169 -2558.1848 -2546.3013 -2534.5183 -2523.239 -2511.4563 -2500.0762 -2488.7969 -2477.5176 -855.4138 3299.8992 3299.8992 1822.2107 135.35156 -1995.4285 -2330.081 -1730.0629 -1482.8247 -2471.2737 -2460.1958 -2448.9165 -2438.1409 -2427.4658 -2416.7908 -2406.4177 -2395.5413 -2385.269 -1506.0883 3299.8992 3299.8992 3299.8992 3299.8992 3299.8992 3299.8992 3299.8992 3299.8992 3299.8992 3299.8992 3299.8992 55.993652 -2575.4058 -2563.4216 -2551.6387 -2539.9565 -2528.5767 -2516.8945 -2505.2124 -2494.0337 -2482.7544 -488.73596 3299.8992 3299.8992 1595.4163 -53.57666 -1827.1454 -2063.3057 -1279.0924 -1172.0398 -2483.4595 -2472.1802 -2460.901 -2449.9236 -2439.148 -2428.372 -2417.9993 -2407.1228 -2396.6492 -1249.4843 3299.8992 3299.8992 3299.8992 3299.8992 3299.8992 3299.8992 3299.8992 3299.8992 3299.8992 3299.8992 3299.8992 -2.3162842 -2586.4836 -2574.701 -2562.7166 -2551.0344 -2539.6545 -2527.771 -2516.3909 -2505.011 -2493.8323 -569.6045 3299.8992 3299.8992 715.329 -826.4099 -2323.8372 -2465.9363 -1727.7466 -1807.1045 -2475.7048 -2464.5264 -2453.247 -2442.6726 -2431.897 -2421.121 -2410.8489 -2399.9724 -2389.5996 -473.22693 3299.8992 3299.8992 3299.8992 3299.8992 3299.8992 3299.8992 3299.8992 3299.8992 3299.8992 3299.8992 3299.8992 -418.44177 -2581.7505 -2569.867 -2557.8826 -2546.2004 -2534.8206 -2523.0376 -2511.6577 -2500.2776 -2488.9983 71.80481 3299.8992 3299.8992 477.15454 -1272.2443 -2509.7441 -2494.638 -1802.5726 -1914.1571 -2469.5618 -2458.484 -2447.3052 -2436.6301 -2426.056 -2415.28 -2405.0078 -2394.1313 -2383.96 22.457886 3299.8992 3299.8992 3299.8992 3299.8992 3299.8992 3299.8992 3299.8992 3299.8992 3299.8992 3299.8992 3299.8992 -1081.4026 -2575.003 -2563.1194 -2551.4373 -2539.6545 -2528.2744 -2516.4917 -2505.1116 -2493.8323 -2436.026 542.61475 3299.8992 3102.6123 328.61023 -1480.307 -2503.601 -2491.1133 -1916.4734 -2444.0825 -2461.8071 -2450.83 -2439.7522 -2429.0771 -2418.402 -2407.9285 -2397.5554 -2386.9812 -2376.6082 1033.4656 3299.8992 3299.8992 3299.8992 3299.8992 3299.8992 3299.8992 3299.8992 3299.8992 3299.8992 3299.8992 3299.8992 
89.93225 525.09155 883.1085 1090.3656 986.0321 -485.614 3299.8992 -3281.067 -3266.3635 -3251.6602 -3237.0574 -3222.6562 -3208.4563 -3194.458 -3180.4595 -3166.7632 -3152.9663 -3139.6729 -3126.3794 -1436.7004 3299.8992 3299.8992 3299.8992 3299.8992 3299.8992 3299.8992 3299.8992 3299.8992 3299.8992 3299.8992 3299.8992 3299.8992 3296.3745 2531.3965 212.4939 -1015.1367 -1287.854 -1501.0529 -1538.617 -679.1748 271.20667 677.16064 898.9197 1016.84875 940.7135 -621.67053 3298.1873 -3286.203 -3271.0967 -3256.2927 -3241.69 -3227.188 -3212.8875 -3198.8892 -3184.9915 -3171.1943 -3157.5989 -3144.0032 -3130.6091 -1087.4451 3299.8992 3299.8992 3299.8992 3299.8992 3299.8992 3299.8992 3299.8992 3299.8992 3299.8992 3299.8992 3299.8992 3299.8992 3290.4326 2413.568 61.12976 -1117.7582 -1512.03 -1678.8025 -1717.6758 -892.9779 35.44922 454.99878 862.06055 1064.1815 887.13684 -827.6184 3299.8992 -3283.6853 -3269.0825 -3254.3792 -3239.7766 -3225.3752 -3211.1755 -3197.177 -3183.1787 -3169.4824 -3155.6853 -3142.3918 -3128.9978 -627.00806 3299.8992 3299.8992 3299.8992 3299.8992 3299.8992 3299.8992 3299.8992 3299.8992 3299.8992 3299.8992 3299.8992 3299.8992 3289.8284 2236.1206 73.91968 -964.98413 -1302.6581 -1468.222 -1464.4958 -772.1283 19.638062 322.26562 563.86414 701.9348 312.29553 -1600.351 -3293.051 -3277.6428 -3262.6372 -3247.9338 -3233.3313 -3219.3328 -3205.133 -3191.034 -3177.2368 -3163.44 -3149.8442 -3136.4502 -3123.2573 -95.06836 3299.8992 3299.8992 3299.8992 3299.8992 3299.8992 3299.8992 3299.8992 3299.8992 3299.8992 3299.8992 3299.8992 3299.8992 3292.9504 2016.98 -194.06433 -1243.5425 -1583.432 -1781.9275 -1735.199 -751.48315 77.44446 466.37878 825.9064 1006.4758 613.5132 -1586.8561 -3287.21 -3272.2046 -3257.6018 -3242.8984 -3228.3965 -3214.1968 -3199.9968 -3186.2 -3172.4028 -3158.7065 -3145.111 -3131.8176 -3118.6248 696.09375 3299.8992 3299.8992 3299.8992 3299.8992 3299.8992 3299.8992 3299.8992 3299.8992 3299.8992 3299.8992 3299.8992 3299.8992 3294.159 1961.4899 40.786743 -934.4696 -1299.3347 -1535.2936 -1463.4888 -456.71082 
-1903.8849 -3113.4888 -3098.6846 -3083.4778 -3068.573 -3053.9702 -3039.6697 -3025.3691 -3011.27 -2997.2717 -2983.4746 -2969.8792 -2956.2834 -2942.8894 -2929.495 -2916.403 -2903.4119 -2890.5212 -2877.7312 -2863.632 -2017.1814 -1190.8722 255.39551 2110.6384 3299.8992 3299.8992 3299.8992 3299.8992 3299.8992 3299.8992 3299.8992 3299.8992 3299.8992 3299.8992 3299.8992 3299.8992 3299.8992 3299.8992 3299.8992 3299.8992 -2216.8853 -3105.0293 -3089.7217 -3074.817 -3060.315 -3045.9136 -3031.5125 -3017.3125 -3003.3142 -2989.3157 -2975.5188 -2961.923 -2948.4282 -2935.1348 -2921.9421 -2908.7493 -2895.758 -2882.968 -2870.2788 -2626.1626 -1440.9302 -418.44177 943.73474 2804.6172 3299.8992 3299.8992 3299.8992 3299.8992 3299.8992 3299.8992 3299.8992 3299.8992 3299.8992 3299.8992 3299.8992 3299.8992 3299.8992 3299.8992 3299.8992 3268.881 -2757.3853 -3108.252 -3092.8435 -3078.0396 -3063.5376 -3049.0356 -3034.5337 -3020.4346 -3006.436 -2992.337 -2978.6406 -2964.9443 -2951.5503 -2938.0554 -2924.762 -2911.7705 -2898.7793 -2885.8887 -2873.1995 -2431.897 -1410.7178 -300.6134 1043.335 2770.276 3299.8992 3299.8992 3299.8992 3299.8992 3299.8992 3299.8992 3299.8992 3299.8992 3299.8992 3299.8992 3299.8992 3299.8992 3299.8992 3299.8992 3299.8992 3230.8135 -2852.655 -3112.2803 -3096.8718 -3081.967 -3067.465 -3052.8625 -3038.4612 -3024.362 -3010.0615 -2996.2646 -2982.266 -2968.6707 -2955.1758 -2941.681 -2928.488 -2915.396 -2902.304 -2889.5142 -2876.724 -2533.612 -1855.7465 -670.0104 827.2156 2801.8982 3299.8992 3299.8992 3299.8992 3299.8992 3299.8992 3299.8992 3299.8992 3299.8992 3299.8992 3299.8992 3299.8992 3299.8992 3299.8992 3299.8992 3299.8992 2680.4443 -3121.4446 -3105.9355 -3091.333 -3076.0254 -3061.2212 -3046.82 -3032.4187 -3018.219 -3004.3213 -2990.3228 -2976.6265 -2962.9302 -2949.4353 -2936.0413 -2922.8484 -2909.7563 -2896.8657 -2884.076 -2871.286 -2358.078 -1633.2825 -358.21838 1202.1515 3255.2856 3299.8992 3299.8992 3299.8992 3299.8992 3299.8992 3299.8992 3299.8992 3299.8992 3299.8992 3299.8992 3299.8992 3299.8992 3299.8992 3299.8992 3299.8992 2440.0542 
370.50476 845.84656 1288.6597 1644.1589 1778.9062 1018.8629 -641.51 -2627.371 3216.0095 3232.5256 3248.639 3264.6514 3280.2612 3295.9717 -3288.6199 -3273.2117 -3257.904 -3242.8984 -3227.7922 -1666.919 2754.1626 3299.8992 3299.8992 3299.8992 3299.8992 3299.8992 3286.6057 3271.0967 3255.6885 3239.4744 3224.0662 3208.6577 3187.4084 1024.8047 -1114.3341 -1964.3097 -1940.6433 -1869.5435 -1674.8749 -653.19214 471.31348 951.18713 1356.2347 1646.6766 1682.0251 836.38 -883.1085 -3130.6091 3220.2393 3236.4531 3252.7678 3268.579 3284.3901 3299.8992 -3284.491 -3269.284 -3254.0771 -3239.0715 -3223.8647 -1259.2529 3233.2305 3299.8992 3299.8992 3299.8992 3299.8992 3299.8992 3287.1094 3271.6003 3256.192 3239.8772 3224.469 3209.1614 3140.68 678.26843 -1289.3646 -1999.1547 -2127.0537 -1991.6016 -1674.2706 -464.86816 565.47546 1059.6497 1392.2882 1722.6105 1802.3712 951.8921 -720.7672 -3226.7852 3220.944 3237.2588 3253.372 3269.1833 3285.0952 3299.8992 -3283.9873 -3268.6797 -3253.473 -3238.3667 -3223.361 -1009.19495 3299.8992 3299.8992 3299.8992 3299.8992 3299.8992 3299.8992 3286.3037 3270.8953 3255.3862 3239.0715 3223.764 3208.3557 3133.2275 750.7782 -1192.4835 -1889.1815 -1829.4617 -1752.2186 -1439.621 -435.36072 493.97278 960.9558 1392.3889 1631.369 1556.0394 612.00256 -986.0321 3204.6294 3221.2463 3237.4602 3253.775 3269.4854 3285.2966 3299.8992 -3283.786 -3268.2769 -3253.07 -3238.0645 -3223.1597 -444.62585 3299.8992 3299.8992 3299.8992 3299.8992 3299.8992 3297.9858 3282.6782 3267.1692 3251.8616 3235.446 3220.1384 3204.7302 3017.4133 566.48254 -1183.3191 -1761.9873 -1720.9991 -1617.9749 -1324.2096 -246.13037 627.2095 1077.475 1515.3534 1812.3413 1730.9692 650.67444 -953.70483 3196.2708 3212.8875 3229.0007 3245.2148 3261.2273 3276.9377 3292.749 -3291.8425 -3276.535 -3261.2273 -3246.121 -3231.015 -149.85352 3299.8992 3299.8992 3299.8992 3299.8992 3299.8992 3288.3179 3272.9094 3257.5012 3242.1936 3225.879 3210.6719 3195.2637 2782.3608 92.34924 -1575.7782 -2025.238 -2039.6393 -1938.8306 -1620.3918 -525.7965 
697.40295 -1697.8363 -2993.042 -2979.0435 -2965.0452 -2951.5503 -2938.0554 -2924.762 -2911.67 -2898.477 -2885.5864 -2872.6958 -2860.1074 -2847.4182 -2834.8296 -2822.3418 -2809.9548 -2797.6685 -2785.382 -2666.5466 -2000.766 -1405.2795 -777.2644 13.897705 1107.3853 3207.0464 3299.8992 3299.8992 3299.8992 3299.8992 3299.8992 3299.8992 3299.8992 3299.8992 3299.8992 3299.8992 3299.8992 3299.8992 3299.8992 3243.6035 475.14038 -2061.2915 -2986.093 -2972.0947 -2958.3984 -2944.9036 -2931.5093 -2918.2158 -2905.1238 -2892.0317 -2879.0405 -2866.3513 -2853.5613 -2840.973 -2828.5857 -2816.1987 -2803.8115 -2791.5251 -2779.2388 -2474.7986 -1696.7285 -1166.2994 -541.8091 211.99036 1399.7406 3299.8992 3299.8992 3299.8992 3299.8992 3299.8992 3299.8992 3299.8992 3299.8992 3299.8992 3299.8992 3299.8992 3299.8992 3299.8992 3299.8992 2971.591 150.25635 -2231.0852 -2984.0789 -2970.282 -2956.4849 -2942.99 -2929.596 -2916.3025 -2903.311 -2890.219 -2877.2278 -2864.5386 -2851.8494 -2839.1602 -2826.8738 -2814.2852 -2801.9988 -2789.8132 -2777.3254 -2462.915 -1783.3374 -1138.3026 -575.647 310.07996 1586.2518 3299.8992 3299.8992 3299.8992 3299.8992 3299.8992 3299.8992 3299.8992 3299.8992 3299.8992 3299.8992 3299.8992 3299.8992 3299.8992 3299.8992 3105.5327 412.09717 -1980.0201 -2986.6973 -2972.699 -2959.0027 -2945.407 -2932.013 -2918.7195 -2905.5266 -2892.636 -2879.6448 -2866.8547 -2854.065 -2841.4763 -2828.9885 -2816.5007 -2804.2144 -2791.928 -2779.7424 -2363.3147 -1783.6395 -1151.7975 -482.69348 378.96423 1733.2855 3299.8992 3299.8992 3299.8992 3299.8992 3299.8992 3299.8992 3299.8992 3299.8992 3299.8992 3299.8992 3299.8992 3299.8992 3299.8992 3299.8992 2607.431 -270.5017 -2712.268 -2982.7698 -2968.9727 -2955.1758 -2941.58 -2928.2866 -2915.094 -2901.9011 -2889.0105 -2876.1199 -2863.2292 -2850.6409 -2837.9517 -2825.6653 -2813.1775 -2800.891 -2788.7053 -2776.419 -2131.6863 -1472.3511 -822.4823 -261.6394 586.52344 2118.1914 3299.8992 3299.8992 3299.8992 3299.8992 3299.8992 3299.8992 3299.8992 3299.8992 3299.8992 3299.8992 3299.8992 3299.8992 3299.8992 3299.8992 2519.6135 

122.058105 122.058105 122.058105 122.058105 122.058105 122.058105 122.058105 122.058105 122.058105 122.058105 122.058105 122.058105 122.058105 122.058105 122.058105 122.058105 122.058105 122.058105 -7.1502686 42.90161 76.638794 57.302856 -48.742676 -179.46167 -204.63867 -155.9967 -47.836304 6.5460205 -13.192749 -92.85278 -138.97705 -96.17615 -46.224976 -19.033813 15.509033 13.696289 -2.7191162 -12.286377 -28.198242 -55.288696 -92.34924 -96.07544 -53.07312 8.560181 -68.28003 -109.57031 -24.874878 79.2572 122.25952 151.16272 158.61511 142.1997 117.12341 125.28076 116.922 106.75049 71.7041 50.05188 8.358765 -81.37207 -168.88733 -183.48999 -120.44678 -86.8103 -54.0802 -46.5271 0.10070801 78.552246 121.051025 129.91333 92.95349 108.462524 146.22803 199.80469 218.8385 213.8031 174.62769 45.117188 -97.98889 -171.30432 -202.02026 -245.42542 -247.03674 -163.85193 -125.7843 -122.36023 -151.56555 -175.23193 -140.48767 -86.50818 -62.438965 -86.91101 -80.56641 -56.799316 -28.198242 8.862305 8.560181 -6.7474365 -54.0802 -49.0448 -15.509033 -45.217896 -132.93457 -175.63477 -141.79688 -72.9126 15.509033 59.71985 48.742676 50.05188 47.836304 73.71826 76.23596 60.72693 90.737915 95.97473 101.61438 69.38782 32.125854 17.422485 29.910278 51.864624 119.64111 195.77637 180.16663 180.77087 204.13513 214.20593 210.88257 209.9762 183.08716 123.36731 90.5365 68.68286 4.7332764 -40.88745 -99.60022 -101.21155 -32.528687 27.090454 41.088867 21.954346 8.963013 -2.9205322 -4.8339844 -18.73169 39.578247 61.73401 14.401245 -90.43579 -229.91638 -308.67004 -371.41113 -408.06885 -336.969 -202.32239 -69.28711 -34.240723 -35.650635 -25.579834 6.9488525 39.88037 111.483765 173.41919 153.27759 130.01404 111.483765 99.298096 113.497925 127.39563 93.85986 40.88745 13.394165 3.2226562 -4.7332764 31.622314 58.914185 158.31299 220.85266 221.15479 147.1344 33.636475 -24.27063 -5.4382324 10.473633 -51.05896 -94.86694 -128.50342 -166.16821 -222.5647 -245.52612 -192.95654 -137.66785 -110.476685 -90.43579 -40.585327 41.89453 84.695435 104.63562 90.83862 31.420898 -6.5460205 16.113281 13.092041 -11.380005 41.290283 51.663208 -29.80957 -103.427124 -122.76306 -95.67261 -79.055786 -76.43738 -63.043213 -37.46338 -47.93701 -119.64111 -143.3075 
103.62854 108.66394 47.232056 -9.869385 80.96924 174.7284 195.47424 210.98328 240.69214 184.39636 75.4303 30.111694 32.93152 -57.000732 -110.77881 -134.94873 -105.74341 -86.91101 -99.3988 -90.63721 -87.716675 -74.62463 -42.196655 -1.1077881 -62.036133 -166.0675 -235.35461 -241.59851 -223.26965 -170.09583 -91.8457 -90.83862 -108.86536 -112.18872 -77.84729 -29.003906 21.853638 19.638062 26.184082 23.666382 24.975586 32.730103 24.27063 9.265137 105.23987 155.9967 158.11157 124.17297 80.667114 47.735596 39.37683 46.728516 61.6333 43.304443 56.295776 64.75525 104.73633 110.07385 75.531006 35.147095 20.443726 18.22815 25.78125 45.92285 6.0424805 -9.869385 -62.942505 -70.09277 -26.28479 6.1431885 -2.3162842 -49.649048 -66.76941 -47.634888 -31.32019 -37.46338 -70.09277 -70.999146 -58.71277 -55.18799 -59.417725 -60.72693 -70.19348 -105.03845 -105.23987 -97.787476 -61.12976 -9.063721 43.90869 62.64038 96.17615 160.22644 181.47583 169.08875 163.04626 136.96289 125.98572 89.730835 54.382324 66.26587 60.424805 43.606567 27.392578 19.436646 -17.321777 -12.588501 -44.311523 -57.10144 -37.060547 -6.9488525 9.869385 -27.79541 -49.0448 -23.76709 -24.069214 -16.314697 -27.593994 -9.466553 -12.789917 -44.613647 -64.25171 -74.92676 -112.69226 -109.57031 -25.982666 -0.10070801 -24.874878 -35.44922 -23.565674 -36.053467 -6.7474365 28.198242 47.43347 39.276123 35.751343 22.558594 42.800903 9.265137 -17.72461 -9.970093 8.660889 15.509033 24.27063 61.73401 52.06604 29.608154 -58.813477 -110.6781 -142.80396 -190.84167 -179.05884 -184.7992 -169.99512 -138.67493 -106.04553 -69.08569 -57.000732 -46.124268 -49.246216 -35.147095 -11.380005 5.7403564 0.70495605 17.422485 91.94641 136.15723 156.19812 192.25159 190.94238 158.01086 167.276 192.453 172.61353 146.53015 142.099 102.923584 103.22571 39.37683 2.8198242 -9.365845 -17.321777 12.991333 48.339844 52.56958 5.5389404 1.6113281 -9.365845 -13.595581 15.710449 39.074707 26.083374 -43.103027 -80.36499 -68.481445 -53.778076 -58.914185 -56.396484 -34.44214 -11.581421 11.077881 -8.963013 -53.07312 -113.80005 -127.79846 -95.06836 -99.09668 -94.06128 -70.999146 -50.55542 -49.44763 -22.25647 22.76001 56.900024 83.688354 86.206055 72.9126 91.64429 47.332764 
2927.9846 2732.8125 2904.016 2891.327 2879.242 2866.6533 2853.7627 2840.6707 2827.6794 2814.4866 2801.3945 2788.202 2775.4119 2762.622 2749.9329 2737.445 2724.4536 2729.187 2752.249 2773.1963 2793.8416 2812.8752 2831.8083 2850.4395 2868.7683 2886.795 2904.419 2921.9421 2939.264 2956.3843 2973.5046 2990.4236 3056.3872 -1419.3787 1419.278 3000.9978 2987.1 2972.4976 2957.9956 2942.1843 2925.3662 2667.453 2902.4048 2889.7156 2877.4292 2864.8406 2851.95 2838.858 2825.7659 2812.5732 2799.4812 2786.3892 2773.4985 2760.8093 2748.2207 2735.6323 2722.3389 2730.597 2753.357 2774.8076 2794.6472 2814.4866 2833.319 2851.7485 2869.6746 2887.6006 2905.1238 2922.8484 2940.0696 2957.2905 2974.3103 2991.1284 3224.6704 -937.69226 1935.7086 2996.869 2982.9712 2968.167 2951.8523 2937.0483 2882.7666 2393.7285 2899.9878 2887.2986 2875.0122 2862.4236 2849.6338 2836.5417 2823.3489 2810.1562 2797.1648 2784.0728 2771.283 2758.5938 2746.0051 2733.4167 2719.2168 2731.5032 2754.2632 2775.8147 2795.8557 2814.8894 2833.722 2852.4536 2870.6816 2888.6077 2906.2317 2923.8555 2941.0767 2958.2976 2975.3174 2992.1355 3225.1738 -1114.8376 1585.9497 2999.8901 2985.8916 2970.3826 2956.5857 2940.573 2922.647 2680.3435 2901.2969 2888.91 2876.6235 2864.1357 2851.1443 2838.0522 2824.8596 2811.6667 2798.5747 2785.5835 2772.6929 2760.0037 2747.415 2734.8267 2528.1738 2736.3372 2758.7952 2779.2388 2799.6826 2818.515 2837.3474 2855.8777 2874.1057 2892.0317 2909.7563 2927.179 2944.5007 2961.621 2978.54 2995.3582 -3136.2488 -908.0841 2428.07 2997.9766 2983.7769 2968.5698 2954.0679 2938.0554 2915.396 2678.3293 2900.0884 2887.5 2874.9114 2862.323 2849.4324 2836.2395 2823.1475 2809.9548 2796.8628 2783.8713 2771.0815 2758.3923 2745.7031 2733.2153 1882.132 2737.747 2760.0037 2781.253 2800.6897 2820.3276 2839.0593 2857.2876 2875.1128 2893.0388 2910.6628 2928.0852 2945.407 2962.5273 2979.547 2996.3652 -2779.541 -393.06335 2522.8362 2994.8547 2980.7556 2963.5344 2949.234 2934.8328 2875.1128 2781.253 2897.3694 2884.7808 2872.293 2859.7046 2846.7131 2833.621 2820.4285 2807.3364 2794.345 2781.253 2768.4631 2755.774 2743.2861 2730.6975 896.9055 2738.4521 
-2557.5806 -2545.8984 -2534.1155 -2522.7356 -2511.0535 -2499.7742 -2488.394 -2372.5798 740.8081 3299.8992 2510.0464 -15.408325 -1818.1824 -2492.8252 -2430.9905 -1746.6797 -2463.6199 -2452.4414 -2441.464 -2430.3862 -2419.812 -2409.2375 -2398.764 -2388.0889 -2378.018 -2367.7458 1570.34 3299.8992 3299.8992 3299.8992 3299.8992 3299.8992 3299.8992 3299.8992 3299.8992 3299.8992 3299.8992 3299.8992 -1966.8274 -2561.8103 -2549.524 -2537.8418 -2526.1597 -2514.4775 -2503.0974 -2491.919 -2480.6396 -2141.6565 1206.0791 3299.8992 2641.9739 316.9281 -1744.2627 -2040.3442 -2297.9553 -1780.8197 -2462.915 -2451.9377 -2440.8599 -2430.2856 -2419.2078 -2408.6333 -2398.1597 -2387.384 -2377.3132 -2367.041 2291.812 3299.8992 3299.8992 3299.8992 3299.8992 3299.8992 3299.8992 3299.8992 3299.8992 3299.8992 3299.8992 3046.9207 -2571.7803 -2559.7961 -2547.6104 -2535.8276 -2524.1455 -2512.4634 -2501.3855 -2489.9048 -2478.6255 -1907.6111 1743.7592 3299.8992 2225.8484 -100.10376 -2081.433 -2310.5437 -2273.886 -1519.986 -2459.6924 -2448.5137 -2437.5366 -2426.9622 -2416.0857 -2405.5115 -2394.937 -2384.3628 -2374.1912 -2364.0198 3245.819 3299.8992 3299.8992 3299.8992 3299.8992 3299.8992 3299.8992 3299.8992 3299.8992 3299.8992 3299.8992 2591.6199 -2568.6584 -2556.674 -2544.4885 -2532.7056 -2521.1243 -2509.5427 -2498.2634 -2486.8835 -2475.7048 -1703.5767 2137.2253 3299.8992 2102.7832 -39.175415 -2192.3125 -2485.8765 -2014.2609 -1448.0804 -2458.8867 -2447.8088 -2436.8315 -2426.2573 -2415.28 -2404.7058 -2394.2322 -2383.6577 -2373.4863 -2363.214 3299.8992 3299.8992 3299.8992 3299.8992 3299.8992 3299.8992 3299.8992 3299.8992 3299.8992 3299.8992 3299.8992 2187.8813 -2568.3562 -2556.372 -2544.1863 -2532.5042 -2520.9229 -2509.2407 -2498.062 -2486.6821 -2475.4028 -1482.8247 2387.8875 3299.8992 1601.1566 -465.271 -2493.3289 -2481.7473 -2295.1355 -1865.5151 -2451.132 -2440.155 -2429.2786 -2418.704 -2407.8276 -2397.354 -2386.7798 -2376.3062 -2366.2354 -2285.8704 3299.8992 3299.8992 3299.8992 3299.8992 3299.8992 3299.8992 3299.8992 3299.8992 3299.8992 3299.8992 3299.8992 1278.891 -2559.494 -2547.5098 -2535.324 -2523.8433 -2512.262 -2500.5798 -2489.4011 -2478.0212 -2466.9434 -1203.9642 2937.149 3299.8992 1926.5442 -69.68994 -2074.6855 -2200.3691 -1618.6798 -1247.168 -2458.786 -2447.5066 
906.06995 943.4326 216.62292 -2140.0452 -3290.634 -3275.125 -3260.2202 -3245.5168 -3231.015 -3216.8152 -3202.6152 -3188.8184 -3174.8198 -3161.1235 -3147.528 -3134.2346 -3120.9412 1177.7802 3299.8992 3299.8992 3299.8992 3299.8992 3299.8992 3299.8992 3299.8992 3299.8992 3299.8992 3299.8992 3299.8992 3299.8992 3288.922 1534.79 -510.89172 -1236.795 -1538.7177 -1793.3075 -1671.8536 -784.31396 -11.883545 380.17273 766.7908 947.8638 256.604 -2335.7207 -3280.8655 -3265.6584 -3250.653 -3236.1511 -3221.7498 -3207.55 -3193.451 -3179.5532 -3165.857 -3152.1606 -3138.9678 -3125.473 -3112.2803 1721.402 3299.8992 3299.8992 3299.8992 3299.8992 3299.8992 3299.8992 3299.8992 3299.8992 3299.8992 3299.8992 3299.8992 3299.8992 3292.2454 1377.3834 -512.8052 -1261.972 -1523.6115 -1655.539 -1535.5957 -506.56128 92.85278 472.42126 745.03784 835.2722 78.552246 -2602.7983 -3275.125 -3259.9182 -3245.114 -3230.612 -3216.4124 -3202.1118 -3188.0127 -3174.115 -3160.5193 -3146.9238 -3133.5295 -3120.236 -3005.429 2586.5845 3299.8992 3299.8992 3299.8992 3299.8992 3299.8992 3299.8992 3299.8992 3299.8992 3299.8992 3299.8992 3299.8992 3299.8992 3291.1377 1161.5662 -536.16943 -1157.4371 -1437.0026 -1648.4894 -1440.2252 -402.12708 150.55847 461.94763 749.06616 861.6577 -68.88428 -2925.1648 -3271.701 -3256.897 -3242.4956 -3227.893 -3213.5925 -3199.594 -3185.5957 -3171.698 -3158.1023 -3144.3054 -3131.1125 -3117.92 -2848.2239 2895.4558 3299.8992 3299.8992 3299.8992 3299.8992 3299.8992 3299.8992 3299.8992 3299.8992 3299.8992 3299.8992 3299.8992 3299.8992 3264.5508 1091.4734 -609.5856 -1187.4481 -1617.4713 -1727.3438 -1316.3544 -193.96362 334.14917 617.1387 845.1416 897.40906 -117.62695 -3044.5037 -3272.1038 -3256.7961 -3241.9922 -3227.5908 -3213.1897 -3198.9897 -3185.092 -3171.2952 -3157.5989 -3143.9026 -3130.7097 -3117.4163 -2408.029 3299.8992 3299.8992 3299.8992 3299.8992 3299.8992 3299.8992 3299.8992 3299.8992 3299.8992 3299.8992 3299.8992 3299.8992 3299.8992 3095.7642 582.89795 -939.00146 -1336.0931 -1649.6979 -1813.2477 -1194.4977 -146.63086 296.28296 475.94604 685.5194 734.2621 -458.22144 -3280.8655 -3265.3564 -3250.5522 -3236.2517 -3221.8506 -3207.55 -3193.451 -3179.6538 -3165.857 -3152.1606 -3138.6658 -3125.3723 -3112.1794 -2048.8037 3299.8992 
-3091.1316 -3076.0254 -3061.2212 -3046.7192 -3032.4187 -3018.1182 -3004.1199 -2990.2222 -2976.425 -2962.9302 -2949.3347 -2936.0413 -2922.8484 -2909.6558 -2896.6643 -2883.7737 -2871.1853 -2137.326 -1462.381 -111.18164 1507.6996 3299.8992 3299.8992 3299.8992 3299.8992 3299.8992 3299.8992 3299.8992 3299.8992 3299.8992 3299.8992 3299.8992 3299.8992 3299.8992 3299.8992 3299.8992 3299.8992 1836.8134 -3122.0488 -3106.5398 -3091.2322 -3076.5288 -3062.0269 -3047.4243 -3033.1238 -3019.0247 -3004.9255 -2991.0278 -2977.3315 -2963.5344 -2950.0396 -2936.847 -2923.5535 -2910.4614 -2897.5708 -2884.7808 -2871.991 -1868.1335 -1095.8038 263.04932 1842.9565 3299.8992 3299.8992 3299.8992 3299.8992 3299.8992 3299.8992 3299.8992 3299.8992 3299.8992 3299.8992 3299.8992 3299.8992 3299.8992 3299.8992 3299.8992 3299.8992 1160.7605 -3125.473 -3109.9639 -3095.2605 -3080.1543 -3065.451 -3050.8484 -3036.5479 -3022.348 -3008.2488 -2994.2505 -2980.4534 -2966.9585 -2953.363 -2939.9688 -2926.6753 -2913.5833 -2900.592 -2887.802 -2875.0122 -1709.1156 -1022.3877 203.43018 1865.0116 3299.8992 3299.8992 3299.8992 3299.8992 3299.8992 3299.8992 3299.8992 3299.8992 3299.8992 3299.8992 3299.8992 3299.8992 3299.8992 3299.8992 3299.8992 3299.8992 645.94116 -3126.48 -3111.0718 -3096.2676 -3081.1614 -3066.458 -3051.956 -3037.555 -3023.355 -3009.3567 -2995.459 -2981.5613 -2967.9656 -2954.4707 -2940.9758 -2927.8838 -2914.6912 -2901.6997 -2888.91 -2876.1199 -1955.3467 -1367.8162 1.1077881 1750.3052 3299.8992 3299.8992 3299.8992 3299.8992 3299.8992 3299.8992 3299.8992 3299.8992 3299.8992 3299.8992 3299.8992 3299.8992 3299.8992 3299.8992 3299.8992 3299.8992 61.834717 -3121.646 -3106.2378 -3091.5344 -3076.5288 -3061.7249 -3047.3235 -3032.9224 -3018.7224 -3004.9255 -2990.8264 -2977.1301 -2963.5344 -2949.939 -2936.6455 -2923.4526 -2910.3606 -2897.3694 -2884.6802 -2871.8901 -1934.7015 -1069.8212 393.36548 2126.1475 3299.8992 3299.8992 3299.8992 3299.8992 3299.8992 3299.8992 3299.8992 3299.8992 3299.8992 3299.8992 3299.8992 3299.8992 3299.8992 3299.8992 3299.8992 3299.8992 -802.1393 -3118.7256 -3103.418 -3088.211 -3073.6084 -3058.905 -3044.6045 -3030.2031 -3016.2048 -3002.2063 -2988.208 -2974.5117 -2961.0168 -2947.522 -2934.2285 -2921.0356 -2907.9436 -2895.053 -2882.1624 -2869.4731 -2051.825 
1339.1144 1633.9874 1476.0773 214.50806 -1259.6558 3208.0535 3224.5696 3240.8843 3256.897 3272.8088 3288.4185 3299.8992 -3280.5632 -3265.3564 -3250.1494 -3235.144 -3220.0378 244.61975 3299.8992 3299.8992 3299.8992 3299.8992 3299.8992 3296.475 3281.067 3265.6584 3250.0488 3233.7341 3218.527 3203.119 2708.9446 72.81189 -1394.6045 -1717.273 -1730.4657 -1635.498 -1290.7745 -167.07458 604.44946 1097.4152 1506.0883 1704.5837 1385.5408 4.6325684 -1418.9758 3207.852 3224.2676 3240.5823 3256.6956 3272.406 3288.1165 3299.8992 -3280.8655 -3265.5579 -3250.3508 -3235.3455 -3131.7168 685.92224 3299.8992 3299.8992 3299.8992 3299.8992 3299.8992 3293.3533 3278.1462 3262.5366 3246.9268 3230.612 3215.5059 3199.8962 2351.6326 -367.88635 -1697.6349 -1891.095 -1790.2863 -1616.3635 -1155.7251 9.063721 692.7704 1056.0242 1398.6328 1652.0142 1327.6337 -132.33032 -1407.0923 3211.0747 3227.5908 3243.805 3259.8174 3275.6287 3291.2383 3299.8992 -3277.7434 -3262.4358 -3247.3296 -3232.3242 -2945.3064 1130.9509 3299.8992 3299.8992 3299.8992 3299.8992 3299.8992 3293.5547 3278.1462 3262.6372 3247.0276 3230.713 3215.5059 3199.9968 2264.4194 -304.03748 -1524.6185 -1781.9275 -1751.2115 -1543.5516 -979.4861 108.76465 812.2101 1193.0878 1661.5814 1895.8282 1469.0277 11.883545 -1345.7611 3203.018 3219.5342 3235.8489 3251.8616 3267.7734 3283.5845 3299.1943 -3285.3972 -3270.0896 -3254.8828 -3239.7766 -2650.7354 1705.3894 3299.8992 3299.8992 3299.8992 3299.8992 3297.9858 3282.6782 3267.4712 3251.8616 3236.3525 3219.937 3204.9316 3189.4226 1889.0808 -712.0056 -1950.1099 -2095.23 -2120.3064 -1894.7205 -1207.2876 -21.954346 581.3873 994.29016 1383.728 1707.9071 1274.3591 -353.08228 -1675.6805 3213.1897 3229.605 3245.7183 3261.6301 3277.4414 3293.1519 -3291.2383 -3275.83 -3260.8245 -3245.6177 -3230.4106 -2419.107 1882.3334 3299.8992 3299.8992 3299.8992 3299.8992 3299.8992 3290.0298 3274.5208 3259.1125 3243.6035 3227.188 3212.0818 3196.4722 1753.9307 -663.46436 -1620.4926 -1764.7064 -1680.1117 -1450.1953 -649.8688 431.5338 845.4437 1180.1971 1497.7295 1621.3989 1041.8243 -624.0875 -2123.932 3210.269 3226.7852 3242.8984 3259.0117 3274.823 3290.332 3299.8992 -3278.549 -3263.3423 -3248.236 -3233.2305 -2039.2365 2354.8552 
-2988.3086 -2974.2095 -2960.5132 -2946.9177 -2933.7249 -2920.5322 -2907.3394 -2894.2473 -2881.3567 -2868.466 -2855.8777 -2843.289 -2830.8013 -2818.3135 -2805.9265 -2793.6401 -2781.4543 -2153.3386 -1574.5697 -840.3076 -128.50342 726.50757 2262.2039 3299.8992 3299.8992 3299.8992 3299.8992 3299.8992 3299.8992 3299.8992 3299.8992 3299.8992 3299.8992 3299.8992 3299.8992 3299.8992 3299.8992 2220.3093 -460.2356 -2839.9658 -2990.4236 -2976.526 -2962.8296 -2949.3347 -2935.8398 -2922.647 -2909.4543 -2896.3623 -2883.3708 -2870.7825 -2858.0933 -2845.404 -2832.9163 -2820.4285 -2808.0413 -2795.8557 -2783.5693 -1920.8038 -1359.3567 -697.9065 121.15173 1087.3444 2742.0776 3299.8992 3299.8992 3299.8992 3299.8992 3299.8992 3299.8992 3299.8992 3299.8992 3299.8992 3299.8992 3299.8992 3299.8992 3299.8992 3299.8992 1763.8 -905.365 -3008.7524 -2994.452 -2980.6548 -2966.9585 -2953.363 -2940.0696 -2926.6753 -2913.5833 -2900.6926 -2887.7014 -2874.9114 -2862.1216 -2849.4324 -2836.9446 -2824.5574 -2812.271 -2799.9846 -2787.6982 -2175.3936 -1632.6782 -991.87317 -275.13428 603.8452 2356.7688 3299.8992 3299.8992 3299.8992 3299.8992 3299.8992 3299.8992 3299.8992 3299.8992 3299.8992 3299.8992 3299.8992 3299.8992 3299.8992 3299.8992 1499.5422 -1167.4072 -3001.0986 -2986.8987 -2973.1018 -2959.4055 -2945.9106 -2932.5164 -2919.3237 -2906.1309 -2893.341 -2880.3496 -2867.459 -2854.8706 -2842.282 -2829.7942 -2817.4072 -2805.1208 -2792.7336 -2780.3467 -1975.3876 -1457.1442 -786.73096 28.601074 1005.0659 2773.9014 3299.8992 3299.8992 3299.8992 3299.8992 3299.8992 3299.8992 3299.8992 3299.8992 3299.8992 3299.8992 3299.8992 3299.8992 3299.8992 3299.8992 1097.6166 -1514.3463 -2997.5737 -2983.676 -2969.7783 -2956.1829 -2942.688 -2929.3945 -2916.2017 -2903.1096 -2890.1184 -2877.2278 -2864.3372 -2851.7485 -2839.1602 -2826.6724 -2814.2852 -2801.8982 -2789.6118 -2777.6274 -2214.2668 -1658.0566 -811.60583 56.900024 1062.7716 2986.798 3299.8992 3299.8992 3299.8992 3299.8992 3299.8992 3299.8992 3299.8992 3299.8992 3299.8992 3299.8992 3299.8992 3299.8992 3299.8992 3299.8992 1205.4749 -1285.9406 -2995.2576 -2981.3599 -2967.5627 -2953.9673 -2940.6738 -2926.9775 -2913.7847 -2900.7935 -2887.9028 -2874.9114 -2862.2222 -2849.6338 -2837.0452 -2824.4568 -2812.0696 -2799.7832 -2787.4968 -2729.5898 -1918.8904 

-126.690674 -66.87012 2.6184082 35.247803 32.32727 36.053467 51.260376 23.968506 38.269043 78.45154 62.338257 10.675049 -33.132935 -22.558594 16.21399 46.224976 49.44763 60.72693 134.04236 166.57104 137.66785 115.31067 148.64502 166.87317 185.80627 108.56323 -17.926025 -29.910278 -15.106201 -57.60498 -66.467285 -69.08569 -136.86218 -221.85974 -231.3263 -177.04468 -127.39563 -73.61755 -55.792236 -12.387085 27.191162 55.389404 73.81897 46.5271 2.2155762 6.4453125 31.82373 24.975586 29.003906 8.459473 -10.473633 -36.154175 -38.772583 -33.9386 -46.42639 -51.05896 -6.1431885 49.44763 114.4043 126.38855 102.21863 73.11401 54.68445 44.41223 69.38782 111.68518 122.36023 137.0636 157.70874 174.32556 192.55371 200.30823 151.36414 77.948 -11.380005 -116.922 -163.95264 -168.5852 -183.99353 -149.45068 -132.1289 -139.682 -180.97229 -200.50964 -193.56079 -152.1698 -119.036865 -72.30835 -25.177002 0.10070801 14.401245 15.811157 46.728516 82.88269 101.312256 119.13757 155.9967 199.70398 234.34753 183.5907 99.3988 45.52002 46.42639 34.140015 4.3304443 -71.502686 -101.412964 -54.0802 -29.30603 -23.968506 -11.480713 18.832397 11.682129 -28.097534 -34.140015 -16.314697 50.756836 82.9834 38.47046 12.789917 -17.72461 -6.4453125 21.75293 28.903198 -28.601074 -28.500366 -23.867798 -16.314697 0.60424805 5.3375244 -17.623901 -95.16907 -188.02185 -279.96826 -257.51038 -133.84094 -122.561646 -208.16345 -198.29407 -125.582886 -38.772583 6.6467285 33.032227 79.559326 132.0282 115.10925 84.2926 78.552246 115.41138 154.88892 203.53088 223.47107 162.2406 70.09277 36.35559 -4.3304443 -28.097534 -97.68677 -100.50659 -27.996826 -9.970093 -30.010986 -66.56799 -102.923584 -155.896 -175.83618 -174.32556 -115.008545 -57.10144 -83.184814 -127.49634 -158.4137 -156.50024 -74.62463 -4.3304443 45.01648 49.0448 77.44446 152.77405 193.15796 231.427 286.615 329.21448 385.0067 424.38354 375.74158 296.8872 227.7008 144.6167 80.76782 26.083374 -53.475952 -167.47742 -300.00916 -332.53784 -299.70703 -234.75037 -195.17212 -172.00928 -119.13757 
18.328857 -9.164429 -44.51294 -56.19507 -30.111694 -13.696289 -27.896118 0.30212402 22.76001 32.32727 53.57666 78.45154 59.317017 -37.96692 -100.40588 -115.10925 -110.980225 -104.73633 -96.98181 -36.154175 -20.947266 -28.399658 -36.154175 -14.099121 -29.608154 4.7332764 45.92285 30.615234 35.549927 72.006226 83.99048 61.029053 68.07861 67.37366 53.67737 57.907104 60.827637 32.730103 20.141602 -56.396484 -122.25952 -178.35388 -205.94788 -189.63318 -129.81262 -99.19739 -79.76074 -41.89453 -31.32019 31.521606 151.16272 228.50647 218.43567 149.24927 123.065186 97.283936 51.361084 25.680542 -16.012573 -29.708862 -58.511353 -94.46411 -133.74023 -157.2052 -189.43176 -142.40112 -66.87012 -20.443726 45.620728 128.90625 154.38538 105.6427 88.62305 103.930664 94.766235 104.23279 102.52075 119.94324 166.97388 97.18323 51.159668 28.097534 38.571167 36.254883 33.636475 0.20141602 -24.874878 -52.267456 -67.67578 -55.288696 -16.21399 5.1361084 -28.399658 -96.47827 -138.67493 -159.82361 -146.93298 -145.9259 -161.13281 -139.17847 -132.93457 -131.42395 -110.77881 -69.28711 -37.765503 33.535767 65.05737 49.145508 58.309937 97.18323 100.6073 92.04712 130.41687 185.50415 188.32397 165.06042 135.04944 118.73474 144.11316 108.462524 124.87793 119.4397 46.5271 -11.782837 -35.650635 -87.716675 -122.058105 -128.10059 -111.08093 -74.523926 -31.018066 13.293457 12.286377 -25.177002 -48.44055 -39.578247 -9.567261 -3.4240723 -36.657715 -47.93701 -84.695435 -104.937744 -122.25952 -149.85352 -191.54663 -128.50342 -74.020386 -47.131348 -16.71753 7.4523926 12.689209 -5.6396484 -3.2226562 33.132935 42.095947 87.41455 88.92517 93.45703 99.90234 61.12976 57.302856 23.464966 -46.42639 -75.93384 -52.468872 -72.20764 -64.151 -70.3949 -62.438965 -42.90161 10.070801 57.806396 66.36658 53.375244 66.26587 54.986572 37.86621 -7.1502686 -47.43347 -40.786743 -46.42639 -52.871704 -31.924438 -17.623901 -47.836304 -12.084961 40.283203 58.813477 81.37207 71.30127 47.332764 40.182495 68.07861 88.62305 73.31543 45.217896 4.4311523 10.977173 47.53418 38.36975 
2760.507 2781.6558 2801.6968 2820.529 2839.3616 2857.791 2875.9185 2893.8445 2911.3677 2928.7903 2946.112 2963.1316 2980.252 2997.0703 -2499.7742 -103.02429 2978.1372 2991.7327 2977.4321 2961.2183 2946.3135 2931.1064 2822.4426 2807.5378 2894.2473 2881.8604 2869.6746 2856.9854 2843.9941 2830.902 2817.81 2804.6172 2791.626 2778.7354 2765.9453 2753.256 2740.567 2728.079 -583.09937 2739.6606 2761.7156 2782.1594 2801.7974 2821.4355 2840.1672 2858.3953 2876.2207 2894.046 2911.67 2929.0923 2946.414 2963.4338 2980.4534 2997.2717 -2086.3677 407.86743 3000.9978 2987.1 2972.699 2957.089 2941.58 2926.8767 2503.7017 2900.6926 2891.9312 2879.3425 2866.8547 2854.2664 2841.275 2828.2837 2815.0908 2801.9988 2788.9067 2776.016 2763.2263 2750.6377 2738.0493 2725.4607 -2029.8706 2739.9626 2761.917 2782.965 2802.301 2822.0398 2840.6707 2858.798 2876.724 2894.4487 2912.0728 2929.3945 2946.817 2963.8367 2980.8562 2997.6746 -1953.836 503.84216 3000.1921 2986.5967 2972.0947 2955.2764 2941.0767 2926.7761 2785.2812 2901.599 2889.5142 2876.9255 2864.74 2852.0508 2839.0593 2825.9673 2812.8752 2799.6826 2786.6912 2773.9014 2761.1113 2748.523 2735.9343 2723.4465 2763.5283 2741.272 2763.2263 2783.4685 2803.711 2822.4426 2841.1743 2859.5032 2877.7312 2895.5566 2913.1804 2930.603 2947.824 2964.8438 2981.8633 2998.6816 -1816.4703 610.39124 2999.6887 2985.8916 2971.3896 2956.787 2941.4795 2925.6682 2781.3538 2900.894 2888.6077 2876.0193 2863.733 2850.9429 2837.9517 2824.8596 2811.7676 2798.5747 2785.5835 2772.6929 2760.1042 2747.415 2734.9272 2722.3389 2719.3176 2743.1853 2765.039 2785.1807 2804.8186 2824.356 2842.8862 2861.1145 2878.9397 2896.6643 2914.2883 2931.7107 2948.932 2966.0522 2982.9712 2999.6887 -1885.3546 720.9686 3000.4944 2986.798 2972.2961 2955.6792 2941.1772 2926.1719 2563.4216 2903.009 2890.924 2878.134 2865.6462 2852.7556 2839.7644 2826.6724 2813.4795 2800.3875 2787.2954 2774.5056 2761.8164 2749.1272 2736.5386 2723.7488 2724.2522 2747.7173 
-2436.5295 -2425.955 -2414.8772 -2404.303 -2393.8293 -2383.1543 -2372.9827 -2055.9539 3299.8992 3299.8992 3299.8992 3299.8992 3299.8992 3299.8992 3299.8992 3299.8992 3299.8992 3299.8992 3299.8992 910.6018 -2565.6372 -2553.8542 -2541.7693 -2529.9866 -2518.5059 -2506.8237 -2495.645 -2484.2651 -2473.0864 -961.8622 3160.4187 3299.8992 1799.9542 -7.2509766 -2229.2725 -2487.7898 -1906.1005 -1574.3683 -2461.1023 -2450.0244 -2439.148 -2428.473 -2417.395 -2406.8206 -2396.347 -2385.6719 -2375.3997 -1610.1196 3299.8992 3299.8992 3299.8992 3299.8992 3299.8992 3299.8992 3299.8992 3299.8992 3299.8992 3299.8992 3299.8992 127.697754 -2567.349 -2555.5664 -2543.3806 -2531.6985 -2520.1172 -2508.435 -2497.2563 -2485.977 -2474.7986 -757.52563 3299.8992 3299.8992 1292.1844 -548.3551 -2487.9912 -2486.38 -1484.9396 -1194.6991 -2463.6199 -2452.4414 -2441.464 -2430.89 -2419.812 -2409.2375 -2398.764 -2387.9883 -2377.9175 -1208.7982 3299.8992 3299.8992 3299.8992 3299.8992 3299.8992 3299.8992 3299.8992 3299.8992 3299.8992 3299.8992 3299.8992 -432.94373 -2568.2556 -2556.372 -2544.287 -2532.5042 -2521.0234 -2509.7441 -2498.062 -2486.8835 -2475.6042 -535.16235 3299.8992 3299.8992 774.7467 -848.36426 -2383.0535 -2445.996 -1724.5239 -1719.2871 -2459.2896 -2448.2117 -2437.3352 -2426.2573 -2415.7837 -2405.2092 -2394.7356 -2384.5642 -2373.8892 -684.1095 3299.8992 3299.8992 3299.8992 3299.8992 3299.8992 3299.8992 3299.8992 3299.8992 3299.8992 3299.8992 3299.8992 -396.1853 -2567.1477 -2554.8613 -2543.1792 -2531.497 -2519.9158 -2508.737 -2497.1558 -2485.7756 -2474.5972 -29.708862 3299.8992 3299.8992 496.6919 -928.3264 -2194.7295 -2338.44 -1895.6268 -2217.4895 -2457.4768 -2446.399 -2435.5225 -2424.4446 -2413.971 -2403.4973 -2392.9229 -2382.7515 -2372.2778 90.93933 3299.8992 3299.8992 3299.8992 3299.8992 3299.8992 3299.8992 3299.8992 3299.8992 3299.8992 3299.8992 3299.8992 -941.51917 -2565.5364 -2553.25 -2541.7693 -2529.9866 -2518.5059 -2507.2266 -2495.645 -2484.3657 -2463.5193 361.84387 3299.8992 3217.0166 407.4646 -1252.4048 -2438.2415 -2484.0637 -1756.247 -2037.1216 -2455.4626 -2444.3848 
3299.8992 3299.8992 3299.8992 3299.8992 3299.8992 3299.8992 3299.8992 3299.8992 3299.8992 3299.8992 3299.8992 3299.8992 2870.1782 373.02246 -1003.7567 -1419.278 -1792.804 -1872.6654 -1060.4553 -12.286377 351.47095 488.33313 837.8906 880.89294 -553.4912 -3275.9307 -3261.1267 -3246.121 -3231.3171 -3216.9158 -3202.716 -3188.7175 -3174.8198 -3161.1235 -3147.4272 -3134.0332 -3120.7397 -3107.7483 -1638.9221 3299.8992 3299.8992 3299.8992 3299.8992 3299.8992 3299.8992 3299.8992 3299.8992 3299.8992 3299.8992 3299.8992 3299.8992 3299.8992 2688.2996 202.4231 -1127.124 -1441.7358 -1636.8073 -1633.6853 -684.91516 255.19409 608.07495 741.7145 998.2178 821.87805 -803.3478 -3278.4485 -3262.9395 -3248.0347 -3233.8347 -3219.3328 -3205.133 -3191.1345 -3177.1362 -3163.44 -3149.7437 -3136.4502 -3122.9553 -3109.561 -1184.4269 3299.8992 3299.8992 3299.8992 3299.8992 3299.8992 3299.8992 3299.8992 3299.8992 3299.8992 3299.8992 3299.8992 3299.8992 3299.8992 2360.9985 58.813477 -1189.8651 -1520.6909 -1669.9402 -1613.2416 -618.04504 374.9359 788.3423 1052.298 1287.149 1074.353 -898.51685 -3284.1887 -3269.4854 -3254.2786 -3239.4744 -3224.9724 -3210.6719 -3196.5728 -3182.5745 -3168.6768 -3155.182 -3141.5862 -3128.2927 -3114.9993 -578.4668 3299.8992 3299.8992 3299.8992 3299.8992 3299.8992 3299.8992 3299.8992 3299.8992 3299.8992 3299.8992 3299.8992 3299.8992 3299.8992 2287.1794 29.205322 -1112.7228 -1486.6516 -1846.9849 -1879.01 -964.5813 16.415405 295.77942 425.39062 742.41943 443.8202 -1356.9397 -3275.125 -3259.616 -3244.9126 -3230.713 -3216.4124 -3202.2124 -3188.1133 -3174.2156 -3160.62 -3146.9238 -3133.6304 -3120.236 -3107.2449 99.90234 3299.8992 3299.8992 3299.8992 3299.8992 3299.8992 3299.8992 3299.8992 3299.8992 3299.8992 3299.8992 3299.8992 3299.8992 3299.8992 2114.4653 -111.483765 -1194.6991 -1569.4336 -1678.9032 -1558.255 -696.4966 109.3689 315.7196 486.92322 746.9513 375.13733 -1817.7795 -3269.8882 -3254.48 -3239.8772 -3225.778 -3211.377 -3197.2778 -3183.2793 -3169.4824 -3155.5847 -3142.0898 -3128.6956 -3115.6035 -3102.5115 686.9293 3299.8992 
-1127.7283 367.2821 2260.8948 3299.8992 3299.8992 3299.8992 3299.8992 3299.8992 3299.8992 3299.8992 3299.8992 3299.8992 3299.8992 3299.8992 3299.8992 3299.8992 3299.8992 3299.8992 3299.8992 -1314.2395 -3114.1936 -3098.886 -3083.7798 -3069.1772 -3054.5745 -3040.274 -3025.9734 -3011.8743 -2997.876 -2984.0789 -2970.3826 -2956.6863 -2943.3928 -2930.0994 -2916.9067 -2903.9153 -2891.1255 -2878.2349 -2865.4448 -1944.6716 -1116.8518 340.6952 2310.745 3299.8992 3299.8992 3299.8992 3299.8992 3299.8992 3299.8992 3299.8992 3299.8992 3299.8992 3299.8992 3299.8992 3299.8992 3299.8992 3299.8992 3299.8992 3299.8992 -2072.6714 -3108.252 -3092.9443 -3078.4424 -3063.5376 -3048.7334 -3034.3323 -3020.2332 -3006.134 -2992.1355 -2978.4392 -2964.743 -2951.248 -2937.7532 -2924.6611 -2911.4685 -2898.578 -2885.6873 -2872.998 -2705.6213 -1744.7662 -754.4037 517.0349 2362.9119 3299.8992 3299.8992 3299.8992 3299.8992 3299.8992 3299.8992 3299.8992 3299.8992 3299.8992 3299.8992 3299.8992 3299.8992 3299.8992 3299.8992 3299.8992 3299.8992 -2548.5168 -3104.727 -3089.7217 -3075.119 -3060.1135 -3045.5107 -3031.2102 -3016.9097 -3002.9114 -2989.0137 -2975.2166 -2961.5203 -2948.1262 -2934.732 -2921.64 -2908.4473 -2895.5566 -2882.666 -2869.9768 -2750.839 -1917.4805 -891.9708 639.798 2628.5796 3299.8992 3299.8992 3299.8992 3299.8992 3299.8992 3299.8992 3299.8992 3299.8992 3299.8992 3299.8992 3299.8992 3299.8992 3299.8992 3299.8992 3299.8992 3163.9434 -2999.8901 -3100.5981 -3085.391 -3070.3857 -3055.9844 -3041.4824 -3027.182 -3012.8813 -2999.0845 -2985.086 -2971.3896 -2957.7942 -2944.4 -2931.0059 -2917.813 -2904.721 -2891.8303 -2879.0405 -2866.3513 -2381.7444 -1551.2054 -305.04456 1219.8761 3173.3093 3299.8992 3299.8992 3299.8992 3299.8992 3299.8992 3299.8992 3299.8992 3299.8992 3299.8992 3299.8992 3299.8992 3299.8992 3299.8992 3299.8992 3299.8992 2777.426 -3119.229 -3103.72 -3088.7146 -3073.5076 -3059.0056 -3044.6045 -3030.2031 -3016.0034 -3002.005 -2988.1072 -2974.411 -2960.7146 -2947.3206 -2933.8257 -2920.7336 -2907.7422 -2894.6501 -2881.8604 -2869.0703 -2209.8357 -1246.7651 
3299.8992 3299.8992 3299.8992 3299.8992 3299.5972 3284.0881 3268.7805 3253.2715 3237.7625 3221.4478 3206.1401 3188.0127 1430.3558 -806.1676 -1723.2147 -1799.5514 -1735.0983 -1500.8514 -415.72266 770.11414 1152.4017 1336.6974 1633.4839 1795.5231 1152.5024 -650.0702 -2358.2793 3202.011 3218.4265 3234.6404 3250.653 3266.565 3282.2754 3297.9858 -3286.5051 -3271.399 -3255.9905 -3240.8843 -1593.5028 2905.728 3299.8992 3299.8992 3299.8992 3299.8992 3288.3179 3273.1108 3257.7026 3242.2942 3226.7852 3210.5713 3195.2637 3174.7192 1057.0312 -1118.2617 -1901.1658 -1926.6449 -1752.8229 -1479.8035 -526.40076 412.19788 872.937 1245.8588 1718.28 1850.2075 1030.2429 -647.4518 -2562.5151 3200.3997 3216.8152 3233.029 3249.1423 3264.9536 3280.7646 3296.2737 -3288.3179 -3273.0103 -3257.8032 -3242.5964 -1259.1522 3218.628 3299.8992 3299.8992 3299.8992 3299.8992 3284.3901 3269.0825 3253.8757 3238.4673 3222.8577 3206.7444 3191.4368 3162.332 783.5083 -1228.7384 -1954.7424 -1975.6897 -1860.0769 -1581.3171 -513.81226 533.2489 1019.06433 1294.0979 1543.3502 1569.8364 625.59814 -1089.7614 -3180.7617 3206.4421 3222.8577 3239.0715 3255.0842 3270.7947 3286.5051 3299.8992 -3282.5774 -3267.3706 -3252.1636 -3237.1582 -949.97864 3299.8992 3299.8992 3299.8992 3299.8992 3299.8992 3287.8142 3272.5066 3257.199 3241.7908 3226.0803 3209.967 3194.6594 3085.089 521.26465 -1386.2457 -2051.825 -2025.8423 -1880.4199 -1659.7687 -588.13477 344.01855 816.2384 1119.5709 1450.7996 1426.4282 518.042 -1031.6528 -3278.7505 3217.52 3233.8347 3249.8474 3265.8599 3281.5703 3297.1802 -3287.4114 -3272.1038 -3256.7961 -3241.7908 -3226.7852 -538.2843 3299.8992 3299.8992 3299.8992 3299.8992 3299.8992 3294.9646 3279.657 3264.2485 3248.639 3233.029 3216.8152 3201.6082 2975.7202 399.20654 -1348.883 -1918.689 -1978.6102 -1733.2855 -1361.0687 -201.61743 619.0521 1105.1697 1355.6305 1678.6011 1687.1613 575.0427 -981.60095 3198.0835 3214.9016 3231.1157 3247.229 3263.2415 3279.1533 3294.5618 -3289.9292 -3274.4202 -3259.314 -3244.2078 -3229.1016 -344.11926 3299.8992 
-1417.4652 -751.886 100.20447 1153.9124 3110.971 3299.8992 3299.8992 3299.8992 3299.8992 3299.8992 3299.8992 3299.8992 3299.8992 3299.8992 3299.8992 3299.8992 3299.8992 3299.8992 3299.8992 790.55786 -1648.1873 -2992.5383 -2978.6406 -2964.8438 -2951.248 -2937.854 -2924.6611 -2911.4685 -2898.175 -2885.4858 -2872.4944 -2859.8052 -2847.0154 -2834.5276 -2822.2412 -2809.7534 -2797.3662 -2785.2812 -2632.306 -1818.7866 -1193.2892 -433.44727 364.563 1524.6185 3299.8992 3299.8992 3299.8992 3299.8992 3299.8992 3299.8992 3299.8992 3299.8992 3299.8992 3299.8992 3299.8992 3299.8992 3299.8992 3299.8992 3234.439 433.8501 -1998.349 -2993.2434 -2979.2449 -2965.448 -2951.8523 -2938.4583 -2925.1648 -2911.972 -2898.9807 -2885.9893 -2872.998 -2860.4094 -2847.7202 -2835.2324 -2822.7446 -2810.2568 -2798.0713 -2785.9863 -2522.1313 -1797.4365 -1126.4191 -483.0963 264.96277 1436.9019 3299.8992 3299.8992 3299.8992 3299.8992 3299.8992 3299.8992 3299.8992 3299.8992 3299.8992 3299.8992 3299.8992 3299.8992 3299.8992 3299.8992 3080.7585 210.88257 -2243.7744 -2991.1284 -2977.1301 -2963.5344 -2949.939 -2936.444 -2923.2512 -2909.9578 -2896.9666 -2884.076 -2871.286 -2858.5967 -2845.9075 -2833.4197 -2820.932 -2808.444 -2796.1577 -2783.9722 -2605.1147 -1927.5513 -1218.1641 -368.3899 541.0034 1878.5065 3299.8992 3299.8992 3299.8992 3299.8992 3299.8992 3299.8992 3299.8992 3299.8992 3299.8992 3299.8992 3299.8992 3299.8992 3299.8992 3299.8992 2972.699 209.67407 -2249.414 -2992.035 -2978.1372 -2964.441 -2950.8452 -2937.3503 -2924.057 -2910.9648 -2897.9736 -2884.9822 -2871.991 -2859.4023 -2846.7131 -2834.2253 -2821.7375 -2809.3506 -2797.0642 -2784.7778 -2394.7356 -1768.9362 -1171.5363 -397.89734 518.94836 1819.5923 3299.8992 3299.8992 3299.8992 3299.8992 3299.8992 3299.8992 3299.8992 3299.8992 3299.8992 3299.8992 3299.8992 3299.8992 3299.8992 3299.8992 2720.2239 -72.10693 -2498.062 -2990.625 -2976.828 -2963.1316 -2949.6367 -2936.1418 -2922.9492 -2909.8572 -2896.7651 -2883.975 -2870.984 -2858.1938 -2845.706 -2833.2183 -2820.7305 -2808.444 -2796.0571 -2783.8713 -2020.7062 -1417.3645 

-100.6073 -80.26428 -51.5625 -41.793823 -55.389404 -60.525513 -83.48694 -72.509766 -70.09277 -122.15881 -157.91016 -172.41211 -129.91333 -57.10144 -13.092041 4.9346924 23.565674 77.545166 131.82678 174.62769 209.17053 232.23267 256.604 265.16418 281.98242 246.33179 224.07532 212.99744 146.22803 59.518433 6.9488525 -62.13684 -132.1289 -182.98645 -194.76929 -194.26575 -219.84558 -263.15002 -303.83606 -253.58276 -205.84717 -157.30591 -93.65845 -64.85596 -63.848877 -1.1077881 88.723755 121.65527 117.92908 114.10217 85.09827 24.77417 12.689209 29.507446 45.721436 21.047974 -38.36975 -62.13684 -44.0094 -0.30212402 32.93152 43.40515 48.239136 89.42871 159.42078 138.2721 117.62695 96.98181 69.08569 74.2218 82.177734 46.728516 -13.394165 -49.850464 5.8410645 0.30212402 6.7474365 -40.98816 -51.159668 1.5106201 42.196655 71.09985 94.766235 76.7395 32.83081 20.040894 -33.132935 -106.04553 -175.93689 -220.34912 -206.65283 -203.22876 -162.1399 -104.837036 -66.36658 -22.961426 -16.616821 4.4311523 15.408325 33.636475 59.518433 18.22815 -21.652222 -15.005493 3.0212402 1.3092041 51.965332 103.829956 149.7528 177.14539 203.53088 237.36877 220.95337 200.50964 188.22327 196.38062 244.11621 212.09106 140.18555 43.103027 -42.297363 -103.72925 -119.84253 -170.09583 -226.3916 -253.9856 -309.57642 -308.77075 -269.0918 -232.33337 -169.7937 -142.80396 -104.434204 -75.83313 -52.871704 -59.71985 -65.3595 -45.92285 3.8269043 83.48694 132.93457 66.467285 20.443726 71.80481 172.3114 222.16187 270.70312 313.50403 282.18384 202.62451 119.036865 19.839478 -88.723755 -171.80786 -202.32239 -207.35779 -228.70789 -293.36243 -328.3081 -293.0603 -220.34912 -135.25085 -79.86145 -68.481445 -51.461792 57.70569 118.73474 121.25244 92.85278 53.778076 34.84497 18.832397 61.6333 74.32251 69.28711 58.20923 -18.429565 -112.69226 -138.97705 -116.015625 -94.06128 -68.78357 -38.269043 45.217896 97.68677 84.191895 95.16907 122.76306 143.71033 150.05493 151.16272 132.22961 102.72217 69.38782 11.380005 -36.758423 -37.060547 -81.97632 -87.51526 -77.44446 
55.59082 60.021973 42.90161 39.98108 55.389404 16.21399 8.157349 2.5177002 19.033813 55.59082 88.42163 110.07385 51.864624 -76.33667 -171.60645 -227.80151 -212.5946 -195.97778 -159.01794 -70.495605 -32.226562 -50.354004 -45.01648 -37.564087 -13.796997 71.09985 92.95349 26.184082 -22.659302 -59.014893 -41.89453 10.876465 92.44995 124.575806 104.63562 101.21155 109.67102 130.11475 137.96997 95.97473 77.44446 51.05896 33.032227 15.911865 6.7474365 -64.151 -105.23987 -125.88501 -113.1958 -93.35632 -57.806396 -33.83789 -61.532593 -116.61987 -119.036865 -101.71509 -82.07703 -72.40906 -64.151 -44.311523 -39.47754 -21.047974 20.141602 35.85205 -11.581421 3.5247803 0.70495605 -14.099121 -20.947266 -5.3375244 -14.401245 6.3446045 67.17224 113.39722 69.1864 61.532593 44.51294 77.44446 97.88818 87.716675 79.559326 69.28711 38.47046 52.670288 74.42322 32.125854 -34.84497 -103.62854 -97.283936 -24.27063 2.2155762 -10.473633 -99.801636 -151.46484 -129.91333 -103.829956 -70.09277 -60.827637 -52.368164 -43.707275 -21.24939 19.940186 56.396484 27.996826 -33.83789 -29.205322 -20.74585 1.2084961 27.79541 58.61206 86.709595 134.6466 144.31458 124.87793 153.3783 200.20752 201.41602 244.82117 216.72363 129.81262 13.897705 -95.773315 -120.64819 -66.26587 -43.40515 -118.13049 -149.95422 -180.06592 -169.693 -125.18005 -78.25012 -25.881958 -33.233643 -37.564087 -7.9559326 -17.019653 -52.56958 -85.80322 -84.39331 -61.834717 -42.700195 -19.335938 -5.0354004 -44.41223 -65.05737 13.696289 50.253296 53.274536 45.52002 13.092041 -25.378418 -29.507446 18.429565 46.42639 40.786743 45.217896 16.113281 41.39099 16.012573 -3.2226562 -4.6325684 -23.968506 -47.93701 -28.097534 -8.056641 -12.387085 22.457886 31.723022 13.897705 15.811157 28.097534 79.45862 54.18091 28.80249 19.134521 -20.645142 -91.744995 -158.71582 -145.01953 -102.923584 -62.438965 -31.924438 -34.240723 -50.152588 -55.59082 -5.1361084 15.005493 46.02356 86.50818 98.19031 93.96057 125.38147 150.75989 146.53015 133.03528 86.91101 45.52002 52.871704 -50.152588 -149.55139 
2769.2688 2789.9138 2809.4512 2828.1829 2846.7131 2865.1428 2883.1694 2900.9949 2918.4172 2935.8398 2953.1616 2970.0806 2986.9995 3003.9185 -1650.9064 1037.3932 3001.4006 2987.503 2973.001 2957.7942 2943.5942 2926.6753 2499.2705 2903.311 2891.226 2878.5369 2866.2505 2853.5613 2840.4692 2827.3772 2814.1846 2801.0925 2788.101 2775.3113 2762.4207 2749.832 2737.2437 2724.2522 2727.9785 2751.1414 2772.4915 2792.5322 2812.3718 2830.902 2849.4324 2867.7612 2885.7878 2903.5125 2921.1365 2938.4583 2955.5786 2972.4976 2989.517 3029.8003 -1347.3724 1449.4904 3000.0916 2986.1938 2971.591 2957.19 2942.2852 2925.4668 2601.7913 2901.6997 2889.5142 2876.6235 2864.035 2851.1443 2838.0522 2824.9602 2811.8682 2798.6755 2785.785 2772.8943 2760.1042 2747.5159 2735.028 2721.7346 2729.5898 2752.3499 2773.599 2794.1436 2813.278 2832.614 2850.9429 2868.9697 2886.795 2904.5195 2921.9421 2939.264 2956.4849 2973.5046 2990.4236 3143.7012 -1225.5157 1886.966 2997.6746 2983.676 2969.174 2954.5715 2939.7673 2923.654 2704.5134 2899.3835 2887.1978 2874.2065 2861.618 2848.6267 2835.5347 2822.5432 2809.3506 2796.3591 2783.368 2770.4773 2757.788 2745.1995 2732.8125 2719.1162 2730.2947 2753.1555 2774.4048 2794.8486 2814.2852 2832.7148 2851.245 2869.574 2887.6006 2905.2246 2922.7478 2940.0696 2957.2905 2974.3103 2991.2292 3294.9646 -988.5498 1796.5302 2997.0703 2983.1726 2966.6565 2952.356 2936.9475 2917.7124 2292.7185 2899.9878 2888.1042 2875.3142 2862.9272 2850.238 2837.146 2824.054 2810.7605 2797.6685 2784.7778 2771.8872 2759.0972 2746.5088 2734.021 2630.6946 2734.6252 2757.083 2778.131 2797.8699 2817.105 2836.2395 2854.7698 2872.6958 2890.4204 2908.0444 2925.4668 2942.7886 2959.909 2977.0293 2993.8477 -3211.2761 -957.63245 2031.4819 2998.2788 2984.2803 2969.577 2953.9673 2938.7603 2923.1506 2619.818 2900.592 2888.7085 2875.6165 2862.9272 2849.8352 2836.8438 2823.7517 2810.4583 2797.3662 2784.4756 2771.6858 2758.8958 2746.3074 2733.7188 2037.4237 2737.747 2760.1042 
-2433.609 -2422.531 -2412.0574 -2401.6846 -2391.11 -2380.9387 -2370.465 619.55566 3299.8992 3299.8992 3299.8992 3299.8992 3299.8992 3299.8992 3299.8992 3299.8992 3299.8992 3299.8992 3299.8992 -1400.9491 -2563.8245 -2551.6387 -2539.9565 -2528.2744 -2516.7937 -2505.5144 -2493.933 -2482.6538 -2369.0552 697.40295 3299.8992 2847.4182 197.3877 -1498.1323 -2276.7058 -2345.993 -1625.2258 -2343.274 -2452.3406 -2441.162 -2430.3862 -2419.4092 -2408.9355 -2398.462 -2387.8875 -2377.8167 -2367.4438 1492.0898 3299.8992 3299.8992 3299.8992 3299.8992 3299.8992 3299.8992 3299.8992 3299.8992 3299.8992 3299.8992 3299.8992 -2246.292 -2559.9976 -2547.8118 -2536.2305 -2524.5483 -2512.9668 -2501.9897 -2490.3076 -2479.0283 -2248.2056 1034.5734 3299.8992 2411.3525 -38.571167 -1618.7805 -2313.162 -2475.2014 -2113.0554 -2454.7576 -2443.7805 -2432.7026 -2422.0276 -2411.1511 -2400.778 -2390.2039 -2379.9316 -2369.8608 -2359.2864 2022.3175 3299.8992 3299.8992 3299.8992 3299.8992 3299.8992 3299.8992 3299.8992 3299.8992 3299.8992 3299.8992 3052.057 -2564.1265 -2551.941 -2539.7551 -2528.1738 -2516.5923 -2505.011 -2493.933 -2482.3516 -2471.173 -1962.497 1594.107 3299.8992 2566.342 314.91394 -2090.1946 -2482.251 -2357.5745 -1769.1376 -2452.542 -2441.3635 -2430.487 -2419.7112 -2408.8347 -2398.5625 -2387.9883 -2377.6152 -2367.6453 -2357.0708 2929.9988 3299.8992 3299.8992 3299.8992 3299.8992 3299.8992 3299.8992 3299.8992 3299.8992 3299.8992 3299.8992 2802.4016 -2563.3208 -2551.1353 -2538.9495 -2527.3682 -2515.8875 -2504.306 -2493.228 -2481.7473 -2470.5688 -1813.0463 1989.0839 3299.8992 2064.8162 -174.7284 -2259.8877 -2372.4792 -2225.3447 -1540.8325 -2451.0315 -2439.8528 -2429.0771 -2418.2007 -2407.3242 -2396.9512 -2386.5784 -2376.1047 -2366.1345 -2355.7617 3299.8992 3299.8992 3299.8992 3299.8992 3299.8992 3299.8992 3299.8992 3299.8992 3299.8992 3299.8992 3299.8992 2120.8098 -2559.9976 -2547.9126 -2535.8276 -2524.347 -2512.6648 -2501.3855 -2489.7034 -2478.726 -2467.4468 -1489.27 2532.3027 3299.8992 2154.547 19.839478 -2174.9907 -2285.1653 -2004.3915 -1593.5028 -2453.4485 -2442.3706 -2431.3933 
3299.8992 3299.8992 3299.8992 3299.8992 3299.8992 3299.8992 3299.8992 3299.8992 3299.8992 3299.8992 3299.8992 3299.8992 1819.5923 -211.68823 -1132.0587 -1401.0498 -1670.7458 -1694.3115 -697.50366 193.35938 543.82324 737.78687 1044.8456 524.7894 -1751.0101 -3270.5933 -3255.9905 -3240.985 -3226.3823 -3212.0818 -3197.9827 -3183.8835 -3170.0867 -3156.491 -3142.8955 -3129.4006 -3116.2078 -3103.1157 1077.1729 3299.8992 3299.8992 3299.8992 3299.8992 3299.8992 3299.8992 3299.8992 3299.8992 3299.8992 3299.8992 3299.8992 3299.8992 3299.8992 1748.3917 -145.01953 -991.3696 -1239.917 -1454.8279 -1398.8342 -340.6952 400.91858 636.77673 741.1102 1080.899 417.23328 -2168.2434 -3278.0457 -3262.6372 -3247.8333 -3233.6333 -3219.2322 -3205.0322 -3190.933 -3177.0354 -3163.339 -3149.7437 -3136.148 -3122.9553 -3109.7625 1484.9396 3299.8992 3299.8992 3299.8992 3299.8992 3299.8992 3299.8992 3299.8992 3299.8992 3299.8992 3299.8992 3299.8992 3299.8992 3296.7773 1461.9781 -407.66602 -1118.6646 -1413.8397 -1584.7412 -1494.7083 -533.85315 65.76233 200.91248 390.64636 655.91125 -94.262695 -2697.4639 -3268.1763 -3253.6743 -3238.7695 -3224.1667 -3209.8662 -3195.767 -3181.8694 -3167.9717 -3154.3762 -3140.8813 -3127.7893 -3114.395 -3049.7405 2384.967 3299.8992 3299.8992 3299.8992 3299.8992 3299.8992 3299.8992 3299.8992 3299.8992 3299.8992 3299.8992 3299.8992 3299.8992 3297.885 1134.8785 -620.46204 -1310.1105 -1680.011 -1824.0234 -1536.5021 -433.24585 156.19812 475.14038 736.8805 1101.3428 265.66772 -2511.9597 -3266.162 -3250.8545 -3236.2517 -3222.052 -3207.852 -3193.8538 -3179.7546 -3165.9575 -3152.362 -3138.7664 -3125.5737 -3112.1794 -2836.441 3055.9844 3299.8992 3299.8992 3299.8992 3299.8992 3299.8992 3299.8992 3299.8992 3299.8992 3299.8992 3299.8992 3299.8992 3299.8992 3238.7695 870.1172 -821.67664 -1441.2323 -1740.4358 -1880.3192 -1445.2606 -334.85413 289.4348 520.6604 752.1881 949.97864 -32.025146 -3032.9224 -3260.7239 -3245.5168 -3230.9143 -3216.8152 -3202.716 -3188.4155 -3174.7192 -3160.922 -3147.4272 -3133.9324 -3120.4375 -3107.3455 -2562.1123 3299.8992 3299.8992 
23.464966 1532.1716 3299.8992 3299.8992 3299.8992 3299.8992 3299.8992 3299.8992 3299.8992 3299.8992 3299.8992 3299.8992 3299.8992 3299.8992 3299.8992 3299.8992 3299.8992 3299.8992 2318.097 -3124.2644 -3108.7554 -3093.6492 -3079.1472 -3064.1418 -3049.539 -3035.138 -3020.938 -3006.8389 -2993.042 -2979.1443 -2965.6494 -2952.0537 -2938.6597 -2925.4668 -2912.4756 -2899.3835 -2886.493 -2873.8037 -1990.9973 -1377.2827 -64.453125 1513.0371 3299.8992 3299.8992 3299.8992 3299.8992 3299.8992 3299.8992 3299.8992 3299.8992 3299.8992 3299.8992 3299.8992 3299.8992 3299.8992 3299.8992 3299.8992 3299.8992 1939.5355 -3126.0771 -3110.568 -3095.3613 -3080.96 -3065.9546 -3051.4526 -3037.152 -3022.7507 -3008.7524 -2994.8547 -2981.0576 -2967.2607 -2953.7659 -2940.4724 -2927.179 -2914.087 -2901.0955 -2888.2048 -2875.5156 -1996.8384 -1149.884 104.13208 1691.6931 3299.8992 3299.8992 3299.8992 3299.8992 3299.8992 3299.8992 3299.8992 3299.8992 3299.8992 3299.8992 3299.8992 3299.8992 3299.8992 3299.8992 3299.8992 3299.8992 1519.1803 -3128.4941 -3113.086 -3097.879 -3082.8735 -3068.3716 -3053.9702 -3039.569 -3025.3691 -3011.27 -2997.2717 -2983.5754 -2969.8792 -2956.2834 -2942.99 -2929.6965 -2916.403 -2903.4119 -2890.6218 -2877.832 -1918.3868 -1213.2294 220.95337 1937.9242 3299.8992 3299.8992 3299.8992 3299.8992 3299.8992 3299.8992 3299.8992 3299.8992 3299.8992 3299.8992 3299.8992 3299.8992 3299.8992 3299.8992 3299.8992 3299.8992 810.39734 -3129.4006 -3113.8916 -3098.9868 -3083.8806 -3069.2778 -3054.776 -3040.4753 -3026.2756 -3012.1765 -2998.178 -2984.4817 -2970.7854 -2957.089 -2943.7957 -2930.4016 -2917.3096 -2904.318 -2891.5283 -2878.7383 -1868.0328 -1123.7 272.21375 2007.4127 3299.8992 3299.8992 3299.8992 3299.8992 3299.8992 3299.8992 3299.8992 3299.8992 3299.8992 3299.8992 3299.8992 3299.8992 3299.8992 3299.8992 3299.8992 3299.8992 158.81653 -3128.0913 -3112.683 -3097.6775 -3083.075 -3068.0693 -3053.4668 -3039.1663 -3024.9663 -3010.968 -2997.0703 -2983.0718 -2969.577 -2955.9814 -2942.5872 -2929.2937 -2916.2017 -2903.311 -2890.4204 -2877.6306 -1814.0533 -1199.5331 
3299.8992 3299.8992 3299.8992 3299.8992 3291.4397 3276.132 3260.7239 3245.2148 3229.5044 3213.391 3198.0835 2877.9326 261.5387 -1401.0498 -1958.2672 -1939.2334 -1902.5757 -1557.1472 -444.32373 459.53064 948.468 1259.7565 1577.591 1343.2434 59.71985 -1394.5038 3208.6577 3225.2747 3241.388 3257.4004 3273.2117 3289.0227 3299.8992 -3280.2612 -3264.8528 -3249.646 -3234.6404 -3219.4336 297.59216 3299.8992 3299.8992 3299.8992 3299.8992 3299.8992 3296.6765 3281.1675 3265.8599 3250.3508 3234.7412 3218.4265 3203.119 2782.0586 150.25635 -1289.2639 -1747.4854 -1739.328 -1587.561 -1197.2168 8.358765 752.69165 1146.8628 1397.2229 1706.5979 1509.4116 203.53088 -1198.0225 3201.004 3217.8223 3234.0361 3250.0488 3265.9607 3281.8726 3297.4822 -3287.3108 -3271.701 -3256.5947 -3241.4885 -3169.7844 535.3638 3299.8992 3299.8992 3299.8992 3299.8992 3299.8992 3288.3179 3272.9094 3257.7026 3242.1936 3226.4832 3210.269 3194.9614 2561.8103 -112.08801 -1571.347 -1882.2327 -1794.516 -1613.6444 -1182.8156 13.595581 727.61536 1088.855 1434.9884 1750.2045 1329.6478 -220.047 -1629.8584 3203.7231 3220.3398 3236.6545 3252.5664 3268.579 3284.1887 3299.8992 -3284.8938 -3269.3848 -3254.1777 -3239.273 -2967.0593 1002.6489 3299.8992 3299.8992 3299.8992 3299.8992 3299.8992 3287.4114 3272.0032 3256.4941 3240.985 3225.476 3209.262 3193.8538 2133.5999 -535.5652 -1818.5852 -2049.408 -1952.3254 -1799.0479 -1294.5007 -224.98169 466.07666 995.39795 1442.8436 1826.8433 1429.248 -171.1029 -1497.9309 3211.8804 3228.3965 3244.5098 3260.623 3276.3335 3292.044 3299.8992 -3277.0386 -3261.731 -3246.524 -3231.72 -2835.5347 1227.4292 3299.8992 3299.8992 3299.8992 3299.8992 3299.8992 3293.2524 3277.8442 3262.3352 3246.8262 3231.1157 3215.0024 3199.594 2139.6423 -372.51892 -1583.9355 -1743.457 -1736.6089 -1561.4777 -966.39404 162.94556 756.41785 1136.3892 1453.3173 1769.1376 1346.7682 -242.10205 -1704.9866 3208.8591 3225.3752 3241.5894 3257.6018 3273.5137 3289.1235 3299.8992 -3279.959 -3264.5508 -3249.4446 -3234.439 -2469.8638 1947.29 3299.8992 
-841.6168 -134.44519 731.8451 2237.0269 3299.8992 3299.8992 3299.8992 3299.8992 3299.8992 3299.8992 3299.8992 3299.8992 3299.8992 3299.8992 3299.8992 3299.8992 3299.8992 3299.8992 2273.886 -543.4204 -2869.6746 -2993.4448 -2979.547 -2965.75 -2952.356 -2938.861 -2925.5676 -2912.3748 -2899.2827 -2886.5935 -2873.703 -2860.913 -2848.3245 -2835.8367 -2823.3489 -2811.0625 -2798.7761 -2786.5906 -2421.8262 -1884.9518 -1146.2585 -246.23108 687.9364 2258.5784 3299.8992 3299.8992 3299.8992 3299.8992 3299.8992 3299.8992 3299.8992 3299.8992 3299.8992 3299.8992 3299.8992 3299.8992 3299.8992 3299.8992 2190.097 -502.53296 -2842.6848 -2990.625 -2976.7273 -2963.031 -2949.5361 -2936.2427 -2922.8484 -2909.7563 -2896.7651 -2883.8745 -2870.984 -2858.1938 -2845.5046 -2833.0168 -2820.529 -2808.2427 -2795.9563 -2783.7708 -2300.3723 -1665.4083 -1018.6615 -298.49854 563.86414 2190.4998 3299.8992 3299.8992 3299.8992 3299.8992 3299.8992 3299.8992 3299.8992 3299.8992 3299.8992 3299.8992 3299.8992 3299.8992 3299.8992 3299.8992 1910.1288 -655.81055 -2961.5203 -2986.6973 -2972.9004 -2959.3047 -2945.7092 -2932.315 -2919.1223 -2905.9294 -2893.0388 -2880.1482 -2867.2576 -2854.6692 -2842.0806 -2829.5928 -2817.105 -2804.8186 -2792.5322 -2780.2458 -2014.8651 -1483.3282 -769.6106 36.557007 879.3823 2602.4963 3299.8992 3299.8992 3299.8992 3299.8992 3299.8992 3299.8992 3299.8992 3299.8992 3299.8992 3299.8992 3299.8992 3299.8992 3299.8992 3299.8992 1894.7205 -686.7279 -3002.5085 -2990.7256 -2976.828 -2963.1316 -2949.6367 -2936.3433 -2923.0498 -2909.8572 -2896.9666 -2883.975 -2871.0845 -2858.3953 -2845.807 -2833.2183 -2820.8313 -2808.444 -2796.1577 -2781.4543 -1823.2178 -1312.2253 -644.0277 172.2107 984.7229 2658.9934 3299.8992 3299.8992 3299.8992 3299.8992 3299.8992 3299.8992 3299.8992 3299.8992 3299.8992 3299.8992 3299.8992 3299.8992 3299.8992 3299.8992 1224.2065 -1231.2561 -3005.0261 -2990.8264 -2976.9287 -2963.333 -2949.7375 -2936.444 -2923.2512 -2910.0586 -2897.168 -2884.1765 -2871.3867 -2858.5967 -2845.9075 -2833.4197 -2821.0327 -2808.6455 -2796.3591 -2639.3555 -1648.9929 -1192.0807 

-78.652954 -79.055786 -90.63721 -84.99756 -87.213135 -66.36658 -69.38782 0.70495605 61.431885 60.62622 29.406738 -45.822144 -43.606567 -17.926025 -1.6113281 36.657715 82.78198 131.22253 129.5105 116.41846 137.96997 139.27917 133.53882 133.2367 134.74731 112.39014 99.49951 55.892944 62.942505 46.224976 2.8198242 -71.90552 -153.3783 -181.1737 -154.28467 -131.22253 -114.4043 -153.57971 -149.24927 -142.1997 -131.32324 -103.125 -61.029053 -13.595581 9.567261 40.88745 15.005493 11.984253 74.82605 124.77722 129.71191 80.26428 29.003906 -7.7545166 -21.450806 -40.48462 -100.00305 -101.01013 -62.539673 -9.365845 -21.954346 -37.96692 -44.110107 -10.574341 15.710449 22.055054 67.07153 76.538086 35.85205 1.0070801 1.3092041 -0.80566406 2.6184082 30.81665 65.15808 79.35791 84.99756 29.80957 5.3375244 7.9559326 10.473633 0.70495605 2.5177002 -25.579834 -27.694702 -5.7403564 7.3516846 43.50586 76.43738 72.9126 58.511353 49.145508 58.410645 69.28711 78.35083 60.424805 6.1431885 -39.779663 -66.26587 -35.046387 -25.27771 -73.013306 -112.79297 -66.76941 -16.314697 -8.258057 -16.516113 -46.124268 -65.963745 -91.44287 -86.40747 -67.8772 -40.182495 -15.408325 -16.918945 -12.991333 -13.696289 -47.53418 -42.90161 -39.47754 -52.368164 -56.69861 -69.89136 -66.76941 -31.018066 -6.6467285 4.7332764 76.94092 176.0376 216.42151 211.1847 197.4884 213.7024 203.22876 120.84961 4.5318604 -67.37366 -122.25952 -167.98096 -187.01477 -190.33813 -174.92981 -111.78589 -45.52002 -50.656128 -70.69702 -26.687622 30.715942 42.095947 60.62622 91.34216 98.0896 82.681274 83.184814 91.04004 69.38782 -26.083374 -138.47351 -152.77405 -133.13599 -66.467285 -26.184082 -43.606567 -69.08569 -11.581421 71.09985 136.15723 180.16663 180.36804 153.88184 117.022705 83.08411 64.25171 6.5460205 -81.37207 -172.3114 -198.99902 -142.70325 -69.1864 -39.88037 -51.965332 -44.613647 -0.50354004 78.95508 107.35474 122.46094 127.697754 119.33899 92.14783 35.147095 8.157349 -11.279297 -37.060547 -29.507446 -12.689209 -10.977173 -44.41223 -63.64746 -32.32727 -45.117188 -75.93384 -164.15405 -253.58276 -251.77002 -136.56006 -66.87012 -46.627808 -35.650635 -9.265137 -4.9346924 1.4099121 9.970093 -4.8339844 -21.75293 -13.595581 28.80249 78.95508 93.85986 51.260376 18.73169 
-190.43884 -183.79211 -137.86926 -61.834717 -30.212402 -43.707275 -28.80249 -12.487793 37.86621 102.62146 148.3429 151.96838 71.502686 18.630981 15.106201 10.876465 27.593994 36.557007 80.06287 99.49951 87.11243 44.815063 11.782837 -33.636475 -60.021973 -42.800903 -57.403564 -58.410645 -81.57349 -87.41455 -79.2572 -23.968506 32.42798 59.921265 78.149414 98.69385 104.13208 152.97546 110.57739 70.19348 51.361084 40.786743 51.965332 58.410645 38.067627 -14.199829 -7.7545166 -8.258057 -16.516113 -26.687622 -74.72534 -108.66394 -149.45068 -155.39246 -152.87476 -142.70325 -129.40979 -104.333496 -57.403564 -48.742676 -50.354004 -51.864624 -43.90869 -64.35242 -39.578247 26.385498 28.399658 21.954346 17.120361 0.40283203 -37.564087 -17.825317 32.125854 47.03064 40.786743 33.032227 40.686035 82.9834 38.269043 19.73877 28.29895 57.20215 69.38782 76.638794 63.446045 50.857544 52.670288 65.15808 87.61597 123.46802 148.74573 119.84253 31.118774 -24.069214 -48.44055 -57.000732 -65.460205 -73.11401 -89.52942 -137.1643 -141.39404 -127.597046 -124.97864 -179.15955 -163.14697 -133.74023 -125.68359 -92.752075 -58.71277 -32.125854 -16.918945 16.21399 9.265137 12.890625 49.246216 39.175415 44.41223 79.2572 22.055054 -14.904785 -36.35559 3.1219482 79.45862 164.05334 167.1753 131.22253 118.63403 120.14465 138.2721 137.96997 135.95581 105.23987 48.03772 26.486206 46.5271 72.61047 52.468872 16.21399 -21.450806 -37.96692 -67.67578 -104.23279 -168.88733 -208.46558 -163.95264 -100.305176 -111.28235 -130.719 -101.916504 -72.006226 -36.657715 32.025146 96.8811 111.38306 119.13757 113.90076 110.87952 136.15723 84.695435 62.13684 59.21631 50.354004 42.297363 50.55542 4.1290283 -28.198242 -40.081787 -44.41223 -38.571167 -16.616821 -25.177002 -84.89685 -129.00696 -141.69617 -127.99988 -117.022705 -112.994385 -102.62146 -71.80481 -49.346924 -30.615234 -12.890625 -16.616821 -52.267456 -11.782837 15.408325 24.069214 14.501953 -1.9134521 -21.652222 -42.39807 -26.184082 27.29187 78.45154 137.1643 162.84485 188.02185 211.99036 168.68591 159.42078 160.32715 153.88184 147.83936 117.022705 47.93701 17.523193 3.8269043 -6.2438965 -22.558594 -14.501953 9.567261 -14.602661 -79.2572 -100.808716 -107.55615 -109.973145 -121.65527 -132.83386 -134.24377 -131.52466 
2780.85 2801.0925 2819.9248 2839.0593 2857.489 2875.415 2893.0388 2910.6628 2928.0852 2945.407 2962.5273 2979.547 2996.3652 -2785.8855 -496.7926 2571.6797 2995.1567 2981.0576 2966.2537 2951.651 2935.3362 2918.0144 2689.1052 2897.47 2885.5864 2872.5952 2860.208 2847.3174 2834.2253 2821.0327 2807.9407 2794.9492 2781.958 2769.0674 2756.4788 2743.7896 2731.3018 1112.6221 2738.5527 2760.7085 2781.5552 2801.0925 2820.7305 2839.0593 2857.489 2875.6165 2893.643 2911.267 2928.7903 2945.9106 2963.031 2980.0505 2996.869 -2691.7236 -243.10913 2630.4932 2993.8477 2979.6477 2962.5273 2947.7234 2932.6172 2817.6086 2795.05 2896.5637 2884.5793 2871.6887 2859.201 2846.3103 2833.2183 2820.0256 2806.9336 2793.9421 2781.0515 2768.0603 2755.5725 2742.8833 2730.2947 -186.51123 2740.7683 2762.8235 2783.4685 2803.0059 2822.0398 2841.0735 2859.5032 2877.3284 2894.9524 2912.677 2930.0994 2947.3206 2964.34 2981.3599 2998.178 -2265.8293 203.43018 2930.4016 2990.3228 2975.8208 2958.9019 2944.2993 2929.495 2827.478 2905.3252 2893.4417 2881.4575 2868.3655 2855.6763 2842.5842 2829.4922 2816.4001 2803.308 2790.3167 2777.426 2764.6362 2752.0476 2739.4592 2726.8706 -1736.206 2740.6677 2762.622 2783.267 2803.4087 2822.644 2840.973 2859.3018 2877.4292 2895.4558 2912.979 2930.5022 2947.6226 2964.8438 2981.6619 2998.4802 -1976.7975 508.27332 3001.0986 2987.3015 2972.7996 2955.9814 2941.3787 2926.5747 2754.8674 2903.009 2890.4204 2878.3354 2865.4448 2852.8564 2839.9658 2826.9744 2813.8823 2800.7903 2787.6982 2774.9084 2762.1184 2749.53 2736.9414 2724.353 3261.9324 2741.3726 2763.2263 2783.9722 2803.4087 2822.946 2841.1743 2859.5032 2877.7312 2895.5566 2913.1804 2930.603 2947.824 2964.9443 2981.8633 2998.6816 -1987.3718 453.68958 3001.5015 2987.8052 2973.3032 2956.787 2942.3857 2927.7832 2809.7534 2902.8076 2890.924 2878.7383 2865.5457 2852.7556 2839.7644 2826.6724 2813.5803 2800.3875 2787.4968 2774.6062 2761.8164 2749.2278 2736.6394 2724.0508 2720.1233 2744.0918 2765.744 2786.1877 2806.2285 2824.9602 2843.8933 2862.2222 2879.9468 2897.7722 2915.2954 2932.6172 2949.939 2966.9585 2983.8774 3000.6958 -1624.6216 919.86694 2998.9836 2985.2874 2970.8862 2954.37 2939.9688 
-2420.6177 -2410.144 -2399.3682 -2388.794 -2378.5217 -2367.9473 -2305.307 3299.8992 3299.8992 3299.8992 3299.8992 3299.8992 3299.8992 3299.8992 3299.8992 3299.8992 3299.8992 3299.8992 1382.9224 -2561.206 -2549.121 -2537.439 -2525.5554 -2513.9739 -2502.3926 -2491.0125 -2479.834 -2468.6553 -1472.3511 2641.873 3299.8992 1787.3657 -51.763916 -2024.4324 -2180.9326 -1521.2952 -1142.3309 -2458.2825 -2447.0032 -2436.026 -2425.2502 -2414.7766 -2403.7993 -2393.3257 -2382.852 -2372.3784 -2120.6084 3299.8992 3299.8992 3299.8992 3299.8992 3299.8992 3299.8992 3299.8992 3299.8992 3299.8992 3299.8992 3299.8992 605.2551 -2563.3208 -2551.2358 -2539.6545 -2527.6702 -2516.2903 -2504.7087 -2493.228 -2482.1501 -2470.8708 -854.2053 3299.8992 3299.8992 1990.8966 115.008545 -2085.7634 -2239.9475 -1585.9497 -1318.3685 -2466.1377 -2454.959 -2443.881 -2433.0046 -2422.531 -2411.554 -2400.9795 -2390.5059 -2379.9316 -1840.9424 3299.8992 3299.8992 3299.8992 3299.8992 3299.8992 3299.8992 3299.8992 3299.8992 3299.8992 3299.8992 3299.8992 415.92407 -2570.9746 -2558.8896 -2547.2075 -2535.2234 -2523.6418 -2512.1611 -2500.5798 -2489.6025 -2478.3232 -776.45874 3299.8992 3299.8992 1604.1779 -108.1604 -2118.1914 -2290.3015 -1780.5176 -1593.3014 -2469.058 -2457.9802 -2447.0032 -2436.026 -2425.5522 -2414.5752 -2404.0007 -2393.527 -2382.953 -1304.1687 3299.8992 3299.8992 3299.8992 3299.8992 3299.8992 3299.8992 3299.8992 3299.8992 3299.8992 3299.8992 3299.8992 -647.5525 -2571.4783 -2559.5947 -2547.9126 -2536.029 -2524.4475 -2513.0676 -2501.3855 -2490.3076 -2479.0283 -447.34497 3299.8992 3299.8992 1200.7416 -253.78418 -1955.0446 -2169.6533 -1398.6328 -1418.2709 -2473.1873 -2462.0085 -2450.83 -2439.9536 -2429.3792 -2418.402 -2407.8276 -2397.354 -2386.679 -863.47046 3299.8992 3299.8992 3299.8992 3299.8992 3299.8992 3299.8992 3299.8992 3299.8992 3299.8992 3299.8992 3299.8992 -663.16223 -2576.5137 -2564.4287 -2552.8472 -2540.9636 -2529.3823 -2517.8008 -2506.32 -2495.1416 -2483.8623 -111.28235 3299.8992 3299.8992 897.9126 -443.71948 -2084.3535 -2446.298 -1730.8685 -1951.4191 -2473.1873 -2461.908 -2451.0315 -2440.155 -2429.5806 -2418.6035 -2408.029 -2397.4548 -2386.8804 -239.68506 3299.8992 3299.8992 3299.8992 3299.8992 3299.8992 3299.8992 3299.8992 3299.8992 3299.8992 3299.8992 3299.8992 -1246.8658 -2576.715 
3299.8992 3299.8992 3299.8992 3299.8992 3299.8992 3299.8992 3299.8992 3299.8992 3299.8992 3299.8992 3299.8992 3215.9087 916.04004 -634.964 -1122.29 -1518.8782 -1623.0103 -1113.5284 -114.4043 390.84778 499.1089 577.66113 814.12354 -306.7566 -3273.715 -3262.4358 -3247.229 -3232.6262 -3218.527 -3204.2266 -3190.1274 -3176.3306 -3162.5334 -3148.938 -3135.443 -3122.1497 -3108.9568 -2197.9521 3299.8992 3299.8992 3299.8992 3299.8992 3299.8992 3299.8992 3299.8992 3299.8992 3299.8992 3299.8992 3299.8992 3299.8992 3299.8992 2959.8083 518.042 -799.01733 -1174.2554 -1376.7792 -1521.8994 -895.0928 151.76697 557.72095 710.1929 883.8135 1000.33264 -416.02478 -3283.5845 -3268.3777 -3253.775 -3238.87 -3224.1667 -3209.8662 -3195.868 -3181.8694 -3168.0725 -3154.3762 -3140.8813 -3127.3865 -3114.1936 -1808.6151 3299.8992 3299.8992 3299.8992 3299.8992 3299.8992 3299.8992 3299.8992 3299.8992 3299.8992 3299.8992 3299.8992 3299.8992 3299.8992 2832.4126 368.79272 -1030.8472 -1498.6359 -1751.413 -1850.9125 -996.2036 83.78906 452.07825 580.7831 718.3502 702.7405 -735.8734 -3278.7505 -3263.5437 -3249.1423 -3234.2375 -3219.7356 -3205.435 -3191.336 -3177.539 -3163.742 -3150.1465 -3136.6516 -3123.3582 -3110.1653 -1127.6276 3299.8992 3299.8992 3299.8992 3299.8992 3299.8992 3299.8992 3299.8992 3299.8992 3299.8992 3299.8992 3299.8992 3299.8992 3299.8992 2670.6755 437.677 -774.8474 -1192.7856 -1498.0316 -1536.2 -607.87354 293.46313 712.912 874.85046 1023.8983 923.79456 -788.04016 -3290.0298 -3274.7222 -3260.2202 -3245.2148 -3230.5115 -3216.211 -3202.011 -3187.9119 -3174.2156 -3160.4187 -3146.823 -3133.6304 -3120.236 -1030.1422 3299.8992 3299.8992 3299.8992 3299.8992 3299.8992 3299.8992 3299.8992 3299.8992 3299.8992 3299.8992 3299.8992 3299.8992 3299.8992 2277.8137 9.164429 -1134.4757 -1394.7052 -1615.3564 -1674.1699 -783.8104 61.935425 428.8147 597.3999 785.32104 642.4164 -1222.3938 -3284.491 -3269.3848 -3254.1777 -3239.4744 -3225.3752 -3211.0747 -3197.0764 -3183.1787 -3169.1802 -3155.6853 -3142.0898 -3128.6956 -3115.503 -235.65674 3299.8992 3299.8992 3299.8992 3299.8992 3299.8992 3299.8992 3299.8992 3299.8992 3299.8992 3299.8992 3299.8992 3299.8992 3299.8992 2085.562 -35.34851 -960.9558 -1227.3285 -1399.6399 -1328.6407 -449.057 292.55676 604.44946 
180.87158 2063.1042 3299.8992 3299.8992 3299.8992 3299.8992 3299.8992 3299.8992 3299.8992 3299.8992 3299.8992 3299.8992 3299.8992 3299.8992 3299.8992 3299.8992 3299.8992 3299.8992 -403.7384 -3124.768 -3109.3596 -3094.4548 -3079.8523 -3064.9475 -3050.4456 -3036.145 -3021.945 -3007.846 -2993.9482 -2980.252 -2966.455 -2952.8594 -2939.6667 -2926.3733 -2913.3818 -2900.3906 -2887.5 -2874.8108 -1701.7639 -912.21313 602.4353 2519.2107 3299.8992 3299.8992 3299.8992 3299.8992 3299.8992 3299.8992 3299.8992 3299.8992 3299.8992 3299.8992 3299.8992 3299.8992 3299.8992 3299.8992 3299.8992 3299.8992 -1193.1885 -3124.4658 -3109.1582 -3094.1528 -3079.248 -3064.746 -3050.2441 -3036.0442 -3021.8445 -3007.846 -2993.8477 -2980.1514 -2966.5557 -2953.0608 -2939.7673 -2926.3733 -2913.3818 -2900.3906 -2887.6006 -2867.9626 -1839.2303 -849.2706 561.44714 2459.9944 3299.8992 3299.8992 3299.8992 3299.8992 3299.8992 3299.8992 3299.8992 3299.8992 3299.8992 3299.8992 3299.8992 3299.8992 3299.8992 3299.8992 3299.8992 3299.8992 -2152.4321 -3119.934 -3104.727 -3089.7217 -3074.716 -3060.315 -3045.813 -3031.613 -3017.6147 -3003.5156 -2989.618 -2975.8208 -2962.2253 -2948.831 -2935.437 -2922.4456 -2909.253 -2896.3623 -2883.5723 -2866.5527 -1981.0272 -1032.6599 477.45667 2404.605 3299.8992 3299.8992 3299.8992 3299.8992 3299.8992 3299.8992 3299.8992 3299.8992 3299.8992 3299.8992 3299.8992 3299.8992 3299.8992 3299.8992 3299.8992 3299.8992 -2691.8242 -3111.7766 -3096.5698 -3081.665 -3066.6594 -3052.1575 -3037.9578 -3023.7578 -3009.558 -2995.6604 -2981.8633 -2968.2678 -2954.672 -2941.278 -2927.9846 -2914.8926 -2901.8005 -2889.0105 -2876.2207 -2647.714 -1683.435 -630.4321 818.5547 2798.3733 3299.8992 3299.8992 3299.8992 3299.8992 3299.8992 3299.8992 3299.8992 3299.8992 3299.8992 3299.8992 3299.8992 3299.8992 3299.8992 3299.8992 3299.8992 3102.31 -3053.2654 -3109.7625 -3094.5557 -3079.7515 -3065.3503 -3050.647 -3036.0442 -3021.945 -3007.846 -2993.9482 -2980.0505 -2966.455 -2952.8594 -2939.4653 -2926.1719 -2913.0798 -2900.0884 -2887.2986 -2874.5085 -2372.0764 -1434.082 -379.36707 1042.2272 3002.005 3299.8992 3299.8992 3299.8992 3299.8992 3299.8992 3299.8992 3299.8992 3299.8992 3299.8992 3299.8992 3299.8992 3299.8992 3299.8992 3299.8992 3299.8992 2883.5723 -3126.5808 -3110.8704 
3299.8992 3299.8992 3299.8992 3299.8992 3286.1023 3270.6938 3255.2856 3239.6758 3223.9653 3207.7515 3192.4438 1707.4036 -827.11487 -1918.0847 -2062.5 -1937.6221 -1712.2375 -929.7363 163.75122 810.39734 1243.039 1534.3872 1834.4971 1225.9186 -464.0625 -1957.3608 3211.5784 3228.0945 3244.2078 3260.2202 3276.132 3291.742 3299.8992 -3277.3406 -3262.033 -3246.9268 -3231.8206 -2054.242 2428.1707 3299.8992 3299.8992 3299.8992 3299.8992 3299.8992 3285.1958 3269.7876 3254.48 3238.7695 3223.1597 3206.845 3188.919 1428.1403 -932.35474 -1973.0713 -2049.408 -1884.9518 -1665.7104 -743.82935 325.28687 827.2156 1250.592 1663.4949 1890.7928 1216.2506 -519.754 -2214.0654 3210.974 3227.3894 3243.5027 3259.5154 3275.4272 3291.1377 3299.8992 -3277.9448 -3262.6372 -3247.6318 -3232.5256 -1773.6694 2719.1162 3299.8992 3299.8992 3299.8992 3299.8992 3297.7844 3282.6782 3267.2698 3251.8616 3236.2517 3220.4407 3204.3274 3184.9915 1132.3608 -1168.4143 -2017.8864 -2048.1995 -1976.6968 -1744.5648 -756.9214 269.59534 805.36194 1175.9674 1540.6311 1730.4657 954.00696 -805.1605 -2597.9644 3217.8223 3234.0361 3250.3508 3266.162 3281.9731 3297.4822 -3286.8071 -3271.399 -3256.2927 -3241.1865 -3226.181 -1301.2482 3240.4814 3299.8992 3299.8992 3299.8992 3299.8992 3299.8992 3285.0952 3269.8882 3254.2786 3238.6687 3223.059 3206.7444 3180.1575 864.57825 -1179.9957 -1932.486 -1902.6764 -1881.6284 -1738.5223 -686.8286 346.0327 849.0692 1203.36 1542.9474 1782.1289 958.74023 -826.6113 -2986.8987 3220.2393 3236.6545 3252.7678 3268.579 3284.3901 3299.8992 -3284.491 -3269.1833 -3253.9763 -3238.87 -3223.764 -1059.8511 3299.8992 3299.8992 3299.8992 3299.8992 3299.8992 3299.8992 3286.203 3270.7947 3255.1848 3239.3738 3223.8647 3207.6506 3128.7964 690.0513 -1248.4772 -1939.4348 -1941.9525 -1816.9739 -1552.9175 -447.7478 536.9751 977.97546 1283.3221 1599.4446 1646.6766 707.6752 -900.3296 -3125.7751 3220.4407 3236.856 3253.1707 3268.982 3284.793 3299.8992 -3284.1887 -3268.881 -3253.6743 -3238.568 -3223.462 -727.41394 3299.8992 3299.8992 3299.8992 3299.8992 3299.8992 3299.3958 3284.0881 3268.6797 3253.07 3237.4602 3221.9512 3205.536 3031.9153 429.21753 -1353.1128 -2011.1389 -2036.1145 -1833.2886 -1499.3408 -328.2074 657.01904 1056.1249 
-519.0491 228.10364 1086.7401 2871.991 3299.8992 3299.8992 3299.8992 3299.8992 3299.8992 3299.8992 3299.8992 3299.8992 3299.8992 3299.8992 3299.8992 3299.8992 3299.8992 3299.8992 804.25415 -1624.2188 -3004.2205 -2990.1213 -2976.3245 -2962.7288 -2949.234 -2935.739 -2922.5464 -2909.555 -2896.5637 -2883.673 -2870.883 -2858.0933 -2845.5046 -2832.9163 -2820.529 -2808.2427 -2795.9563 -2754.7668 -1980.6244 -1495.7153 -738.79395 152.97546 1106.8817 3059.3079 3299.8992 3299.8992 3299.8992 3299.8992 3299.8992 3299.8992 3299.8992 3299.8992 3299.8992 3299.8992 3299.8992 3299.8992 3299.8992 3299.8992 909.69543 -1576.886 -3000.8972 -2986.798 -2973.1018 -2959.4055 -2945.9106 -2932.315 -2919.3237 -2906.1309 -2893.341 -2880.551 -2867.6604 -2854.9712 -2842.3828 -2829.7942 -2817.4072 -2805.1208 -2792.7336 -2645.1965 -1833.5907 -1201.4465 -584.5093 374.23096 1554.3274 3299.8992 3299.8992 3299.8992 3299.8992 3299.8992 3299.8992 3299.8992 3299.8992 3299.8992 3299.8992 3299.8992 3299.8992 3299.8992 3299.8992 3181.366 291.44897 -2167.8406 -2998.3794 -2984.2803 -2970.4834 -2956.9885 -2943.3928 -2930.0994 -2916.9067 -2903.8147 -2890.924 -2878.2349 -2865.4448 -2852.5542 -2840.1672 -2827.5786 -2815.1917 -2802.8044 -2790.619 -2646.8079 -1854.7394 -1323.3032 -599.41406 378.5614 1509.3109 3299.8992 3299.8992 3299.8992 3299.8992 3299.8992 3299.8992 3299.8992 3299.8992 3299.8992 3299.8992 3299.8992 3299.8992 3299.8992 3299.8992 3163.037 424.58496 -2099.2583 -2996.2646 -2982.266 -2968.5698 -2954.9744 -2941.58 -2928.186 -2915.094 -2902.002 -2889.0105 -2876.1199 -2863.33 -2850.6409 -2838.2537 -2825.6653 -2813.379 -2800.9917 -2788.8062 -2501.9897 -1811.737 -1257.6416 -503.0365 423.88 1668.7317 3299.8992 3299.8992 3299.8992 3299.8992 3299.8992 3299.8992 3299.8992 3299.8992 3299.8992 3299.8992 3299.8992 3299.8992 3299.8992 3299.8992 2871.286 62.64038 -2197.2473 -2994.1497 -2980.1514 -2966.455 -2952.8594 -2939.4653 -2926.1719 -2912.979 -2900.0884 -2887.0972 -2874.1057 -2861.4165 -2848.7273 -2836.2395 -2823.7517 -2811.264 -2798.9775 -2786.792 -2216.0796 -1549.292 -997.2107 -318.74084 516.6321 1842.9565 3299.8992 3299.8992 3299.8992 3299.8992 3299.8992 3299.8992 3299.8992 3299.8992 3299.8992 3299.8992 3299.8992 3299.8992 3299.8992 3299.8992 2838.2537 -30.514526 -2395.1384 

11.883545 -8.761597 -30.81665 7.2509766 26.687622 46.124268 83.58765 63.043213 40.48462 39.88037 54.785156 43.707275 36.053467 70.59631 68.984985 12.789917 -83.08411 -148.84644 -121.051025 -92.752075 -73.61755 -85.29968 -100.40588 -89.42871 -1.4099121 62.64038 38.772583 -7.2509766 0.50354004 8.056641 7.3516846 56.69861 118.43262 132.43103 96.47827 43.304443 42.39807 78.149414 86.00464 100.10376 120.34607 109.57031 67.57507 53.67737 21.551514 28.500366 61.431885 53.07312 9.164429 -54.382324 -91.54358 -92.248535 -104.63562 -71.502686 -51.159668 -35.147095 -63.043213 -106.64978 -101.51367 -94.56482 -68.07861 -54.885864 -70.999146 -68.07861 21.853638 69.992065 90.234375 127.093506 143.20679 122.96448 135.55298 159.32007 157.40662 109.26819 96.57898 88.723755 49.0448 5.7403564 -29.608154 -77.24304 -77.24304 -77.24304 -77.24304 -77.24304 -77.24304 -77.24304 -77.24304 -77.24304 -77.24304 -77.24304 -77.24304 -77.24304 -77.24304 -77.24304 -77.24304 -77.24304 -77.24304 -77.24304 -77.24304 -77.24304 76.135254 80.667114 67.67578 35.147095 48.138428 39.98108 44.0094 18.127441 -23.364258 -68.38074 -95.67261 -65.460205 -75.128174 -134.94873 -120.95032 -61.431885 28.198242 67.27295 36.35559 5.9417725 -60.424805 -162.44202 -190.43884 -155.69458 -132.53174 -32.629395 71.90552 99.298096 85.60181 50.756836 11.380005 -15.408325 -22.558594 27.79541 24.77417 -1.2084961 -50.656128 -37.96692 57.806396 125.582886 221.65833 285.00366 237.57019 154.78821 147.1344 120.95032 83.78906 47.735596 -19.537354 -108.56323 -187.01477 -191.64734 -180.77087 -193.25867 -185.00061 -165.46326 -87.11243 -43.40515 -15.408325 5.5389404 17.321777 62.13684 108.36182 97.68677 -4.2297363 -24.673462 -8.862305 4.0283203 36.557007 81.27136 85.90393 39.37683 -34.84497 -55.18799 -30.615234 4.0283203 0.80566406 31.924438 67.17224 67.77649 30.615234 -55.993652 -151.36414 -168.88733 -117.022705 -91.04004 -35.247803 10.876465 9.768677 12.890625 -5.2368164 -29.708862 -31.219482 -8.761597 34.240723 68.984985 60.324097 16.616821 6.1431885 38.47046 
-124.77722 -96.47827 -101.61438 -134.74731 -86.709595 -34.44214 -24.069214 -4.6325684 18.630981 20.040894 -7.6538086 3.5247803 43.103027 12.185669 -18.026733 -17.523193 26.586914 49.95117 -5.4382324 -33.83789 -3.3233643 6.9488525 5.3375244 15.307617 -40.48462 -72.509766 -73.61755 -22.558594 54.483032 113.90076 155.39246 128.10059 101.21155 84.99756 86.91101 72.20764 36.758423 -0.50354004 -3.9276123 -19.638062 -47.53418 -55.69153 -64.35242 -112.994385 -101.815796 -88.82446 -68.38074 -23.76709 20.24231 42.297363 74.92676 88.11951 109.67102 82.88269 85.40039 75.93384 128.80554 156.29883 95.269775 35.85205 -25.982666 -88.92517 -89.52942 -42.095947 -73.91968 -80.4657 -99.60022 -103.02429 -83.48694 -61.431885 -21.652222 -4.5318604 -7.6538086 -5.7403564 9.970093 30.31311 28.29895 43.707275 64.956665 53.979492 11.480713 3.8269043 -10.977173 -35.650635 -13.595581 -28.80249 -82.58057 -79.559326 -49.0448 12.487793 57.20215 71.90552 52.468872 -0.70495605 -26.889038 -26.78833 11.077881 18.630981 -13.595581 -2.3162842 15.106201 15.005493 24.472046 40.48462 -13.696289 -38.269043 -63.24463 -41.99524 3.8269043 55.892944 83.184814 29.910278 -48.44055 -67.37366 -67.07153 -29.406738 -27.493286 -56.19507 -95.16907 -124.37439 -140.7898 -126.28784 -120.547485 -118.43262 -41.290283 -28.601074 -34.44214 23.062134 76.638794 116.519165 129.40979 152.27051 217.22717 213.8031 211.68823 185.30273 129.10767 47.332764 -16.71753 -23.867798 -44.714355 -79.156494 -100.70801 -104.434204 -138.47351 -128.10059 -107.05261 -54.382324 4.8339844 42.39807 59.61914 19.335938 -9.869385 -44.613647 -74.12109 -78.652954 -83.78906 -71.90552 -80.667114 -90.234375 -84.09119 -62.942505 -54.281616 -42.095947 26.083374 51.361084 57.504272 79.559326 123.87085 161.73706 164.05334 155.896 146.22803 129.81262 108.1604 89.02588 118.029785 71.90552 6.2438965 -37.261963 -53.07312 -31.924438 -3.3233643 8.963013 -51.361084 -78.652954 -92.95349 -76.034546 -27.191162 5.5389404 16.113281 -42.095947 -81.06995 -89.227295 -91.241455 -95.87402 -108.86536 -75.4303 -7.7545166 13.595581 
2924.8625 2777.124 2900.9949 2888.507 2876.3213 2863.33 2850.6409 2837.7502 2824.5574 2811.5662 2798.474 2785.5835 2772.6929 2759.9028 2747.3145 2734.8267 2721.936 2722.0366 2745.6023 2767.3552 2787.799 2807.135 2826.471 2844.7998 2862.9272 2881.0547 2898.88 2916.504 2933.9263 2951.1475 2968.2678 2985.1868 3001.9043 -1512.3322 995.9015 2999.0845 2985.2874 2970.7854 2956.2834 2941.8823 2925.3662 2862.2222 2900.592 2887.9028 2875.5156 2862.5244 2849.9358 2836.8438 2823.7517 2810.6597 2797.5676 2784.677 2771.7864 2759.0972 2746.5088 2733.9202 2720.929 2724.2522 2747.5159 2769.0674 2789.511 2808.7463 2828.0823 2846.3103 2864.5386 2882.666 2900.3906 2918.0144 2935.5376 2952.5574 2969.6777 2986.5967 3065.451 -1081.7047 1614.4501 2995.0562 2981.1584 2966.6565 2952.0537 2935.8398 2920.23 2646.707 2896.3623 2884.6802 2872.4944 2859.1003 2846.3103 2833.2183 2820.227 2807.2356 2794.1436 2781.253 2768.3623 2755.673 2743.0847 2730.6975 2717.505 2724.2522 2747.5159 2769.0674 2789.4104 2809.2498 2828.3843 2846.5117 2864.74 2882.7666 2900.592 2918.2158 2935.437 2952.658 2969.7783 2986.5967 3136.853 -1113.8306 1539.2212 2995.0562 2981.259 2966.6565 2951.651 2935.739 2920.23 2711.3616 2896.7651 2884.378 2871.991 2858.899 2846.2097 2833.319 2820.227 2807.135 2794.1436 2781.1523 2768.3623 2755.673 2743.0847 2730.496 2717.0012 2727.6763 2750.7385 2771.9878 2792.2302 2811.3647 2830.7007 2848.8281 2867.0562 2885.083 2902.8076 2920.4314 2937.7532 2954.9744 2971.994 2988.9128 3291.5405 -919.2627 1796.1273 2994.754 2980.8562 2965.9514 2950.6438 2935.3362 2919.3237 2538.748 2896.9666 2884.5793 2872.293 2859.201 2846.5117 2833.5205 2820.4285 2807.437 2794.2444 2781.5552 2768.5637 2755.9753 2743.2861 2730.7983 2699.5789 2730.899 2753.5583 2774.8076 2794.7478 2813.9832 2832.7148 2851.547 2869.6746 2887.5 2905.0232 2922.4456 2939.7673 2956.8877 2973.9075 2990.8264 -3118.8262 -695.2881 2340.3533 2992.7397 2978.54 2963.9373 2948.0254 2932.9192 
-2564.6301 -2553.0486 -2541.0645 -2529.483 -2518.0022 -2506.421 -2495.4436 -2482.553 149.34998 3299.8992 3131.9182 137.76855 -1057.0312 -2327.5635 -2367.4438 -1739.4287 -2035.1074 -2466.2383 -2455.1604 -2444.0825 -2433.307 -2422.8333 -2411.9568 -2401.3823 -2390.9087 -2380.3345 526.09863 3299.8992 3299.8992 3299.8992 3299.8992 3299.8992 3299.8992 3299.8992 3299.8992 3299.8992 3299.8992 3299.8992 -1464.1937 -2572.183 -2560.0981 -2548.6174 -2536.6333 -2525.0518 -2513.6719 -2501.9897 -2490.9119 -2388.693 669.50684 3299.8992 2793.2373 -15.710449 -1191.4764 -2369.5586 -2420.2148 -1865.1123 -2470.8708 -2459.9944 -2449.118 -2438.1409 -2427.2644 -2416.8914 -2405.9143 -2395.5413 -2385.0676 -2375.0977 1231.3568 3299.8992 3299.8992 3299.8992 3299.8992 3299.8992 3299.8992 3299.8992 3299.8992 3299.8992 3299.8992 3299.8992 -1831.2744 -2567.752 -2555.7678 -2543.6829 -2532.3027 -2520.7214 -2509.3413 -2498.2634 -2486.5813 -2251.0254 971.32874 3299.8992 2595.7488 1.6113281 -1580.1086 -2324.6428 -2427.1636 -1739.1266 -2465.9363 -2454.7576 -2443.6797 -2432.8032 -2422.1282 -2411.2517 -2400.879 -2390.4053 -2380.0322 -2370.0623 2108.9263 3299.8992 3299.8992 3299.8992 3299.8992 3299.8992 3299.8992 3299.8992 3299.8992 3299.8992 3299.8992 3208.6577 -2531.195 -2562.7166 -2550.7324 -2538.748 -2527.2673 -2515.686 -2504.306 -2493.228 -2481.6467 -2099.5605 1505.484 3299.8992 2233.6028 -160.52856 -2040.0421 -2486.078 -2451.132 -1779.6112 -2458.383 -2447.3052 -2436.3281 -2425.5522 -2414.8772 -2404.1016 -2393.7285 -2383.3557 -2372.9827 -2363.1133 2667.3523 3299.8992 3299.8992 3299.8992 3299.8992 3299.8992 3299.8992 3299.8992 3299.8992 3299.8992 3299.8992 2776.016 -2567.5505 -2555.365 -2543.28 -2531.2957 -2520.0164 -2508.5356 -2497.1558 -2486.078 -2474.4963 -1909.6252 1756.1462 3299.8992 1950.3113 -351.67236 -2248.0042 -2476.007 -2384.967 -1922.0123 -2448.3123 -2437.3352 -2426.5593 -2415.7837 -2405.1086 -2394.3328 -2384.0605 -2373.7883 -2363.617 -2353.7476 3299.8992 3299.8992 3299.8992 3299.8992 3299.8992 3299.8992 3299.8992 3299.8992 3299.8992 3299.8992 3299.8992 2473.1873 -2560.4004 -2548.114 
793.07556 955.21545 664.57214 -1445.5627 -3289.7278 -3274.5208 -3259.9182 -3244.9126 -3230.2092 -3216.0095 -3201.9104 -3188.0127 -3174.3164 -3160.5193 -3146.7224 -3133.3281 -3120.0347 421.86584 3299.8992 3299.8992 3299.8992 3299.8992 3299.8992 3299.8992 3299.8992 3299.8992 3299.8992 3299.8992 3299.8992 3299.8992 3293.3533 1885.1532 -172.3114 -1270.6329 -1502.4628 -1615.4572 -1548.587 -597.1985 157.70874 440.094 702.8412 823.8922 379.56848 -1880.1178 -3285.2966 -3270.1904 -3254.9834 -3240.3809 -3226.2817 -3211.9812 -3197.9827 -3184.085 -3170.288 -3156.6924 -3143.097 -3129.602 -3116.4092 1009.19495 3299.8992 3299.8992 3299.8992 3299.8992 3299.8992 3299.8992 3299.8992 3299.8992 3299.8992 3299.8992 3299.8992 3299.8992 3294.7632 1560.3699 -431.03027 -1300.1404 -1640.2313 -1848.5962 -1717.6758 -730.03235 -50.756836 271.6095 470.4071 701.02844 233.44116 -2292.6177 -3272.2046 -3257.199 -3242.8984 -3228.0945 -3213.693 -3199.594 -3185.5957 -3171.7986 -3158.1023 -3144.5068 -3131.1125 -3117.92 -3104.828 1512.6343 3299.8992 3299.8992 3299.8992 3299.8992 3299.8992 3299.8992 3299.8992 3299.8992 3299.8992 3299.8992 3299.8992 3299.8992 3299.8992 1460.1654 -431.93665 -1135.4828 -1354.422 -1501.1536 -1373.2544 -339.386 252.67639 526.8036 806.77185 1001.0376 320.25146 -2347.9065 -3275.2258 -3260.1196 -3245.0134 -3230.5115 -3216.4124 -3202.3132 -3188.214 -3174.3164 -3160.7207 -3147.0244 -3133.6304 -3120.1355 -3104.727 2029.7699 3299.8992 3299.8992 3299.8992 3299.8992 3299.8992 3299.8992 3299.8992 3299.8992 3299.8992 3299.8992 3299.8992 3299.8992 3295.2666 1264.1876 -457.21436 -1158.7463 -1501.2543 -1643.0511 -1408.5022 -352.67944 263.85498 506.46057 644.43054 827.2156 158.5144 -2619.6167 -3272.9094 -3257.904 -3243.5027 -3228.7993 -3214.2974 -3200.0977 -3186.2 -3172.5037 -3158.606 -3145.0103 -3131.7168 -3118.4233 -2934.027 2868.164 3299.8992 3299.8992 3299.8992 3299.8992 3299.8992 3299.8992 3299.8992 3299.8992 3299.8992 3299.8992 3299.8992 3299.8992 3259.9182 940.5121 -704.85535 -1324.9146 -1566.2109 -1819.0887 -1539.7247 -425.1892 145.9259 395.9839 
-3095.7642 -3080.8594 -3066.0552 -3051.5532 -3037.3535 -3023.2544 -3009.0544 -2995.1567 -2981.4604 -2967.6636 -2954.1687 -2940.6738 -2927.481 -2914.2883 -2901.2969 -2888.4062 -2875.717 -2351.0283 -1621.9025 -325.18616 1199.5331 3254.3792 3299.8992 3299.8992 3299.8992 3299.8992 3299.8992 3299.8992 3299.8992 3299.8992 3299.8992 3299.8992 3299.8992 3299.8992 3299.8992 3299.8992 3299.8992 2468.5547 -3125.8757 -3110.1653 -3095.16 -3080.2551 -3065.2495 -3050.949 -3036.5479 -3022.4487 -3008.3496 -2994.452 -2980.6548 -2966.9585 -2953.4636 -2940.0696 -2926.8767 -2913.5833 -2900.6926 -2888.0034 -2875.1128 -2003.7872 -1151.1932 100.6073 1562.9883 3299.8992 3299.8992 3299.8992 3299.8992 3299.8992 3299.8992 3299.8992 3299.8992 3299.8992 3299.8992 3299.8992 3299.8992 3299.8992 3299.8992 3299.8992 3299.8992 2065.6218 -3130.307 -3114.6973 -3099.6917 -3084.6863 -3069.882 -3055.3801 -3041.1804 -3026.88 -3012.8813 -2998.9836 -2985.086 -2971.289 -2957.7942 -2944.4 -2931.1064 -2918.0144 -2904.9224 -2892.0317 -2879.242 -2024.7345 -1452.6123 -151.46484 1535.1929 3299.8992 3299.8992 3299.8992 3299.8992 3299.8992 3299.8992 3299.8992 3299.8992 3299.8992 3299.8992 3299.8992 3299.8992 3299.8992 3299.8992 3299.8992 3299.8992 1486.853 -3128.1921 -3112.7837 -3097.6775 -3082.7727 -3068.3716 -3053.5674 -3039.1663 -3024.8657 -3010.7666 -2996.869 -2983.2732 -2969.3755 -2955.8806 -2942.4866 -2929.2937 -2916.0002 -2903.1096 -2890.219 -2877.4292 -2025.0366 -1320.5841 71.90552 1796.7316 3299.8992 3299.8992 3299.8992 3299.8992 3299.8992 3299.8992 3299.8992 3299.8992 3299.8992 3299.8992 3299.8992 3299.8992 3299.8992 3299.8992 3299.8992 3299.8992 935.8795 -3126.7822 -3111.2732 -3096.2676 -3081.2622 -3067.0623 -3052.359 -3037.7563 -3023.6572 -3009.558 -2995.6604 -2981.964 -2968.2678 -2954.5715 -2941.3787 -2927.9846 -2914.9932 -2901.9011 -2889.1113 -2876.3213 -1848.8983 -1283.2214 72.10693 1782.3303 3299.8992 3299.8992 3299.8992 3299.8992 3299.8992 3299.8992 3299.8992 3299.8992 3299.8992 3299.8992 3299.8992 3299.8992 3299.8992 3299.8992 3299.8992 3299.8992 379.8706 -3124.063 -3108.8562 
1288.3575 1597.934 1561.377 542.51404 -956.1218 3206.3416 3221.9512 3238.3667 3254.48 3270.291 3286.203 3299.8992 -3282.7788 -3267.4712 -3252.365 -3237.2588 -3222.2534 -232.23267 3299.8992 3299.8992 3299.8992 3299.8992 3299.8992 3297.583 3281.9731 3266.565 3251.056 3235.3455 3219.635 3203.5217 2943.1914 296.8872 -1412.1277 -2062.5 -2062.2986 -1879.01 -1473.3582 -340.59448 475.94604 1002.4475 1353.6163 1675.6805 1663.9984 518.74695 -1090.9698 3207.0464 3223.6633 3239.978 3255.9905 3271.9023 3287.7136 3299.8992 -3281.369 -3266.0613 -3250.7537 -3235.7483 -3220.7427 200.50964 3299.8992 3299.8992 3299.8992 3299.8992 3299.8992 3296.0723 3280.5632 3265.155 3249.7466 3233.9355 3218.3257 3202.1118 2710.6567 13.293457 -1474.9695 -1986.5662 -1945.578 -1759.5703 -1384.5337 -236.56311 595.8893 935.376 1268.8202 1656.7474 1589.6759 276.6449 -1268.5181 3209.6648 3226.0803 3242.4956 3258.4075 3274.3193 3290.0298 3299.8992 -3278.952 -3263.745 -3248.538 -3233.432 -3165.0513 530.8319 3299.8992 3299.8992 3299.8992 3299.8992 3299.8992 3295.9717 3280.664 3265.3564 3249.646 3233.9355 3218.3257 3202.1118 2485.5742 -267.48047 -1725.8331 -2111.6455 -2020.8069 -1808.5144 -1373.053 -248.64807 550.47 1154.718 1549.6948 1870.2484 1540.0269 99.09668 -1274.8627 3212.7869 3229.303 3245.5168 3261.6301 3277.3406 3293.051 -3291.339 -3275.9307 -3260.7239 -3245.5168 -3230.5115 -2991.2292 994.693 3299.8992 3299.8992 3299.8992 3299.8992 3299.8992 3295.9717 3280.4626 3265.155 3249.5452 3233.8347 3218.3257 3202.011 2312.6587 -304.3396 -1583.9355 -1844.9707 -1796.933 -1662.1857 -1222.5952 -124.17297 579.5746 981.70166 1258.7494 1585.6476 1251.8005 -240.59143 -1560.4706 3216.9158 3233.3313 3249.5452 3265.5579 3281.2683 3297.0793 -3287.4114 -3272.2046 -3256.897 -3241.69 -3226.7852 -2788.4033 1370.4346 3299.8992 3299.8992 3299.8992 3299.8992 3299.8992 3296.9788 3281.7717 3266.3635 3250.7537 3235.0432 3219.4336 3202.9175 2097.0427 -537.78076 -1701.2604 -1854.8401 -1739.5294 -1494.104 -872.03064 96.98181 720.2637 1079.7913 
-2996.5667 -2982.5684 -2968.7712 -2955.2764 -2941.8823 -2928.5889 -2915.396 -2902.304 -2889.4133 -2876.5227 -2863.8335 -2851.1443 -2838.455 -2825.9673 -2813.5803 -2801.294 -2789.1082 -2255.0537 -1732.077 -1054.8157 -312.29553 595.28503 1877.298 3299.8992 3299.8992 3299.8992 3299.8992 3299.8992 3299.8992 3299.8992 3299.8992 3299.8992 3299.8992 3299.8992 3299.8992 3299.8992 3299.8992 2573.0896 -174.12415 -2550.9338 -2995.9624 -2981.8633 -2968.2678 -2954.672 -2941.0767 -2927.8838 -2914.5903 -2901.599 -2888.91 -2876.0193 -2863.2292 -2850.4395 -2837.9517 -2825.5645 -2813.0767 -2800.6897 -2788.504 -2283.1511 -1637.2101 -930.6427 -221.65833 682.49817 2087.0728 3299.8992 3299.8992 3299.8992 3299.8992 3299.8992 3299.8992 3299.8992 3299.8992 3299.8992 3299.8992 3299.8992 3299.8992 3299.8992 3299.8992 2110.739 -669.0033 -2982.367 -2992.7397 -2978.842 -2965.2466 -2951.7517 -2938.156 -2924.9634 -2911.8713 -2898.7793 -2885.9893 -2873.3 -2860.4094 -2847.7202 -2835.2324 -2822.644 -2810.4583 -2798.1719 -2785.8855 -1956.7566 -1430.5573 -753.90015 49.246216 1004.05884 2586.1816 3299.8992 3299.8992 3299.8992 3299.8992 3299.8992 3299.8992 3299.8992 3299.8992 3299.8992 3299.8992 3299.8992 3299.8992 3299.8992 3299.8992 2039.5386 -644.32983 -3008.7524 -2997.5737 -2983.676 -2969.8792 -2956.3843 -2942.8894 -2929.7974 -2916.504 -2903.6133 -2890.6218 -2877.832 -2864.9414 -2852.2522 -2839.6636 -2827.3772 -2814.8894 -2802.603 -2789.4104 -1856.0486 -1359.8602 -756.015 33.83789 840.91187 2510.147 3299.8992 3299.8992 3299.8992 3299.8992 3299.8992 3299.8992 3299.8992 3299.8992 3299.8992 3299.8992 3299.8992 3299.8992 3299.8992 3299.8992 1697.937 -769.7113 -3013.4856 -2999.286 -2985.3882 -2971.7925 -2958.197 -2944.8027 -2931.5093 -2918.3167 -2905.2246 -2892.334 -2879.4434 -2866.6533 -2854.065 -2841.5771 -2829.0894 -2816.7021 -2804.4158 -2789.7124 -1828.656 -1364.5935 -715.9332 73.31543 1020.47424 2738.7542 3299.8992 3299.8992 3299.8992 3299.8992 3299.8992 3299.8992 3299.8992 3299.8992 3299.8992 3299.8992 3299.8992 3299.8992 3299.8992 3299.8992 1276.7761 -1369.6289 -3011.27 

77.74658 124.27368 168.08167 177.2461 119.23828 65.15808 17.72461 6.2438965 24.169922 40.585327 3.0212402 -78.048706 -142.1997 -141.99829 -105.84412 -63.14392 -55.490112 -43.203735 -15.609741 -2.6184082 22.25647 33.737183 27.392578 10.473633 31.018066 22.659302 16.113281 -4.2297363 -33.535767 7.2509766 26.889038 65.05737 97.98889 144.81812 181.87866 186.1084 155.9967 75.531006 22.357178 18.630981 51.5625 94.56482 120.44678 133.03528 127.29492 121.9574 50.454712 -75.027466 -161.73706 -183.28857 -192.55371 -192.453 -168.4845 -139.88342 -92.14783 -53.979492 -90.93933 -96.780396 -87.81738 -69.58923 -71.30127 -107.05261 -106.75049 -116.015625 -117.32483 -116.41846 -94.06128 -65.66162 -48.44055 -73.61755 -144.51599 -155.69458 -145.01953 -76.135254 60.62622 153.98254 216.42151 216.82434 221.3562 266.6748 289.03198 269.39392 254.89197 168.98804 5.9417725 -65.66162 -94.46411 -84.79614 -61.6333 -37.261963 -54.986572 -69.28711 -70.79773 -58.309937 -59.820557 -72.006226 -129.00696 -88.52234 -61.73401 -62.036133 -80.96924 -129.6112 -165.06042 -144.21387 -71.502686 -14.099121 33.233643 52.972412 51.864624 38.87329 17.926025 38.974 37.664795 32.226562 34.542847 35.650635 19.839478 -32.93152 -89.63013 -112.08801 -120.44678 -101.01013 -9.466553 65.3595 93.759155 98.59314 85.5011 90.03296 129.6112 154.38538 77.84729 -35.549927 -68.28003 -32.83081 -2.5177002 -9.667969 -59.417725 -66.16516 -48.742676 -27.79541 -6.3446045 24.572754 59.61914 110.476685 166.47034 197.68982 219.74487 245.42542 241.09497 189.43176 89.730835 50.958252 62.338257 84.09119 56.09436 -1.8127441 -54.58374 -80.667114 -95.06836 -131.22253 -133.3374 -105.03845 -54.18091 -47.131348 -61.331177 -55.792236 -73.71826 -104.333496 -85.90393 10.473633 70.79773 88.82446 69.58923 22.860718 -1.9134521 -5.6396484 -21.75293 -7.0495605 -53.979492 -79.055786 -83.28552 -112.69226 -130.41687 -125.582886 -130.11475 -102.420044 -70.19348 -81.170654 -144.7174 -189.63318 -152.06909 -73.61755 -38.47046 -10.171509 23.968506 42.800903 51.260376 51.260376 76.23596 90.63721 
16.818237 25.881958 -4.7332764 -7.1502686 53.778076 69.38782 90.5365 105.13916 93.255615 38.269043 42.599487 100.305176 119.13757 107.15332 85.702515 67.27295 81.87561 9.164429 -71.09985 -110.980225 -148.54431 -171.60645 -121.554565 -59.21631 -69.28711 -58.914185 -35.147095 -2.0141602 10.876465 14.401245 38.36975 -17.019653 -47.332764 -24.371338 -2.1148682 -35.95276 -83.58765 -42.39807 12.789917 26.687622 4.4311523 2.0141602 -40.88745 -89.93225 -83.688354 -77.948 -34.643555 12.890625 68.38074 88.82446 100.909424 112.18872 119.540405 107.55615 107.85828 111.483765 155.19104 108.76465 60.021973 20.74585 3.0212402 -6.4453125 -24.975586 -54.0802 -87.91809 -97.18323 -90.13367 -63.64746 -13.494873 42.90161 69.488525 24.371338 5.7403564 -8.963013 -26.385498 -49.0448 -85.40039 -78.35083 -78.75366 -79.76074 -83.08411 -83.184814 -126.9928 -111.987305 -55.59082 -42.095947 -38.168335 -14.501953 -8.560181 -12.789917 21.450806 52.56958 81.97632 108.05969 116.61987 88.11951 82.78198 14.804077 -10.473633 -8.560181 -38.671875 -68.07861 -62.23755 -59.014893 -73.71826 -36.758423 -3.3233643 40.88745 74.2218 101.01013 81.47278 23.867798 1.2084961 -18.328857 -40.182495 -52.670288 -61.73401 -26.184082 -3.1219482 -31.219482 -24.975586 -42.095947 -89.93225 -68.68286 -14.804077 7.3516846 16.918945 12.487793 17.523193 29.104614 88.723755 161.0321 159.7229 138.07068 121.65527 114.10217 146.32874 96.47827 48.44055 -5.1361084 -26.385498 10.574341 60.827637 76.135254 81.37207 91.64429 89.63013 73.013306 69.79065 51.864624 -2.2155762 -68.481445 -96.37756 -101.916504 -116.61987 -153.78113 -178.35388 -161.53564 -172.41211 -186.41052 -202.92664 -209.67407 -202.32239 -125.68359 -59.317017 -35.44922 -15.710449 27.996826 56.09436 66.467285 120.14465 146.73157 123.46802 121.85669 107.25403 90.93933 116.82129 80.4657 64.65454 48.239136 39.98108 34.542847 27.694702 -28.80249 -73.516846 -89.93225 -84.09119 -38.974 18.22815 39.276123 -21.350098 -73.11401 -80.36499 -38.671875 -13.394165 -6.7474365 -27.191162 -30.615234 -45.217896 -43.90869 
2915.2954 2730.496 2894.4487 2882.7666 2870.2788 2856.9854 2843.9941 2831.0027 2817.9106 2804.8186 2791.8274 2779.0374 2766.1467 2753.5583 2740.8691 2728.482 2229.776 2731.906 2754.5654 2775.5127 2795.6543 2815.2922 2834.1248 2852.2522 2870.3796 2888.507 2906.2317 2923.755 2941.0767 2958.2976 2975.116 2992.035 -2926.9775 -685.318 2351.9348 2993.042 2979.0435 2963.1316 2947.522 2933.322 2916.9067 2871.6887 2895.053 2882.5652 2870.0774 2856.9854 2844.0947 2831.204 2818.112 2805.02 2792.0288 2779.0374 2766.3481 2753.659 2741.0706 2728.5828 1346.9696 2735.2295 2757.6873 2778.534 2798.5747 2817.5078 2836.7432 2854.8706 2872.8972 2890.8232 2908.5479 2926.1719 2943.3928 2960.5132 2977.533 2994.351 -2512.3625 -182.98645 2855.2734 2989.7185 2975.6194 2960.614 2944.5007 2929.6965 2913.5833 2903.8147 2891.327 2879.6448 2867.157 2853.662 2840.6707 2827.6794 2814.688 2801.596 2788.6047 2775.714 2763.025 2750.3357 2737.848 2725.36 141.89758 2735.33 2757.788 2778.433 2798.474 2818.112 2836.441 2855.2734 2873.3 2891.0247 2908.5479 2925.8696 2943.1914 2960.3118 2977.3315 2994.1497 -2292.2148 87.41455 2884.378 2987.3015 2973.1018 2956.8877 2941.7815 2927.179 2822.4426 2902.6062 2890.4204 2878.0334 2865.5457 2852.4536 2839.6636 2826.6724 2813.5803 2800.5889 2787.4968 2774.707 2761.917 2749.3286 2736.74 2724.2522 -1378.1891 2737.6465 2759.7014 2780.6487 2800.4883 2819.4214 2838.455 2856.381 2874.6094 2892.636 2910.26 2927.7832 2945.0042 2962.1245 2979.0435 2995.9624 -2058.4717 340.19165 2999.7893 2986.093 2971.692 2954.0679 2939.6667 2924.9634 2723.9502 2901.3977 2889.4133 2877.0264 2864.6392 2851.4465 2838.6565 2825.5645 2812.5732 2799.4812 2786.5906 2773.7 2760.91 2748.3215 2735.8337 2723.346 -2834.5276 2739.3584 2761.4136 2782.0586 2801.9988 2820.7305 2839.3616 2858.0933 2876.2207 2893.744 2911.267 2928.6895 2946.0112 2963.031 2979.95 2996.869 -1782.5317 687.33215 2997.5737 2983.8774 2969.4763 2954.2693 2938.7603 2923.755 
-2536.2305 -2524.347 -2512.9668 -2501.587 -2490.1062 -2479.0283 -2467.5476 -1728.1494 2092.511 3299.8992 1852.0203 -248.14453 -1902.475 -2109.43 -1670.9473 -1286.2427 -2452.7434 -2441.565 -2430.6885 -2419.9126 -2409.2375 -2398.361 -2388.0889 -2377.8167 -2367.5444 -2357.4736 3299.8992 3299.8992 3299.8992 3299.8992 3299.8992 3299.8992 3299.8992 3299.8992 3299.8992 3299.8992 3299.8992 1779.9133 -2561.7095 -2549.524 -2537.6404 -2525.656 -2514.4775 -2502.7954 -2491.516 -2480.136 -2468.9575 -1061.0596 3239.5752 3299.8992 2255.8594 376.54724 -1533.783 -1378.1891 -1156.8329 -717.8467 -2214.7705 -2455.966 -2444.989 -2433.9111 -2423.0347 -2412.561 -2402.188 -2153.1372 -2126.0466 -1854.1351 3299.8992 3299.8992 3299.8992 3299.8992 3299.8992 3299.8992 3299.8992 3299.8992 3299.8992 3299.8992 3299.8992 480.07507 -2572.6868 -2560.8032 -2548.7183 -2537.3381 -2525.8574 -2514.0747 -2502.7954 -2491.1133 -2339.8499 -1777.6978 1787.0636 3299.8992 489.44092 -1352.005 -2127.5574 -2145.1812 -2130.1758 -2220.3093 -2433.0046 -2422.4304 -2411.554 -2400.9795 -2390.7073 -2380.3345 -2369.8608 -2359.6892 -2349.6184 -1930.1697 3299.8992 3299.8992 3299.8992 3299.8992 3299.8992 3299.8992 3299.8992 3299.8992 3299.8992 3299.8992 3299.8992 876.7639 -2546.4019 -2534.317 -2522.5342 -2510.7512 -2499.3713 -2488.092 -2476.8127 -2465.332 -2454.4556 -567.69104 3299.8992 3299.8992 1856.25 20.040894 -1952.4261 -2140.1458 -1338.3087 -1136.792 -2454.1533 -2442.874 -2431.9976 -2421.121 -2410.446 -2400.1738 -2389.1968 -2378.8237 -2368.6523 -1300.946 3299.8992 3299.8992 3299.8992 3299.8992 3299.8992 3299.8992 3299.8992 3299.8992 3299.8992 3299.8992 3299.8992 -111.28235 -2561.3066 -2549.3225 -2537.439 -2526.0588 -2514.2761 -2502.7954 -2491.4153 -2480.0354 -2468.9575 -701.532 3299.8992 3299.8992 1565.9088 -45.721436 -1970.755 -2188.7878 -1876.0895 -1858.9691 -2459.9944 -2448.816 -2437.9395 -2427.063 -2416.388 -2406.015 -2395.0378 -2384.6648 -2374.3926 -934.0668 3299.8992 3299.8992 3299.8992 3299.8992 3299.8992 3299.8992 3299.8992 3299.8992 3299.8992 3299.8992 3299.8992 -658.52966 -2565.6372 -2553.6528 
618.24646 765.07874 -119.64111 -3022.8516 -3264.8528 -3249.948 -3234.9426 -3220.5413 -3206.7444 -3192.5444 -3178.6467 -3164.8499 -3151.2542 -3137.6587 -3124.3652 -3111.0718 -2623.1414 3299.8992 3299.8992 3299.8992 3299.8992 3299.8992 3299.8992 3299.8992 3299.8992 3299.8992 3299.8992 3299.8992 3299.8992 3299.8992 3128.4941 697.30225 -900.531 -1401.654 -1623.7152 -1683.9386 -1170.8313 -69.68994 449.56055 743.93005 907.27844 997.11 -83.78906 -3208.7585 -3265.3564 -3250.4517 -3236.1511 -3221.4478 -3207.0464 -3192.9473 -3179.0496 -3165.2527 -3151.5564 -3138.0615 -3124.768 -3111.4746 -2206.5125 3299.8992 3299.8992 3299.8992 3299.8992 3299.8992 3299.8992 3299.8992 3299.8992 3299.8992 3299.8992 3299.8992 3299.8992 3299.8992 3067.6665 673.53516 -884.82056 -1369.0247 -1670.6451 -1744.4641 -1244.3481 -212.99744 242.90771 518.042 671.521 656.3141 -542.2119 -3275.4272 -3259.7168 -3244.9126 -3230.713 -3216.11 -3201.709 -3187.7104 -3173.9136 -3160.0159 -3146.4202 -3133.0261 -3119.6318 -3106.5398 -1912.6465 3299.8992 3299.8992 3299.8992 3299.8992 3299.8992 3299.8992 3299.8992 3299.8992 3299.8992 3299.8992 3299.8992 3299.8992 3299.8992 2970.9868 639.8987 -754.8065 -1141.5253 -1456.5399 -1597.229 -921.17615 -36.154175 382.1869 672.5281 956.32324 851.3855 -582.99866 -3280.2612 -3264.9536 -3249.948 -3235.6475 -3220.944 -3206.6436 -3192.5444 -3178.6467 -3164.8499 -3151.2542 -3137.9607 -3124.3652 -3111.0718 -1359.7595 3299.8992 3299.8992 3299.8992 3299.8992 3299.8992 3299.8992 3299.8992 3299.8992 3299.8992 3299.8992 3299.8992 3299.8992 3299.8992 2525.9583 219.14062 -1036.9904 -1362.0758 -1609.0118 -1631.5704 -618.14575 435.66284 777.76794 896.5027 982.4066 706.4667 -863.8733 -3285.0952 -3270.0896 -3255.2856 -3240.1794 -3225.778 -3211.679 -3197.5798 -3183.5815 -3169.583 -3156.0881 -3142.5933 -3129.2998 -3116.0063 -753.2959 3299.8992 3299.8992 3299.8992 3299.8992 3299.8992 3299.8992 3299.8992 3299.8992 3299.8992 3299.8992 3299.8992 3299.8992 3299.8992 2398.764 37.060547 -1274.4598 -1623.8159 -1777.0935 -1759.9731 -836.2793 -20.74585 336.16333 485.71472 
-3093.75 -3078.9458 -3064.1418 -3049.64 -3035.5408 -3021.3408 -3007.2417 -2993.4448 -2979.547 -2965.9514 -2952.4565 -2939.0625 -2925.8696 -2912.7776 -2899.7864 -2886.795 -2874.2065 -1720.5963 -1008.49 311.28845 2082.2388 3299.8992 3299.8992 3299.8992 3299.8992 3299.8992 3299.8992 3299.8992 3299.8992 3299.8992 3299.8992 3299.8992 3299.8992 3299.8992 3299.8992 3299.8992 3299.8992 -292.75818 -3123.9624 -3108.554 -3093.5486 -3078.6438 -3063.9404 -3049.4385 -3035.2385 -3021.1394 -3007.0403 -2993.1426 -2979.3457 -2965.75 -2952.1545 -2938.861 -2925.6682 -2912.5762 -2899.585 -2886.795 -2874.0051 -1752.0172 -973.7457 433.24585 2202.9875 3299.8992 3299.8992 3299.8992 3299.8992 3299.8992 3299.8992 3299.8992 3299.8992 3299.8992 3299.8992 3299.8992 3299.8992 3299.8992 3299.8992 3299.8992 3299.8992 -936.38306 -3121.8474 -3106.5398 -3091.4336 -3076.7302 -3062.4297 -3047.7263 -3033.3252 -3019.1252 -3005.127 -2991.2292 -2977.533 -2963.9373 -2950.3418 -2937.0483 -2923.8555 -2910.7634 -2897.7722 -2884.9822 -2870.3796 -1647.4823 -959.2438 445.3308 2334.8145 3299.8992 3299.8992 3299.8992 3299.8992 3299.8992 3299.8992 3299.8992 3299.8992 3299.8992 3299.8992 3299.8992 3299.8992 3299.8992 3299.8992 3299.8992 3299.8992 -1819.3909 -3118.1213 -3102.9143 -3087.909 -3073.2056 -3058.905 -3044.3022 -3029.9011 -3015.7012 -3001.8035 -2987.8052 -2974.2095 -2960.5132 -2947.1191 -2933.7249 -2920.6328 -2907.5408 -2894.5496 -2881.8604 -2857.9924 -2007.9163 -1044.4427 398.6023 2334.2102 3299.8992 3299.8992 3299.8992 3299.8992 3299.8992 3299.8992 3299.8992 3299.8992 3299.8992 3299.8992 3299.8992 3299.8992 3299.8992 3299.8992 3299.8992 3299.8992 -2609.7473 -3110.0647 -3094.8577 -3079.8523 -3065.2495 -3050.4456 -3036.145 -3021.945 -3007.9468 -2994.049 -2980.3528 -2966.6565 -2953.0608 -2939.6667 -2926.4739 -2913.2812 -2900.1892 -2887.3992 -2874.71 -2653.0518 -1679.7089 -745.7428 656.7169 2628.5796 3299.8992 3299.8992 3299.8992 3299.8992 3299.8992 3299.8992 3299.8992 3299.8992 3299.8992 3299.8992 3299.8992 3299.8992 3299.8992 3299.8992 3299.8992 3227.3894 -2908.3464 -3107.4463 -3092.2393 
1343.2434 1570.8435 1162.1704 -390.0421 -1707.0007 3217.7214 3234.0361 3250.2502 3266.2627 3281.9731 3297.583 -3286.8071 -3271.4995 -3256.192 -3241.0857 -3226.181 -2594.641 1608.1055 3299.8992 3299.8992 3299.8992 3299.8992 3299.8992 3295.8708 3280.5632 3265.2556 3249.3438 3233.7341 3218.225 3201.709 1933.2916 -534.7595 -1606.4941 -1754.6356 -1727.948 -1560.2692 -887.9425 277.14844 874.9512 1262.1735 1511.6272 1707.4036 1154.2145 -486.6211 -1994.7235 3214.3982 3230.9143 3247.0276 3263.04 3278.8513 3294.5618 -3290.0298 -3274.6216 -3259.1125 -3244.107 -3229.1016 -2176.0986 2321.823 3299.8992 3299.8992 3299.8992 3299.8992 3299.8992 3288.7207 3273.413 3258.0046 3242.2942 3226.6846 3211.1755 3193.048 1475.5737 -910.90393 -1916.3727 -2129.1687 -2158.9783 -1939.1327 -1119.873 21.75293 672.22595 1119.9738 1470.0348 1672.3572 1119.6716 -578.2654 -2153.0364 3223.8647 3240.0786 3256.3933 3272.3052 3287.8142 3299.8992 -3281.067 -3265.6584 -3250.5522 -3235.3455 -3220.3398 -1962.1948 2483.3586 3299.8992 3299.8992 3299.8992 3299.8992 3299.8992 3295.5688 3280.2612 3264.7522 3249.0417 3233.3313 3217.7214 3198.0835 1382.5195 -940.20996 -1859.372 -1927.7527 -1893.4113 -1718.7836 -813.21716 357.91626 964.4806 1371.2402 1655.1361 1691.5924 968.0054 -741.9159 -2524.8503 3223.6633 3239.978 3256.192 3272.1038 3287.8142 3299.8992 -3280.966 -3265.7593 -3250.5522 -3235.446 -3220.4407 -1513.6414 2945.0042 3299.8992 3299.8992 3299.8992 3299.8992 3299.8992 3292.5476 3277.0386 3261.5295 3245.9197 3230.0078 3214.4988 3193.2495 1048.6725 -1078.3813 -1939.1327 -1976.1932 -1960.3821 -1657.0496 -620.1599 402.3285 853.9032 1198.0225 1505.7861 1544.5587 837.3871 -857.8308 -2814.4866 3227.0874 3243.3013 3259.4146 3275.2258 3291.0369 3299.8992 -3277.9448 -3262.6372 -3247.3296 -3232.3242 -3217.4194 -1125.412 3299.8992 3299.8992 3299.8992 3299.8992 3299.8992 3299.8992 3292.5476 3277.0386 3261.5295 3245.9197 3230.1086 3214.5996 3142.694 721.7743 -1276.0712 -1976.3947 -1922.0123 -1679.306 -1440.4266 -335.15625 627.9144 1072.9431 1384.6344 
-2997.171 -2983.2732 -2969.577 -2956.082 -2942.7886 -2929.495 -2916.403 -2903.311 -2890.4204 -2877.5298 -2864.74 -2852.1514 -2839.6636 -2827.1758 -2814.7888 -2802.5024 -2787.8997 -2030.3741 -1467.8192 -716.5375 141.09192 1126.9226 2884.7808 3299.8992 3299.8992 3299.8992 3299.8992 3299.8992 3299.8992 3299.8992 3299.8992 3299.8992 3299.8992 3299.8992 3299.8992 3299.8992 3299.8992 985.42786 -1540.7318 -3007.2417 -2993.1426 -2979.2449 -2965.6494 -2952.1545 -2938.7603 -2925.5676 -2912.4756 -2899.3835 -2886.5935 -2873.703 -2861.0137 -2848.3245 -2835.736 -2823.2483 -2810.861 -2798.5747 -2617.6025 -1714.7552 -1109.903 -474.63684 303.1311 1275.769 3141.4856 3299.8992 3299.8992 3299.8992 3299.8992 3299.8992 3299.8992 3299.8992 3299.8992 3299.8992 3299.8992 3299.8992 3299.8992 3299.8992 3299.8992 846.7529 -1680.716 -3008.2488 -2994.1497 -2980.3528 -2966.6565 -2953.1616 -2939.8682 -2926.5747 -2913.4827 -2900.4912 -2887.6006 -2874.8108 -2862.0208 -2849.231 -2836.8438 -2824.4568 -2811.969 -2799.884 -2591.9219 -1635.5988 -1118.3624 -417.73682 526.9043 1540.329 3299.8992 3299.8992 3299.8992 3299.8992 3299.8992 3299.8992 3299.8992 3299.8992 3299.8992 3299.8992 3299.8992 3299.8992 3299.8992 3299.8992 3299.8992 493.46924 -1905.9998 -3009.1553 -2995.0562 -2981.259 -2967.7642 -2954.2693 -2940.9758 -2927.6824 -2914.5903 -2901.599 -2888.809 -2875.9185 -2863.1287 -2850.4395 -2837.8508 -2825.4639 -2813.0767 -2800.7903 -2567.752 -1816.4703 -1203.2593 -497.59827 247.03674 1429.3488 3299.8992 3299.8992 3299.8992 3299.8992 3299.8992 3299.8992 3299.8992 3299.8992 3299.8992 3299.8992 3299.8992 3299.8992 3299.8992 3299.8992 2939.0625 -20.141602 -2192.111 -3002.71 -2988.51 -2974.8137 -2961.3188 -2947.9248 -2934.5305 -2921.237 -2908.2458 -2895.1538 -2882.3638 -2869.7754 -2856.9854 -2844.2961 -2831.8083 -2819.6228 -2807.2356 -2794.7478 -2478.2227 -1728.1494 -1122.5922 -368.79272 480.4779 1717.8772 3299.8992 3299.8992 3299.8992 3299.8992 3299.8992 3299.8992 3299.8992 3299.8992 3299.8992 3299.8992 3299.8992 3299.8992 3299.8992 3299.8992 2914.087 -43.606567 -2470.8708 -3000.1921 

67.27295 57.000732 76.23596 40.98816 -12.286377 -48.843384 -41.189575 -33.535767 -16.314697 11.883545 33.636475 57.20215 94.96765 100.6073 95.5719 83.58765 70.999146 106.448364 99.298096 72.509766 27.996826 -36.4563 -79.45862 -79.559326 -77.142334 -81.06995 -117.42554 -176.44043 -205.0415 -204.23584 -165.36255 -115.512085 -80.4657 -29.30603 63.446045 141.69617 169.59229 132.83386 104.63562 105.6427 95.5719 89.227295 106.75049 71.7041 9.063721 -37.564087 -62.64038 -54.483032 -13.796997 24.27063 0 -43.50586 -29.205322 -15.811157 8.459473 5.9417725 -1.6113281 43.103027 65.963745 57.000732 55.288696 48.44055 10.876465 -1.4099121 5.1361084 25.177002 21.652222 -10.977173 18.026733 69.1864 135.15015 196.38062 227.29797 247.54028 179.15955 99.49951 50.05188 -35.85205 -147.2351 -243.71338 -268.78967 -221.3562 -117.92908 -70.09277 -52.972412 -2.6184082 66.16516 141.19263 217.93213 248.24524 256.7047 232.13196 184.69849 38.87329 -96.276855 -178.05176 -254.48914 -284.0973 -350.46387 -383.29468 -334.4513 -270.09888 -219.24133 -129.00696 -73.31543 -14.099121 31.118774 55.18799 34.542847 1.3092041 -2.0141602 24.069214 58.71277 66.36658 16.314697 -23.968506 -16.918945 12.991333 54.0802 94.766235 120.84961 153.57971 215.81726 222.06116 209.27124 194.46716 154.08325 107.85828 23.062134 -60.424805 -110.37598 -122.86377 -87.11243 -64.956665 -62.64038 -102.420044 -161.0321 -164.6576 -149.6521 -113.90076 -88.11951 -82.681274 -100.50659 -96.37756 -129.00696 -139.98413 -126.086426 -113.80005 -81.57349 -53.475952 -20.24231 12.689209 30.81665 35.247803 7.8552246 26.586914 31.82373 12.789917 20.947266 53.274536 112.18872 175.83618 208.56628 170.80078 152.67334 174.02344 172.41211 175.43335 188.6261 164.6576 52.06604 -121.9574 -190.33813 -128.10059 -28.097534 -27.392578 -37.86621 -44.41223 -56.497192 -41.89453 -6.5460205 -5.2368164 -34.744263 -33.636475 -33.83789 24.069214 89.52942 131.32324 129.71191 89.52942 64.65454 40.081787 25.78125 78.048706 165.16113 210.98328 190.84167 148.84644 110.37598 103.62854 89.12659 102.319336 133.63953 95.773315 9.063721 -27.896118 12.185669 75.83313 94.96765 64.65454 -6.6467285 -137.86926 -293.56384 -458.22144 -526.7029 -464.96887 -322.46704 -212.69531 -185.60486 -156.50024 
