-3.2226562 -6.0424805 -8.157349 -13.394165 -2.7191162 -6.0424805 -2.5177002 -3.0212402 -3.8269043 -2.5177002 -3.9276123 -3.2226562 -10.272217 -4.7332764 -6.3446045 -10.272217 -3.0212402 -8.258057 -8.157349 -6.4453125 -3.9276123 -1.3092041 -2.8198242 -4.9346924 2.1148682 8.258057 6.1431885 7.2509766 5.0354004 4.3304443 10.171509 10.070801 2.6184082 0.60424805 -0.80566406 2.9205322 3.3233643 -4.6325684 -9.466553 -5.9417725 -8.358765 -2.2155762 -0.70495605 -4.2297363 -3.6254883 2.1148682 -0.30212402 -4.6325684 2.5177002 -0.10070801 1.8127441 -2.6184082 -2.6184082 2.1148682 4.1290283 1.2084961 -4.8339844 4.5318604 -6.7474365 -10.171509 -3.6254883 -3.5247803 0.30212402 7.5531006 2.2155762 7.4523926 4.7332764 -0.60424805 2.5177002 3.0212402 3.7261963 4.8339844 -2.0141602 -7.0495605 -7.7545166 -7.3516846 -0.70495605 1.8127441 3.8269043 5.8410645 6.5460205 6.5460205 2.5177002 -0.30212402 7.9559326 6.8481445 3.7261963 2.3162842 7.2509766 5.4382324 3.7261963 2.4169922 -3.0212402 -4.8339844 -5.2368164 -9.164429 -5.9417725 -7.5531006 -10.473633 -14.804077 -12.084961 -13.394165 -6.4453125 -11.682129 -1.7120361 19.839478 25.378418 35.650635 39.074707 37.86621 34.94568 27.493286 19.73877 23.666382 14.401245 8.862305 -15.710449 -60.928345 -78.552246 -53.375244 -34.039307 -14.401245 -8.056641 -10.070801 -10.473633 -6.5460205 -5.1361084 -9.466553 1.2084961 -3.2226562 -5.1361084 -3.6254883 -4.6325684 -4.4311523 -10.675049 -13.092041 -11.984253 -8.258057 -2.9205322 -5.2368164 -5.6396484 -11.480713 -2.4169922 -3.0212402 -3.1219482 -4.3304443 -3.1219482 -1.4099121 2.3162842 4.2297363 1.4099121 5.2368164 9.265137 10.977173 10.372925 7.0495605 8.258057 15.005493 12.487793 14.703369 11.984253 10.675049 10.070801 13.696289 11.178589 5.8410645 11.883545 4.0283203 -2.3162842 -3.5247803 -12.286377 -12.991333 -10.070801 -10.070801 -6.8481445 -5.6396484 0.80566406 3.8269043 1.9134521 1.4099121 -0.50354004 7.3516846 3.4240723 3.4240723 2.0141602 -1.9134521 4.3304443 -3.9276123 -0.30212402 -1.3092041 -3.2226562 -3.1219482 -6.7474365 -4.0283203 -3.1219482 -1.7120361 -1.5106201 0.20141602 -2.1148682 0.30212402 0.30212402 0.30212402 0.30212402 0.30212402 0.30212402 0.30212402 0.30212402 0.30212402 0.30212402 0.30212402 0.30212402 0.30212402 0.30212402 0.30212402 0.30212402 0.30212402 0.30212402 0.30212402 0.30212402 0.30212402 
7.1502686 8.157349 7.9559326 11.782837 11.883545 9.970093 1.4099121 -2.6184082 -3.7261963 -4.2297363 -10.372925 -11.077881 -6.9488525 -5.2368164 -8.560181 -5.3375244 -3.9276123 -2.9205322 -5.4382324 -9.466553 -16.113281 -12.185669 -4.3304443 -4.7332764 -2.3162842 -2.4169922 -3.1219482 3.2226562 10.272217 14.401245 19.638062 20.947266 22.659302 23.364258 18.933105 20.846558 18.026733 20.343018 17.72461 17.22107 16.71753 13.494873 9.768677 2.9205322 0.30212402 -14.501953 -21.853638 -19.537354 -19.335938 -15.710449 -19.033813 -19.23523 -15.609741 -12.487793 -8.660889 -12.991333 -8.963013 -16.113281 -14.703369 -11.279297 -11.279297 -11.279297 -11.279297 -11.279297 -11.279297 -11.279297 -11.279297 -11.279297 -11.279297 -11.279297 -11.279297 -11.279297 -11.279297 -11.279297 -11.279297 -11.279297 -11.279297 -11.279297 -11.279297 -11.279297 5.9417725 13.293457 18.127441 11.380005 13.494873 4.9346924 1.0070801 -2.7191162 -3.7261963 -7.3516846 -5.2368164 -7.9559326 -8.761597 -15.106201 -9.768677 -16.415405 -14.401245 -10.876465 -3.6254883 -4.8339844 -3.5247803 -1.1077881 7.2509766 11.581421 14.904785 13.494873 24.472046 25.177002 28.097534 21.350098 22.457886 18.933105 21.853638 21.450806 29.80957 35.247803 44.0094 35.147095 26.586914 6.6467285 -3.6254883 -13.293457 -22.961426 -28.198242 -31.521606 -33.032227 -29.406738 -25.378418 -20.343018 -24.169922 -30.715942 -34.94568 -31.82373 -25.78125 -15.408325 -13.293457 -20.544434 -17.120361 -21.148682 -15.811157 -15.106201 -12.286377 -4.5318604 -5.7403564 -0.40283203 -3.3233643 4.0283203 7.3516846 0.9063721 3.1219482 1.5106201 -8.963013 -12.084961 -6.3446045 -1.2084961 2.4169922 6.0424805 6.6467285 9.768677 9.970093 13.796997 9.667969 9.667969 10.675049 7.4523926 2.7191162 1.1077881 3.2226562 -2.9205322 -11.178589 -3.5247803 -6.2438965 -2.1148682 -3.0212402 -8.963013 -11.883545 -16.113281 -13.998413 -13.897705 -8.963013 -4.5318604 -13.595581 -10.070801 -12.789917 -7.4523926 -10.473633 -9.265137 -3.7261963 4.8339844 4.5318604 9.063721 15.005493 16.616821 19.134521 19.940186 24.874878 24.673462 25.27771 19.537354 16.616821 17.926025 15.911865 15.609741 9.164429 -1.2084961 -9.869385 -6.3446045 -7.7545166 -4.3304443 -6.1431885 -5.8410645 -4.1290283 -0.9063721 1.8127441 8.258057 10.171509 9.164429 9.869385 14.401245 13.293457 
-3188.214 -3173.41 -3158.0017 -3143.4998 -3128.7964 3299.8992 3299.8992 3299.8992 3299.8992 3299.8992 3299.8992 3299.8992 3299.8992 3299.8992 3299.8992 3299.8992 3289.5264 3273.413 3257.5012 3241.5894 3225.9795 3210.269 3195.1628 3179.7546 3163.6414 3166.4612 3183.8835 3200.9033 3217.8223 3234.6404 3251.1565 3267.6726 3283.9873 3299.8992 -3283.484 -3267.4712 -3251.5593 -3235.9497 -3220.2393 -3204.6294 -3189.4226 -3174.6184 -3159.613 -3144.3054 -3129.7026 3299.8992 3299.8992 3299.8992 3299.8992 3299.8992 3299.8992 3299.8992 3299.8992 3299.8992 3299.8992 3299.8992 3288.8213 3272.6074 3256.6956 3240.7837 3225.2747 3210.0676 3194.2566 3179.4524 3163.339 3166.9646 3184.1858 3201.2053 3218.0237 3234.8418 3251.358 3267.874 3284.2896 3299.8992 -3283.2825 -3267.3706 -3251.358 -3235.6475 -3220.0378 -3204.5288 -3189.2212 -3173.7122 -3158.5051 -3144.104 -3129.5012 3299.8992 3299.8992 3299.8992 3299.8992 3299.8992 3299.8992 3299.8992 3299.8992 3299.8992 3299.8992 3299.8992 3286.7065 3270.6938 3254.6814 3238.971 3223.2605 3207.55 3192.5444 3177.1362 3160.7207 3165.9575 3183.5815 3200.5005 3217.4194 3234.0361 3250.7537 3267.2698 3283.5845 3299.7986 -3283.9873 -3267.874 -3252.063 -3236.2517 -3220.7427 -3205.2336 -3189.8254 -3174.9207 -3159.5122 -3145.0103 -3079.7515 3299.8992 3299.8992 3299.8992 3299.8992 3299.8992 3299.8992 3299.8992 3299.8992 3299.8992 3299.8992 3299.8992 3284.8938 3268.7805 3252.8687 3237.0574 3221.4478 3205.7373 3190.7317 3175.3235 3151.5564 3166.159 3183.5815 3200.702 3217.52 3234.2375 3250.7537 3267.2698 3283.5845 3299.8992 -3283.8867 -3267.7734 -3251.9622 -3236.1511 -3220.5413 -3205.0322 -3189.8254 -3174.9207 -3160.1165 -3144.7083 -2900.7935 3299.8992 3299.8992 3299.8992 3299.8992 3299.8992 3299.8992 3299.8992 3299.8992 3299.8992 3299.8992 3299.0935 3283.081 3266.9678 3250.955 3235.144 3219.635 3204.5288 3188.8184 3174.115 3053.1646 3166.159 3183.3801 3200.299 3217.218 3233.9355 3250.5522 3266.9678 3283.2825 3299.6978 -3284.1887 -3268.2769 -3252.2644 -3236.554 -3220.944 -3205.435 -3190.1274 -3174.6184 -3159.5122 -3145.111 -2857.8918 3299.8992 3299.8992 3299.8992 3299.8992 3299.8992 3299.8992 3299.8992 3299.8992 3299.8992 3299.8992 3299.5972 3283.484 3267.3706 3251.4587 3235.6475 
-3216.9158 -3202.8167 -3188.3147 -3174.3164 -2824.054 3299.8992 3299.8992 3299.8992 3299.8992 3299.8992 3299.8992 3299.8992 3299.8992 3299.8992 3291.4397 3276.3335 3261.4287 3246.4233 3231.6191 3217.218 3202.716 3188.1133 3174.115 3160.3179 2984.1797 3154.779 3170.8923 3186.8042 3202.716 3218.3257 3233.9355 3249.3438 3264.6514 3279.8584 3295.0652 -3289.9292 -3274.9236 -3260.1196 -3245.4163 -3230.8135 -3216.4124 -3202.3132 -3187.8113 -3173.9136 -2429.5806 3299.8992 3299.8992 3299.8992 3299.8992 3299.8992 3299.8992 3299.8992 3299.8992 3299.8992 3290.634 3275.5278 3260.5225 3245.7183 3231.015 3216.4124 3202.011 3187.4084 3173.41 3159.4116 2842.6848 3154.8796 3170.7915 3186.7034 3202.5146 3218.225 3233.8347 3249.2432 3264.5508 3279.8584 3295.0652 -3289.9292 -3274.9236 -3260.2202 -3245.4163 -3230.9143 -3216.4124 -3202.4138 -3187.9119 -3173.9136 -2108.5234 3299.8992 3299.8992 3299.8992 3299.8992 3299.8992 3299.8992 3299.8992 3299.8992 3299.8992 3289.5264 3274.4202 3259.5154 3244.6106 3229.8064 3215.4053 3200.9033 3186.4014 3172.3022 3158.4045 2509.7441 3155.2825 3171.4966 3187.207 3203.119 3218.8293 3234.3384 3249.7466 3265.155 3280.2612 3295.468 -3289.4255 -3274.5208 -3259.7168 -3245.0134 -3230.4106 -3216.0095 -3202.011 -3187.509 -3173.6113 -1691.1896 3299.8992 3299.8992 3299.8992 3299.8992 3299.8992 3299.8992 3299.8992 3299.8992 3299.8992 3288.922 3273.816 3258.9111 3243.9055 3229.303 3214.7002 3200.299 3185.797 3171.8994 3157.8003 2142.2607 3155.9875 3172 3187.8113 3203.6223 3219.3328 3234.8418 3250.3508 3265.6584 3280.8655 3296.0723 -3288.8213 -3274.0173 -3259.1125 -3244.4092 -3229.9072 -3215.4053 -3201.4067 -3187.0056 -3173.007 -572.92786 3299.8992 3299.8992 3299.8992 3299.8992 3299.8992 3299.8992 3299.8992 3299.8992 3299.8992 3286.908 3272.0032 3256.9976 3242.1936 3227.3894 3212.8875 3198.4863 3184.1858 3169.9858 3156.0881 1593.6035 3155.7861 3171.7986 3187.7104 3203.5217 3219.1313 3234.6404 3250.1494 3265.5579 3280.664 3295.8708 -3289.0227 -3274.118 -3259.314 -3244.7112 -3230.1086 -3215.7073 -3201.6082 -3187.207 -3173.2085 -205.64575 3299.8992 3299.8992 3299.8992 3299.8992 3299.8992 3299.8992 3299.8992 3299.8992 3299.8992 3286.203 3270.996 3256.192 3241.388 3226.6846 3212.0818 
-3226.7852 -3212.0818 -3197.3784 -3182.9773 -847.9614 3299.8992 3299.8992 3299.8992 3299.8992 3299.8992 3299.8992 3299.8992 3299.8992 3293.6553 3278.4485 3262.6372 2935.0342 3248.4375 3264.148 3279.7576 3295.3674 -3289.325 -3274.0173 -3258.8103 -3243.704 -987.94556 3299.8992 3299.8992 3299.8992 3299.8992 3298.7915 3283.8867 3268.579 3268.4783 3284.2896 3299.8992 -3284.6924 -3269.5862 -3254.2786 -3239.273 -3224.469 -3209.8662 -3195.465 -3181.4666 -17.523193 3299.8992 3299.8992 3299.8992 3299.8992 3299.8992 3299.8992 3299.8992 3299.8992 3293.6553 3278.549 3262.8386 2875.3142 3248.941 3264.9536 3280.5632 3296.173 -3288.6199 -3273.413 -3258.206 -3243.704 -575.9491 3299.8992 3299.8992 3299.8992 3299.8992 3296.0723 3281.1675 3265.6584 3267.3706 3283.383 3298.892 -3285.6995 -3270.4924 -3255.0842 -3240.28 -3225.3752 -3210.7727 -3196.0693 -3181.8694 668.39905 3299.8992 3299.8992 3299.8992 3299.8992 3299.8992 3299.8992 3299.8992 3299.8992 3291.4397 3276.132 3260.321 2544.69 3249.3438 3265.0542 3280.664 3296.173 -3288.5193 -3273.1108 -3257.8032 -3243.2007 -727.9175 3299.8992 3299.8992 3299.8992 3299.8992 3297.885 3282.7788 3267.0684 3269.989 3285.8 3299.8992 -3283.1816 -3267.6726 -3252.7678 -3237.863 -3222.9583 -3208.3557 -3193.753 -3179.6538 1156.9336 3299.8992 3299.8992 3299.8992 3299.8992 3299.8992 3299.8992 3299.8992 3299.8992 3293.1519 3277.9448 3261.6301 2383.4563 3251.9622 3267.7734 3283.484 3298.6907 -3285.8 -3270.6938 -3255.789 -3240.6829 -155.09033 3299.8992 3299.8992 3299.8992 3299.8992 3296.6765 3281.7717 3261.8315 3270.5933 3286.4043 3299.8992 -3282.5774 -3267.2698 -3252.2644 -3237.2588 -3222.4548 -3207.7515 -3193.451 -3179.0496 1470.7397 3299.8992 3299.8992 3299.8992 3299.8992 3299.8992 3299.8992 3299.8992 3299.8992 3292.4468 3277.0386 3261.2273 2308.429 3251.5593 3267.3706 3282.9802 3298.59 -3286.3037 -3270.7947 -3255.487 -3240.985 114.70642 3299.8992 3299.8992 3299.8992 3299.8992 3294.7632 3279.7576 3246.4233 3269.8882 3285.6995 3299.8992 -3283.484 -3268.1763 -3253.07 -3238.0645 -3222.9583 -3208.6577 -3193.9543 -3179.8552 2324.7437 3299.8992 3299.8992 3299.8992 3299.8992 3299.8992 3299.8992 3299.8992 3299.8992 3290.4326 3275.125 3259.314 2028.36 3251.6602 3267.3706 3283.081 
3155.8867 3171.698 3187.6099 3203.018 -3250.5522 702.0355 3209.5642 3194.8608 3179.7546 3165.3533 3151.0527 3136.853 3122.5525 3108.0505 3093.6492 3079.1472 3064.8467 3050.5461 3036.3464 3022.2473 3008.4502 2994.452 2980.7556 2966.9585 2940.271 1496.521 -325.589 -2160.6902 2963.1316 2980.5542 2997.7751 3014.694 3031.4116 3048.1292 3064.5447 3080.96 3097.0732 3113.388 3129.4006 3145.3125 3161.1235 3176.9348 3192.1416 3208.0535 -3218.527 707.17163 3214.7002 3199.9968 3184.6892 3170.3887 3156.0881 3141.8884 3127.588 3113.086 3098.4832 3084.082 3069.6807 3055.3801 3041.0796 3027.0813 3013.1836 2999.185 2984.8845 2971.289 2950.241 1645.3674 -90.43579 -1807.5073 3173.8127 2980.4534 2997.6746 3014.5935 3031.4116 3048.1292 3064.6453 3080.96 3097.174 3113.2874 3129.2998 3145.2117 3161.1235 3176.9348 3192.1416 3208.0535 -2403.6987 2761.5142 3203.5217 3188.919 3173.7122 3159.5122 3145.111 3130.8105 3116.51 3102.1086 3087.909 3073.407 3058.905 3044.705 3030.606 3016.5068 3002.6091 2988.8123 2974.411 2960.8154 2581.851 1298.0255 330.42297 -926.9165 -2486.8835 3274.823 2982.367 2999.4873 3016.4062 3033.1238 3049.942 3066.2566 3082.5713 3098.7854 3114.8987 3130.9111 3146.823 3162.6343 3177.942 3193.8538 -2802.5024 -154.78821 2695.6511 3195.0623 3179.956 3165.756 3151.5564 3137.3564 3122.8545 3108.554 3093.9514 3079.55 3065.2495 3050.949 3036.7493 3022.7507 3008.9539 2995.1567 2981.3599 2967.6636 2950.3418 2220.6116 613.8153 -1014.8346 -2701.9958 2962.6282 2980.0505 2996.9695 3014.1907 3030.7068 3047.3235 3063.8396 3080.1543 3096.469 3112.4817 3128.595 3144.5068 3160.2173 3176.1292 3191.6382 -2677.1208 1629.657 3191.7388 3177.0354 3162.1306 3147.83 3133.731 3119.6318 3105.4321 3090.9302 3076.6296 3062.2283 3047.8271 3033.728 3019.629 3005.7312 2991.934 2978.0364 2964.441 2950.7446 2923.4526 1600.5524 -217.83142 -2035.5103 2945.407 2962.8296 2980.1514 2997.171 3013.9893 3030.7068 3047.223 3063.6382 3079.953 3096.167 3112.2803 3128.2927 3144.104 3159.8145 3175.827 3191.336 -2668.158 1545.9686 3191.5374 3177.0354 3161.9292 3147.7295 3133.5295 3119.4304 3105.0293 3090.7288 3076.4282 3062.0269 3047.7263 3033.6272 3019.528 3005.6304 
-3250.7537 -3234.8418 -3219.635 -3203.9246 -1182.312 3299.8992 3299.8992 3299.8992 3299.8992 3299.8992 3299.8992 3299.8992 3283.8867 3267.874 3251.358 3234.439 2425.7537 -3008.7524 3237.863 3254.6814 3270.996 3287.6128 3299.8992 -3279.959 -3263.9465 -499.71313 3198.7883 3299.8992 3299.8992 3288.0156 3272.708 3256.897 3240.985 3238.0645 3255.0842 3271.8018 3288.217 3299.8992 -3279.0527 -3263.04 -3247.0276 -3231.3171 -3216.0095 -3200.3997 -739.7003 3299.8992 3299.8992 3299.8992 3299.8992 3299.8992 3299.8992 3299.8992 3285.6995 3269.5862 3253.1707 3236.4531 2489.804 -2910.3606 3239.1724 3255.89 3272.3052 3288.922 3299.8992 -3278.7505 -3262.738 -146.32874 3299.8992 3299.8992 3299.8992 3286.3037 3270.8953 3255.1848 3239.1724 3238.7695 3255.6885 3272.3052 3288.8213 3299.8992 -3278.65 -3262.5366 -3246.6248 -3230.8135 -3215.103 -3199.9968 -420.85876 3299.8992 3299.8992 3299.8992 3299.8992 3299.8992 3299.8992 3299.8992 3285.1958 3269.0825 3252.5664 3235.6475 2132.8948 3228.3965 3241.287 3258.1055 3274.6216 3290.9363 3299.8992 -3276.535 -3260.4216 -7.8552246 3299.8992 3299.8992 3299.8992 3287.6128 3272.2046 3256.3933 3240.1794 3240.8843 3257.8032 3274.5208 3291.0369 3299.8992 -3276.3335 -3260.2202 -3244.3083 -3228.598 -3213.391 -3197.882 162.2406 3299.8992 3299.8992 3299.8992 3299.8992 3299.8992 3299.8992 3299.8992 3285.5986 3269.3848 3252.8687 3235.8489 2049.5085 3225.2747 3242.1936 3258.9111 3275.5278 3291.9434 -3291.641 -3275.7292 -3259.7168 88.0188 3299.8992 3299.8992 3299.8992 3287.7136 3272.3052 3256.4941 3237.1582 3242.1936 3259.2131 3275.7292 3292.3462 -3291.2383 -3275.125 -3259.1125 -3243.0999 -3227.4902 -3211.679 -3196.7742 502.73438 3299.8992 3299.8992 3299.8992 3299.8992 3299.8992 3299.8992 3299.8992 3285.5986 3269.4854 3252.9692 3235.9497 1781.424 3227.4902 3244.4092 3261.026 3277.6428 3293.9575 -3289.4255 -3273.413 -3257.2998 262.8479 3299.8992 3299.8992 3299.8992 3288.3179 3273.0103 3257.199 3232.022 3244.2078 3261.1267 3277.8442 3294.3604 -3289.325 -3273.0103 -3256.9976 -3241.1865 -3225.476 -3209.7656 -3194.5586 1054.1107 3299.8992 3299.8992 3299.8992 3299.8992 3299.8992 3299.8992 3299.8992 3285.901 3269.7876 3253.1707 3236.2517 1734.9976 3227.893 3244.812 3261.5295 
3284.9944 3299.8992 -3284.3901 -3269.1833 -3253.9763 -1155.423 3299.8992 3299.8992 3299.8992 3299.8992 3287.3108 3272.6074 3257.5012 3242.2942 3226.9866 3211.9812 3196.875 3182.1716 3167.2668 3152.664 3138.263 3123.6602 3109.0576 3094.5557 3079.7515 2373.285 -1062.4695 3078.9458 3095.462 3112.1794 3128.595 3144.8088 3161.023 3177.0354 3192.9473 3208.6577 3224.3682 3240.0786 3255.789 3271.298 3286.908 3299.8992 -3282.376 -3267.1692 -3251.9622 -797.5067 3299.8992 3299.8992 3299.8992 3299.8992 3286.908 3271.9023 3256.897 3241.7908 3226.4832 3211.4775 3196.3713 3181.4666 3166.7632 3152.0598 3137.5579 3123.056 3108.554 3094.052 3079.4495 2332.8003 -1171.8384 3079.0466 3095.7642 3112.4817 3128.897 3145.0103 3161.1235 3177.2368 3193.1487 3208.96 3224.6704 3240.3809 3255.9905 3271.6003 3287.0085 3299.8992 -3282.1746 -3266.9678 -3251.7607 -646.94824 3299.8992 3299.8992 3299.8992 3299.8992 3286.1023 3271.0967 3255.9905 3240.7837 3225.6775 3210.5713 3195.5657 3180.7617 3166.0583 3151.2542 3136.7522 3122.1497 3107.7483 3093.2463 3078.6438 2267.0378 -1239.1113 3078.8452 3095.5627 3112.1794 3128.6956 3144.9097 3160.922 3176.834 3192.8467 3208.6577 3224.469 3240.1794 3255.89 3271.399 3286.908 3299.8992 -3282.376 -3267.1692 -3252.063 -543.1183 3299.8992 3299.8992 3299.8992 3299.8992 3285.1958 3270.1904 3255.1848 3239.978 3224.8718 3209.7656 3194.6594 3179.8552 3165.1519 3150.5493 3135.9465 3121.344 3107.0435 3092.4407 3077.6367 1946.8872 -1648.6908 3081.5642 3098.2817 3114.8987 3131.2134 3147.3267 3163.44 3179.4524 3195.2637 3211.0747 3226.886 3242.5964 3258.307 3273.816 3289.224 -3295.2666 -3280.0598 -3264.7522 -3249.7466 -319.64722 3299.8992 3299.8992 3299.8992 3299.8992 3285.901 3271.1975 3255.89 3240.5823 3225.5767 3210.5713 3195.5657 3180.661 3165.857 3151.2542 3136.6516 3122.2502 3107.6477 3093.1458 3078.3416 1950.9155 -1693.7073 3082.2693 3098.9868 3115.503 3132.019 3148.233 3164.447 3180.359 3196.2708 3212.0818 3227.893 3243.6035 3259.1125 3274.823 3290.332 -3294.461 -3279.2542 -3264.047 -3248.7395 3.2226562 3299.8992 3299.8992 3299.8992 3299.8992 3284.491 3269.7876 3254.5806 3239.4744 3224.3682 3209.3628 3194.1558 3179.251 3164.5476 3149.945 

5.6396484 8.761597 7.4523926 -0.50354004 5.7403564 3.9276123 6.3446045 6.1431885 5.8410645 -1.8127441 -5.3375244 -6.4453125 -0.20141602 -2.1148682 -7.9559326 -1.9134521 -2.9205322 -4.5318604 -4.3304443 0.80566406 3.0212402 1.9134521 2.7191162 6.2438965 7.5531006 10.473633 8.459473 12.185669 11.279297 13.092041 12.689209 12.487793 6.4453125 -0.10070801 2.5177002 -2.3162842 4.3304443 3.7261963 9.567261 5.3375244 0.80566406 0.50354004 -2.9205322 -4.2297363 5.2368164 -0.30212402 -0.40283203 -0.60424805 3.0212402 -3.0212402 -1.3092041 0.70495605 -1.1077881 -1.1077881 -6.2438965 -8.358765 -5.4382324 
9.466553 2.7191162 0.9063721 1.2084961 3.0212402 -5.5389404 -6.1431885 -5.8410645 -10.574341 -10.675049 -8.862305 -12.588501 -19.23523 -13.293457 -11.279297 -6.8481445 -7.9559326 -4.1290283 -2.1148682 -3.8269043 -9.063721 -4.2297363 -0.40283203 -1.0070801 0.60424805 5.0354004 -0.70495605 9.970093 10.272217 9.869385 12.588501 18.127441 15.609741 20.343018 23.26355 18.328857 15.811157 15.005493 12.084961 13.595581 13.897705 9.970093 8.862305 9.768677 0.70495605 -3.0212402 -4.0283203 -4.4311523 -1.1077881 -5.5389404 0.9063721 -1.0070801 -1.1077881 -2.1148682 -4.8339844 -5.6396484 -6.8481445 
-3138.162 -1819.1895 3299.8992 3299.8992 3299.8992 3299.8992 3299.8992 3299.8992 3299.8992 3299.8992 3299.8992 3299.8992 3299.8992 3283.5845 3267.572 3251.6602 3235.9497 3220.2393 3205.133 3189.5232 3174.6184 1131.1523 3174.8198 3191.8396 3208.7585 3225.5767 3242.1936 3258.8103 3275.3264 3291.5405 -3292.2454 -3276.132 -3260.1196 -3244.4092 -3228.4973 -3212.8875 -3197.5798 -3182.4736 -3166.864 -3152.4626 -3137.155 -1677.8961 3299.8992 3299.8992 3299.8992 3299.8992 3299.8992 3299.8992 3299.8992 3299.8992 3299.8992 3299.8992 3299.8992 3284.3901 3268.3777 3252.365 3236.6545 
-3170.691 2357.373 3299.8992 3299.8992 3299.8992 3299.8992 3299.8992 3299.8992 3299.8992 3299.8992 3299.3958 3284.2896 3269.284 3254.1777 3239.4744 3224.771 3210.269 3195.868 3181.7688 3167.5688 3153.4697 -1748.0896 3159.613 3175.9277 3191.8396 3207.55 3223.1597 3238.6687 3254.0771 3269.3848 3284.5916 3299.7986 -3285.1958 -3270.3918 -3255.487 -3240.985 -3226.4832 -3211.9812 -3197.3784 -3183.4807 -3169.583 3299.8992 3299.8992 3299.8992 3299.8992 3299.8992 3299.8992 3299.8992 3299.8992 3299.8992 3298.892 3283.6853 3268.6797 3253.775 3238.971 3224.1667 3209.7656 
-3176.834 3299.8992 3299.8992 3299.8992 3299.8992 3299.8992 3299.8992 3299.8992 3299.8992 3299.8992 3288.6199 3273.1108 3257.199 1048.4711 3254.782 3270.5933 3286.3037 3299.8992 -3283.081 -3268.0754 -3253.1707 -3163.742 1078.1799 3299.8992 3299.8992 3299.8992 3299.8992 3291.641 3276.7363 1913.3514 3273.413 3289.1235 3299.8992 -3279.959 -3265.0542 -3249.7466 -3234.7412 -3220.0378 -3205.3345 -3191.2354 -3177.1362 3299.8992 3299.8992 3299.8992 3299.8992 3299.8992 3299.8992 3299.8992 3299.8992 3299.8992 3286.4043 3270.996 3255.0842 843.42957 3253.5735 3269.4854 3285.0952 
3203.6223 -2029.6692 2179.6233 3198.7883 3184.1858 3169.0796 3154.779 3140.579 3126.2786 3111.978 3097.577 3083.1755 3068.7744 3054.4739 3040.274 3026.1748 3012.1765 2998.178 2984.381 2970.282 2956.787 2667.6543 1030.1422 -735.4706 -2456.369 2960.4126 2977.7344 2994.8547 3011.7737 3028.6926 3045.108 3061.7249 3078.0396 3094.3542 3110.4675 3126.3794 3142.3918 3158.2031 3174.0142 3189.1204 3205.0322 -1862.4939 2260.2905 3199.292 3184.6892 3169.583 3155.182 3141.0828 3126.7822 3112.3809 3098.0803 3083.5784 3069.2778 3054.9773 3040.7776 3026.6785 3012.5793 
-3194.8608 2927.7832 3299.8992 3299.8992 3299.8992 3299.8992 3299.8992 3299.8992 3296.576 3280.4626 3264.2485 3247.531 3230.612 772.63184 3229.0007 3245.9197 3262.4358 3279.0527 3295.468 -3288.1165 -3272.1038 -2655.066 1415.1489 3299.8992 3299.8992 3296.6765 3280.4626 3264.9536 3249.3438 2294.229 3243.9055 3260.7239 3277.4414 3293.8567 -3289.8284 -3273.6145 -3257.7026 -3241.69 -3226.0803 -3210.3699 -3195.1628 3299.8992 3299.8992 3299.8992 3299.8992 3299.8992 3299.8992 3299.8992 3294.7632 3278.7505 3262.5366 3245.819 3228.9001 570.41016 3228.598 3245.3154 3261.9324 
-3262.9395 -3244.4092 516.7328 3299.8992 3299.8992 3299.8992 3298.0864 3282.5774 3267.572 3252.4658 3237.2588 3222.2534 3207.0464 3192.041 3177.1362 3162.5334 3147.931 3133.3281 3118.8262 3104.3242 3089.8223 3074.6155 1180.3986 -2691.7236 3086.5996 3103.2166 3119.7327 3136.148 3152.362 3168.4753 3184.2864 3200.1982 3216.0095 3231.8206 3247.4304 3263.04 3278.549 3294.159 -3290.634 -3275.2258 -3260.1196 -3074.9175 914.0259 3299.8992 3299.8992 3299.8992 3297.6836 3282.1746 3267.4712 3252.1636 3236.9568 3221.7498 3206.845 3191.8396 3176.834 3162.2314 3147.4272 

-7.4523926 -2.3162842 3.0212402 0.30212402 2.9205322 -2.1148682 -3.8269043 -2.4169922 -7.5531006 -8.862305 -4.8339844 -2.6184082 -1.1077881 0.10070801 -1.0070801 -0.40283203 -0.10070801 6.3446045 8.963013 10.171509 10.171509 10.171509 10.171509 10.171509 10.171509 10.171509 10.171509 10.171509 10.171509 10.171509 10.171509 10.171509 10.171509 10.171509 10.171509 10.171509 10.171509 10.171509 10.171509 10.171509 -9.365845 -5.6396484 -10.372925 -11.581421 -5.0354004 -1.6113281 -3.3233643 -10.372925 -5.2368164 -2.6184082 -2.2155762 -6.0424805 -1.8127441 3.7261963 2.4169922 2.1148682 7.0495605 5.2368164 9.466553 9.365845 14.602661 11.782837 15.911865 14.099121 9.265137 7.0495605 8.459473 5.4382324 5.1361084 -1.0070801 -2.6184082 -9.567261 -8.459473 -7.2509766 -5.8410645 -6.7474365 -5.9417725 -10.272217 -6.9488525 -11.782837 -9.466553 -5.5389404 -4.1290283 0.30212402 1.1077881 1.2084961 -0.40283203 8.258057 4.4311523 3.8269043 0.70495605 1.0070801 -3.2226562 1.0070801 -0.9063721 0.20141602 0.50354004 2.2155762 3.9276123 1.5106201 6.9488525 7.9559326 5.7403564 7.7545166 7.2509766 7.1502686 8.157349 6.3446045 8.761597 3.6254883 7.0495605 -3.1219482 -2.1148682 -1.5106201 -5.0354004 -4.9346924 -10.473633 -7.6538086 -7.4523926 -2.6184082 -1.4099121 16.415405 27.090454 27.493286 35.85205 35.247803 35.95276 28.29895 15.408325 12.286377 3.7261963 -1.1077881 -14.099121 -47.53418 -73.11401 -60.324097 -32.93152 -19.638062 -3.8269043 -0.40283203 -1.0070801 1.0070801 -5.9417725 -4.6325684 -8.560181 -9.970093 -8.258057 -15.710449 -14.099121 -7.0495605 -9.768677 -6.1431885 -4.9346924 -7.0495605 -0.60424805 -4.5318604 -4.0283203 -10.775757 -15.710449 -19.537354 -11.682129 -2.1148682 2.1148682 2.2155762 1.2084961 5.6396484 5.9417725 7.1502686 2.9205322 -1.6113281 0.20141602 -4.2297363 0.70495605 5.2368164 5.7403564 8.862305 6.5460205 2.1148682 3.0212402 -1.0070801 2.2155762 3.1219482 3.4240723 0.9063721 5.4382324 1.8127441 1.2084961 5.1361084 5.4382324 5.3375244 7.6538086 7.6538086 5.4382324 7.3516846 10.775757 9.970093 11.984253 10.473633 1.5106201 -7.9559326 
-2.4169922 -0.20141602 0.10070801 -1.5106201 2.0141602 2.5177002 -3.9276123 -8.963013 -1.9134521 4.0283203 0.50354004 -6.0424805 -11.984253 -5.6396484 3.9276123 6.3446045 8.358765 2.0141602 3.5247803 13.796997 11.380005 16.113281 12.286377 20.74585 18.026733 7.4523926 8.761597 3.6254883 -2.5177002 -1.3092041 -8.963013 -5.5389404 2.8198242 -1.0070801 -2.3162842 10.876465 2.9205322 0.60424805 -3.9276123 -10.171509 0 3.2226562 -10.372925 -19.033813 -22.659302 -12.588501 -0.80566406 7.8552246 12.084961 1.8127441 2.2155762 9.365845 18.429565 13.494873 7.6538086 11.581421 8.963013 8.963013 2.5177002 -11.077881 -11.077881 -11.077881 -11.077881 -11.077881 -11.077881 -11.077881 -11.077881 -11.077881 -11.077881 -11.077881 -11.077881 -11.077881 -11.077881 -11.077881 -11.077881 -11.077881 -11.077881 -11.077881 -11.077881 -11.077881 -16.616821 -9.768677 -10.775757 -12.890625 -15.609741 -11.782837 -13.796997 -9.265137 -4.4311523 -5.3375244 -3.8269043 1.0070801 8.157349 8.862305 9.265137 12.084961 13.293457 14.703369 10.775757 15.307617 15.609741 17.422485 18.328857 15.005493 10.574341 0.80566406 4.1290283 1.5106201 8.862305 6.1431885 7.3516846 6.2438965 -1.6113281 -7.3516846 -7.3516846 -7.4523926 -10.272217 -7.2509766 -14.602661 -16.616821 -16.21399 -13.494873 -8.761597 -4.7332764 -2.0141602 4.9346924 6.4453125 -2.0141602 1.5106201 -1.2084961 3.1219482 8.660889 5.5389404 5.3375244 -1.0070801 5.0354004 6.9488525 14.300537 12.185669 14.300537 10.876465 8.358765 11.883545 6.7474365 3.6254883 0.50354004 0.9063721 -2.5177002 -4.3304443 -5.6396484 -8.358765 -10.372925 -12.286377 -15.206909 -5.1361084 -11.178589 -11.380005 -8.761597 -3.3233643 -1.7120361 1.9134521 -1.4099121 -7.8552246 -8.963013 -0.20141602 2.9205322 10.775757 10.070801 6.6467285 10.876465 16.616821 11.883545 14.199829 18.832397 23.76709 21.75293 11.077881 11.984253 16.113281 13.595581 6.7474365 5.9417725 -1.7120361 -12.991333 -13.192749 -21.954346 -24.371338 -11.279297 -10.977173 -4.8339844 -7.2509766 -9.768677 -10.675049 -14.602661 -18.026733 -19.638062 -10.372925 -8.963013 -3.1219482 -5.1361084 
3220.944 3205.838 3190.631 3175.0212 778.5736 3176.532 3193.8538 3210.7727 3227.5908 3244.3083 3260.8245 3277.1392 3293.5547 -3290.2312 -3274.118 -3258.1055 -3242.2942 -3226.6846 -3211.0747 -3195.767 -3180.5603 -3165.6555 -3150.348 -3136.0474 -922.9889 3299.8992 3299.8992 3299.8992 3299.8992 3299.8992 3299.8992 3299.8992 3299.8992 3299.8992 3299.8992 3298.993 3282.8796 3266.7664 3250.8545 3235.0432 3219.5342 3203.8237 3188.919 3173.41 -291.14685 3177.4382 3194.76 3211.679 3228.4973 3245.114 3261.731 3278.1462 3294.461 -3289.4255 -3273.3123 -3257.2998 -3241.4885 -3225.879 -3210.269 -3194.9614 -3179.6538 -3164.8499 -3150.0457 -3134.9395 -1274.6613 3299.8992 3299.8992 3299.8992 3299.8992 3299.8992 3299.8992 3299.8992 3299.8992 3299.8992 3299.8992 3299.8992 3285.1958 3269.0825 3253.1707 3237.4602 3221.8506 3206.6436 3191.4368 3175.7263 -723.0835 3180.9631 3198.184 3215.2039 3232.022 3248.538 3265.155 3281.4697 3297.885 -3286.0015 -3269.8882 -3253.9763 -3238.1653 -3222.5554 -3207.0464 -3191.6382 -3176.4312 -3161.6272 -3146.521 -3132.1196 -967.70325 3299.8992 3299.8992 3299.8992 3299.8992 3299.8992 3299.8992 3299.8992 3299.8992 3299.8992 3299.8992 3299.8992 3286.8071 3270.7947 3254.782 3239.0715 3223.462 3207.7515 3192.2424 3177.2368 -1583.432 3184.085 3201.1047 3217.9229 3234.8418 3251.4587 3267.9749 3284.2896 3299.8992 -3283.1816 -3267.1692 -3251.2573 -3235.446 -3219.7356 -3204.428 -3189.0198 -3173.8127 -3158.5051 -3144.0032 -3128.897 -599.5148 3299.8992 3299.8992 3299.8992 3299.8992 3299.8992 3299.8992 3299.8992 3299.8992 3299.8992 3299.8992 3299.8992 3288.0156 3272.0032 3255.9905 3240.1794 3224.5696 3209.3628 3193.753 3178.6467 -2164.92 3186.8042 3203.8237 3220.642 3237.4602 3254.0771 3270.4924 3287.0085 3299.8992 -3280.5632 -3264.5508 -3248.7395 -3233.029 -3217.3186 -3201.8096 -3186.6028 -3171.3958 -3156.0881 -3141.5862 -3126.48 -855.4138 3299.8992 3299.8992 3299.8992 3299.8992 3299.8992 3299.8992 3299.8992 3299.8992 3299.8992 3299.8992 3299.8992 3291.339 3275.2258 3259.2131 3243.5027 
3195.3643 3181.366 3166.9646 3152.9663 -2733.6182 3161.1235 3177.0354 3192.9473 3208.6577 3224.2676 3239.8772 3255.1848 3270.5933 3285.6995 3299.8992 -3284.0881 -3269.284 -3254.48 -3239.8772 -3225.3752 -3210.8733 -3196.7742 -3182.4736 -3168.576 3299.8992 3299.8992 3299.8992 3299.8992 3299.8992 3299.8992 3299.8992 3299.8992 3299.8992 3299.295 3284.0881 3269.0825 3254.0771 3239.3738 3224.6704 3210.1685 3195.767 3181.8694 3167.2668 3153.2683 3146.9238 3163.6414 3179.5532 3195.3643 3211.0747 3226.6846 3242.1936 3257.5012 3272.8088 3288.1165 3299.8992 -3281.8726 -3266.9678 -3252.2644 -3237.561 -3223.059 -3208.7585 -3194.6594 -3180.258 -3166.3604 3299.8992 3299.8992 3299.8992 3299.8992 3299.8992 3299.8992 3299.8992 3299.8992 3299.8992 3299.8992 3284.6924 3269.6868 3254.782 3239.978 3225.2747 3210.7727 3196.4722 3182.1716 3168.173 3154.074 3147.83 3164.5476 3180.5603 3196.0693 3211.7798 3227.4902 3242.8984 3258.307 3273.715 3288.8213 3299.8992 -3281.067 -3266.162 -3251.5593 -3236.856 -3222.2534 -3207.953 -3193.8538 -3179.4524 -3165.454 3299.8992 3299.8992 3299.8992 3299.8992 3299.8992 3299.8992 3299.8992 3299.8992 3299.8992 3299.8992 3285.1958 3270.1904 3255.2856 3240.4814 3225.879 3211.2761 3196.9756 3182.5745 3168.4753 3154.3762 3149.6428 3166.3604 3182.1716 3198.0835 3213.794 3229.4036 3244.812 3260.2202 3275.6287 3290.7349 3299.8992 -3279.2542 -3264.3494 -3249.5452 -3235.0432 -3220.4407 -3206.2407 -3192.1416 -3177.942 -3164.0442 3299.8992 3299.8992 3299.8992 3299.8992 3299.8992 3299.8992 3299.8992 3299.8992 3299.8992 3299.8992 3285.901 3270.996 3255.9905 3241.287 3226.4832 3211.9812 3197.6807 3183.1787 3169.1802 3154.8796 3152.2612 3168.9788 3184.79 3200.601 3216.3115 3231.9214 3247.4304 3262.738 3278.0457 3293.1519 3299.8992 -3276.6357 -3261.9324 -3247.1282 -3232.6262 -3218.1243 -3203.8237 -3189.8254 -3175.525 -3161.6272 3299.8992 3299.8992 3299.8992 3299.8992 3299.8992 3299.8992 3299.8992 3299.8992 3299.8992 3299.8992 3286.908 3271.9023 3256.897 3242.1936 3227.4902 3212.8875 
3299.8992 -3284.0881 -3269.1833 -3253.9763 -3015.3992 1585.144 3299.8992 3299.8992 3299.8992 3299.8992 3287.7136 3272.406 1464.3951 3270.6938 3286.4043 3299.8992 -3282.5774 -3267.4712 -3252.4658 -3237.3596 -3222.6562 -3208.1543 -3193.451 -3179.0496 3299.8992 3299.8992 3299.8992 3299.8992 3299.8992 3299.8992 3299.8992 3299.8992 3298.0864 3282.9802 3267.572 3251.5593 370.30334 3252.4658 3268.1763 3283.786 3299.1943 -3285.498 -3270.1904 -3254.9834 -2849.8352 1784.6466 3299.8992 3299.8992 3299.8992 3299.8992 3285.1958 3270.291 995.8008 3269.5862 3285.2966 3299.8992 -3283.5845 -3268.4783 -3253.473 -3238.4673 -3223.6633 -3209.0605 -3194.3572 -3180.359 3299.8992 3299.8992 3299.8992 3299.8992 3299.8992 3299.8992 3299.8992 3299.8992 3296.173 3280.8655 3265.5579 3249.646 126.589966 3251.358 3267.2698 3282.7788 3298.1873 -3286.4043 -3271.298 -3256.192 -2696.1548 2115.1702 3299.8992 3299.8992 3299.8992 3296.9788 3281.9731 3266.9678 749.7711 3266.9678 3282.9802 3298.2878 -3286.3037 -3270.996 -3255.89 -3241.0857 -3225.879 -3211.4775 -3196.7742 -3182.373 3299.8992 3299.8992 3299.8992 3299.8992 3299.8992 3299.8992 3299.8992 3299.8992 3292.044 3276.8372 3261.2273 3245.3154 -215.81726 3249.1423 3264.6514 3280.1604 3295.5688 -3289.0227 -3273.715 -3258.8103 -2523.8433 2230.5815 3299.8992 3299.8992 3299.8992 3294.159 3279.1533 3264.2485 -195.07141 3266.565 3282.2754 3297.7844 -3287.0085 -3271.6003 -3256.4941 -3241.4885 -3226.6846 -3212.0818 -3197.7812 -3183.783 3299.8992 3299.8992 3299.8992 3299.8992 3299.8992 3299.8992 3299.8992 3299.8992 3290.5334 3275.3264 3259.9182 3244.0063 -550.6714 3249.0417 3264.5508 3280.2612 3295.468 -3289.1235 -3274.0173 -3258.8103 -2332.3975 2554.257 3299.8992 3299.8992 3299.8992 3291.641 3276.9377 3261.731 -645.0348 3265.0542 3280.7646 3296.2737 -3288.1165 -3272.9094 -3258.0046 -3242.9993 -3228.195 -3213.5925 -3198.8892 -3184.5886 3299.8992 3299.8992 3299.8992 3299.8992 3299.8992 3299.8992 3299.8992 3299.8992 3287.7136 3272.6074 3257.0984 3241.1865 -771.9269 3247.229 3262.8386 3278.65 
2998.7822 2984.8845 2970.7854 2957.19 2619.113 877.16675 -969.6167 -2678.6316 2963.9373 2981.3599 2998.4802 3015.4998 3032.1167 3048.6328 3065.149 3081.5642 3097.7783 3113.7908 3129.904 3145.816 3161.5264 3177.3376 3193.048 3208.4563 -1689.5782 2450.7292 3201.004 3186.4014 3171.2952 3156.9946 3142.7947 3128.4941 3114.1936 3099.7925 3085.391 3070.8892 3056.5886 3042.389 3028.2898 3014.2913 3000.3936 2986.5967 2972.7996 2958.8013 2543.3806 773.4375 -1108.5938 -2875.8179 2967.865 2985.086 3002.2063 3019.1252 3035.8428 3052.359 3068.7744 3085.089 3101.4038 3117.4163 3133.429 3149.24 3165.0513 3180.7617 3196.6736 3211.9812 -1367.6147 2649.7283 3202.6152 3188.0127 3172.9065 3158.7065 3144.5068 3130.307 3115.7043 3101.303 3086.9019 3072.4 3058.0994 3043.8994 3029.8003 3015.802 3001.9043 2988.0066 2974.3103 2960.3118 2499.472 741.9159 -1121.0815 -2881.558 2969.7783 2987.201 3004.1199 3021.0388 3037.7563 3054.4739 3070.8892 3087.1033 3103.3171 3119.4304 3135.3423 3151.2542 3166.9646 3182.776 3198.0835 3213.794 -1393.4967 2630.896 3204.7302 3190.1274 3174.8198 3160.62 3146.521 3132.019 3117.819 3103.418 3088.916 3074.414 3060.1135 3045.9136 3031.8145 3017.8162 3003.9185 2990.0208 2975.7202 2962.024 2401.0803 602.2339 -1226.4221 -2975.5188 2973.706 2990.927 3008.0474 3024.765 3041.4824 3058.0994 3074.5146 3090.7288 3106.9426 3122.9553 3138.9678 3154.9805 3170.59 3186.4014 3201.5076 3217.218 -1068.512 2974.6123 3205.6365 3191.034 3175.9277 3161.6272 3147.4272 3133.1267 3118.6248 3104.2236 3089.6208 3075.3203 3060.9192 3046.6187 3032.62 3018.6218 3004.6233 2990.8264 2976.526 2962.7288 2285.1653 549.5636 -1202.9572 -2896.8657 2974.6123 2991.934 3008.9539 3025.8728 3042.5903 3059.1064 3075.5217 3091.7358 3107.9497 3123.9624 3139.9749 3155.8867 3171.5972 3187.4084 3203.018 3218.4265 -907.6813 2945.2056 3206.0393 3191.336 3176.1292 3162.03 3147.83 3133.429 3118.927 3104.5256 3090.0237 3075.6226 3061.2212 3046.9207 3032.9224 3018.9238 
3278.65 3294.9646 -3288.5193 -3272.6074 -2639.2546 1408.5022 3299.8992 3299.8992 3296.173 3279.959 3264.5508 3248.8403 2069.1467 3244.4092 3261.2273 3277.8442 3294.3604 -3289.325 -3273.2117 -3257.0984 -3241.0857 -3225.5767 -3209.8662 -3194.76 3299.8992 3299.8992 3299.8992 3299.8992 3299.8992 3299.8992 3299.8992 3294.159 3278.0457 3261.8315 3245.2148 3228.195 567.4896 3228.195 3245.0134 3261.6301 3278.247 3294.461 -3289.0227 -3273.1108 -2201.477 1914.0564 3299.8992 3299.8992 3291.8425 3275.6287 3260.2202 3244.4092 1651.8127 3241.7908 3258.609 3275.3264 3291.742 -3291.9434 -3275.7292 -3259.7168 -3243.805 -3228.0945 -3212.5854 -3197.2778 3299.8992 3299.8992 3299.8992 3299.8992 3299.8992 3299.8992 3299.8992 3289.8284 3273.9165 3257.6018 3240.8843 3223.8647 -46.325684 3227.3894 3244.4092 3260.8245 3277.542 3293.8567 -3289.7278 -3273.9165 -2135.614 2072.6714 3299.8992 3299.8992 3290.1306 3273.816 3258.4075 3242.7979 1583.7341 3240.3809 3257.199 3273.816 3290.332 3299.8992 -3277.0386 -3261.2273 -3245.114 -3229.5044 -3214.1968 -3198.587 3299.8992 3299.8992 3299.8992 3299.8992 3299.8992 3299.8992 3299.8992 3287.4114 3271.4995 3255.1848 3238.568 3221.1455 -71.09985 3225.476 3242.0928 3258.8103 3275.3264 3291.742 3299.8992 -3275.9307 -1819.9951 2173.2788 3299.8992 3299.8992 3286.5051 3270.291 3254.6814 3239.0715 827.11487 3239.4744 3256.192 3272.9094 3289.325 3299.8992 -3278.247 -3262.1338 -3246.222 -3230.4106 -3215.3044 -3199.7954 3299.8992 3299.8992 3299.8992 3299.8992 3299.8992 3299.8992 3299.8992 3285.1958 3269.284 3253.07 3236.3525 3218.225 -356.90918 3224.771 3241.69 3258.4075 3274.9236 3291.339 3299.8992 -3276.535 -1876.6937 2270.059 3299.8992 3299.8992 3285.8 3269.4854 3253.9763 3238.4673 521.9696 3239.6758 3256.3933 3273.0103 3289.5264 3299.8992 -3278.0457 -3261.9324 -3246.0205 -3230.2092 -3215.0024 -3123.1567 3299.8992 3299.8992 3299.8992 3299.8992 3299.8992 3299.8992 3299.3958 3283.383 3267.3706 3251.2573 3234.5398 3213.794 -670.3125 3224.771 3241.5894 3258.1055 
3133.0261 3118.6248 3104.0222 3089.5203 3073.3062 1046.8597 -2838.153 3087.506 3104.2236 3120.639 3136.9536 3153.2683 3169.3816 3185.3943 3201.1047 3217.0166 3232.8276 3248.4375 3264.047 3279.657 3295.0652 -3289.627 -3274.4202 -3259.2131 -3117.1143 846.1487 3299.8992 3299.8992 3299.8992 3299.1943 3283.6853 3268.881 3253.5735 3238.4673 3223.2605 3208.1543 3193.2495 3178.4453 3163.6414 3149.0386 3134.436 3120.0347 3105.4321 3090.8293 3072.8027 1040.3137 -2857.791 3088.916 3105.6335 3122.0488 3138.3635 3154.6782 3170.691 3186.8042 3202.716 3218.4265 3234.2375 3249.8474 3265.457 3280.966 3296.3745 -3288.217 -3273.1108 -3257.8032 -2894.046 1170.4285 3299.8992 3299.8992 3299.8992 3298.0864 3282.4768 3267.572 3252.4658 3237.4602 3222.1526 3207.0464 3192.2424 3177.2368 3162.5334 3147.931 3133.3281 3119.0276 3104.425 3089.8223 3070.7886 793.8812 -3203.3203 3090.1245 3106.842 3123.2573 3139.572 3155.7861 3171.8994 3187.8113 3203.5217 3219.5342 3235.144 3250.7537 3266.464 3281.9731 3297.3816 -3287.1094 -3272.0032 -3256.7961 -2774.3042 1557.3486 3299.8992 3299.8992 3299.8992 3297.3816 3281.6711 3266.565 3251.358 3236.4531 3221.2463 3206.1401 3191.1345 3176.3306 3161.6272 3147.1252 3132.5225 3117.92 3103.5186 3088.8152 3069.882 897.50977 -3031.4116 3088.4124 3105.0293 3121.646 3137.9607 3154.1748 3170.1873 3186.2 3202.011 3217.7214 3233.432 3249.2432 3264.7522 3280.2612 3295.6694 -3288.8213 -3273.715 -3258.4075 -2717.102 1569.8364 3299.8992 3299.8992 3299.8992 3295.2666 3279.657 3264.7522 3249.5452 3234.3384 3219.3328 3204.2266 3189.3218 3174.417 3159.7136 3145.2117 3130.6091 3116.1072 3101.6052 3087.0024 3059.8113 228.10364 3075.0183 3091.9373 3108.6548 3125.07 3141.4856 3157.498 3173.7122 3189.5232 3205.435 3221.2463 3236.9568 3252.5664 3268.1763 3283.5845 3299.0935 -3285.5986 -3270.291 -3255.1848 -2646.2036 1524.4171 3299.8992 3299.8992 3299.8992 3298.3887 3282.8796 3267.9749 3252.8687 3237.7625 3222.5554 3207.3486 3192.5444 3177.7405 3163.1377 3148.1323 

-15.509033 -14.300537 -14.602661 -13.293457 -6.7474365 -1.6113281 -3.1219482 -2.4169922 -6.7474365 -5.4382324 -15.106201 -10.977173 -12.689209 -7.3516846 -6.7474365 -3.9276123 1.3092041 5.7403564 7.6538086 5.3375244 4.9346924 4.4311523 5.4382324 3.5247803 6.6467285 4.3304443 3.4240723 6.1431885 5.7403564 2.0141602 1.9134521 1.2084961 -5.1361084 -6.7474365 -2.3162842 -9.265137 -1.0070801 -1.2084961 -2.6184082 2.7191162 2.9205322 -6.2438965 -4.5318604 2.9205322 4.8339844 6.3446045 6.1431885 0.20141602 0.80566406 4.7332764 4.4311523 3.1219482 1.7120361 7.7545166 4.0283203 8.157349 1.9134521 8.358765 8.963013 10.876465 6.0424805 5.4382324 8.660889 0.70495605 7.0495605 5.0354004 7.4523926 0.40283203 -1.0070801 3.4240723 -4.4311523 -4.8339844 -4.7332764 -6.0424805 -11.480713 -7.0495605 -10.574341 -7.6538086 -7.5531006 -6.8481445 -6.8481445 -6.8481445 -6.8481445 -6.8481445 -6.8481445 -6.8481445 -6.8481445 -6.8481445 -6.8481445 -6.8481445 -6.8481445 -6.8481445 -6.8481445 -6.8481445 -6.8481445 -6.8481445 -6.8481445 -6.8481445 -6.8481445 -6.8481445 -3.9276123 -3.0212402 6.2438965 1.8127441 4.5318604 1.2084961 -1.6113281 1.0070801 -5.5389404 -1.8127441 -4.0283203 -4.6325684 -9.768677 -8.963013 -2.1148682 -4.8339844 -3.3233643 0.40283203 -9.063721 -9.970093 -6.5460205 -4.4311523 -5.3375244 -9.768677 -6.0424805 -10.070801 -8.459473 -11.178589 -6.6467285 -7.4523926 -10.876465 4.4311523 5.1361084 -2.3162842 6.7474365 10.977173 12.890625 25.579834 31.521606 36.657715 44.815063 44.91577 39.88037 37.564087 26.989746 24.069214 16.818237 9.466553 -0.10070801 -45.52002 -87.213135 -85.40039 -60.021973 -36.85913 -24.874878 -16.21399 -22.457886 -13.796997 -7.6538086 -3.3233643 -6.2438965 -3.8269043 0.40283203 0.10070801 -9.365845 -1.6113281 -6.6467285 -5.7403564 -0.30212402 -5.0354004 -1.3092041 3.8269043 -1.7120361 -0.70495605 2.7191162 5.8410645 3.3233643 7.3516846 1.7120361 1.0070801 8.258057 8.660889 9.063721 8.761597 6.2438965 5.0354004 12.588501 5.5389404 4.4311523 4.8339844 -0.30212402 -0.70495605 -9.164429 -5.0354004 -2.3162842 -4.4311523 -0.9063721 -3.0212402 -5.0354004 -8.157349 -3.5247803 -1.7120361 -5.3375244 1.1077881 -5.6396484 2.1148682 2.5177002 1.2084961 4.7332764 3.8269043 5.2368164 1.3092041 3.8269043 3.8269043 2.5177002 10.070801 9.365845 3.9276123 4.7332764 8.358765 
-3.1219482 -2.1148682 -7.9559326 -6.8481445 -8.862305 -2.5177002 5.6396484 6.2438965 6.1431885 13.494873 16.21399 15.005493 19.537354 14.703369 18.630981 21.450806 17.825317 12.890625 7.8552246 7.8552246 5.5389404 0.20141602 -2.3162842 -2.4169922 -6.4453125 -10.675049 -12.286377 -12.588501 -14.099121 -12.084961 -18.429565 -12.084961 -11.782837 -3.2226562 -9.063721 -0.60424805 -5.8410645 -11.581421 -11.178589 -8.862305 -5.4382324 -9.466553 -3.4240723 -3.2226562 -4.7332764 -9.265137 -8.459473 -10.977173 -5.3375244 8.862305 12.689209 13.192749 15.911865 10.272217 21.450806 16.314697 18.630981 23.364258 23.162842 17.321777 15.307617 7.8552246 8.963013 1.7120361 -9.365845 -20.846558 -17.825317 -18.026733 -19.335938 -10.675049 -8.258057 -14.904785 -9.970093 -13.595581 -10.473633 -6.3446045 -12.286377 -13.595581 -15.911865 -3.1219482 -1.8127441 6.0424805 7.0495605 10.876465 9.063721 -5.2368164 -6.1431885 1.7120361 11.480713 8.459473 15.206909 25.881958 28.097534 20.443726 14.199829 2.4169922 5.1361084 4.7332764 7.4523926 13.092041 11.380005 1.2084961 -8.056641 -7.1502686 -7.3516846 -6.6467285 -6.3446045 -2.8198242 -1.2084961 -0.50354004 2.5177002 5.9417725 4.7332764 -3.3233643 -9.567261 -10.675049 -17.019653 -14.401245 -20.947266 -17.422485 -18.832397 -7.8552246 -5.3375244 2.6184082 14.501953 11.782837 21.652222 24.572754 20.544434 9.063721 -3.6254883 -12.991333 -7.0495605 -2.3162842 1.1077881 -3.0212402 -0.20141602 9.466553 2.5177002 6.2438965 2.6184082 6.9488525 -3.8269043 -5.4382324 -12.286377 -14.904785 -23.364258 -32.226562 -32.528687 -31.82373 -19.134521 -12.084961 -7.1502686 -10.272217 -5.0354004 -2.5177002 2.8198242 -1.1077881 -1.0070801 5.4382324 8.157349 -2.6184082 -2.1148682 3.8269043 -1.8127441 -8.157349 -11.480713 -10.171509 -9.768677 -15.710449 -9.970093 -6.8481445 -5.7403564 -4.9346924 -6.1431885 -6.2438965 2.6184082 9.164429 19.940186 28.701782 26.687622 23.26355 16.918945 19.134521 12.487793 11.682129 10.977173 7.4523926 8.056641 2.8198242 5.4382324 2.7191162 -0.9063721 -11.380005 -25.479126 -37.161255 -37.765503 -26.586914 -19.638062 -15.408325 -10.876465 -11.581421 -6.3446045 -2.9205322 6.0424805 -0.70495605 0.60424805 -2.8198242 1.4099121 -2.7191162 3.1219482 12.387085 12.890625 15.609741 18.933105 18.530273 16.113281 12.689209 15.307617 9.567261 
3227.7922 3212.686 3197.3784 3181.4666 -2575.003 3190.631 3207.953 3224.771 3241.69 3258.307 3274.7222 3291.1377 -3292.5476 -3276.535 -3260.5225 -3244.5098 -3228.9001 -3213.2903 -3197.7812 -3182.5745 -3167.3674 -3152.765 -3137.5579 -3123.2573 -235.05249 3299.8992 3299.8992 3299.8992 3299.8992 3299.8992 3299.8992 3299.8992 3299.8992 3299.8992 3299.8992 3299.8992 3292.749 3276.535 3260.5225 3244.7112 3229.1016 3213.391 3198.3855 3182.4736 3206.6436 3193.35 3210.6719 3227.5908 3244.3083 3260.9253 3277.4414 3293.756 -3289.9292 -3273.816 -3257.904 -3241.9922 -3226.2817 -3210.8733 -3195.3643 -3180.0566 -3165.0513 -3150.348 -3135.6445 -3120.639 500.21667 3299.8992 3299.8992 3299.8992 3299.8992 3299.8992 3299.8992 3299.8992 3299.8992 3299.8992 3299.8992 3299.8992 3292.1448 3275.9307 3260.0188 3244.107 3228.598 3213.391 3197.5798 3182.2722 3176.6326 3193.753 3210.5713 3227.4902 3244.2078 3260.8245 3277.3406 3293.6553 -3290.0298 -3273.9165 -3257.904 -3241.9922 -3226.3823 -3210.6719 -3195.465 -3180.1575 -3165.0513 -3149.7437 -3135.2417 -3120.4375 1037.4939 3299.8992 3299.8992 3299.8992 3299.8992 3299.8992 3299.8992 3299.8992 3299.8992 3299.8992 3299.8992 3299.8992 3290.7349 3274.6216 3258.7097 3242.8984 3227.2888 3212.0818 3196.7742 3180.7617 3175.525 3193.2495 3210.3699 3227.2888 3244.107 3260.7239 3277.24 3293.4539 -3290.2312 -3274.118 -3258.1055 -3242.1936 -3226.4832 -3210.8733 -3195.5657 -3180.359 -3165.2527 -3150.5493 -3135.846 -3120.8403 1475.5737 3299.8992 3299.8992 3299.8992 3299.8992 3299.8992 3299.8992 3299.8992 3299.8992 3299.8992 3299.8992 3299.8992 3288.6199 3272.708 3256.6956 3240.7837 3225.2747 3210.0676 3194.3572 3178.949 3176.0283 3193.451 3210.3699 3227.0874 3243.805 3260.4216 3276.9377 3293.2524 -3290.4326 -3274.3193 -3258.307 -3242.4956 -3226.7852 -3211.2761 -3195.767 -3180.5603 -3165.454 -3150.1465 -3135.846 -3120.7397 2082.4402 3299.8992 3299.8992 3299.8992 3299.8992 3299.8992 3299.8992 3299.8992 3299.8992 3299.8992 3299.8992 3299.8992 3287.0085 3270.996 3254.9834 3239.3738 3223.764 3208.5571 3193.35 3177.0354 3175.6255 3193.2495 3210.3699 3227.2888 3243.9055 3260.5225 3277.1392 3293.4539 -3290.332 -3274.2188 -3258.206 -3242.395 -3226.6846 -3211.0747 -3195.6665 -3180.359 
3198.4863 3184.085 3170.0867 3155.6853 3154.5776 3171.0938 3186.9048 3202.8167 3218.527 3234.0361 3249.5452 3264.8528 3280.0598 3295.2666 -3289.627 -3274.6216 -3259.8174 -3245.114 -3230.612 -3216.11 -3201.709 -3187.9119 -3173.6113 -3159.7136 3299.8992 3299.8992 3299.8992 3299.8992 3299.8992 3299.8992 3299.8992 3299.8992 3299.8992 3299.8992 3287.7136 3272.708 3257.8032 3242.9993 3228.195 3213.693 3199.3926 3184.79 3170.8923 3156.3904 3155.9875 3172.5037 3188.4155 3204.126 3219.8364 3235.446 3250.8545 3266.3635 3281.6711 3296.7773 -3288.217 -3273.3123 -3258.4075 -3243.9055 -3229.2021 -3214.7002 -3200.3997 -3186.502 -3172.2014 -3158.4045 3299.8992 3299.8992 3299.8992 3299.8992 3299.8992 3299.8992 3299.8992 3299.8992 3299.8992 3299.8992 3286.6057 3271.6003 3256.6956 3241.8914 3227.188 3212.5854 3198.285 3184.2864 3169.8853 3155.2825 3156.8938 3173.108 3189.3218 3205.133 3220.8435 3236.4531 3251.8616 3267.1692 3282.4768 3297.583 -3287.3108 -3272.5066 -3257.6018 -3242.8984 -3228.296 -3213.8945 -3199.594 -3185.2935 -3171.3958 -3157.498 3299.8992 3299.8992 3299.8992 3299.8992 3299.8992 3299.8992 3299.8992 3299.8992 3299.8992 3299.8992 3287.0085 3272.0032 3256.9976 3242.2942 3227.5908 3212.9883 3198.6877 3184.6892 3170.1873 3155.5847 3157.901 3173.9136 3190.1274 3206.1401 3221.9512 3237.3596 3252.9692 3268.1763 3283.383 3298.59 -3286.3037 -3271.399 -3256.5947 -3241.8914 -3227.2888 -3212.9883 -3198.587 -3184.4878 -3170.691 -3156.7932 3299.8992 3299.8992 3299.8992 3299.8992 3299.8992 3299.8992 3299.8992 3299.8992 3299.8992 3299.8992 3285.901 3270.7947 3255.89 3241.0857 3226.3823 3211.8804 3197.5798 3183.5815 3169.1802 3154.4768 3157.498 3173.5107 3189.8254 3205.6365 3221.347 3236.856 3252.2644 3267.6726 3282.8796 3298.0864 -3286.908 -3271.9023 -3257.0984 -3242.5964 -3227.893 -3213.4917 -3199.1912 -3184.8906 -3170.993 -3157.2966 3299.8992 3299.8992 3299.8992 3299.8992 3299.8992 3299.8992 3299.8992 3299.8992 3299.8992 3299.1943 3284.0881 3269.1833 3254.1777 3239.4744 3224.771 3210.269 3195.868 3181.8694 3167.4683 3152.765 3157.0952 3173.2085 3189.3218 3205.2336 3221.045 3236.6545 3252.063 3267.3706 3282.6782 3297.7844 -3287.1094 -3272.2046 -3257.2998 -3242.697 -3228.0945 -3213.693 
3293.756 -3290.9363 -3275.4272 -3260.623 -2160.086 2785.8855 3299.8992 3299.8992 3299.8992 3289.325 3274.5208 3259.7168 -1252.1027 3263.9465 3279.7576 3295.2666 -3289.4255 -3274.2188 -3259.0117 -3244.107 -3229.2021 -3214.4988 -3200.1982 -3047.0215 3299.8992 3299.8992 3299.8992 3299.8992 3299.8992 3299.8992 3299.8992 3299.8992 3285.3972 3270.291 3254.782 3238.6687 -1207.5897 3246.524 3262.033 3277.8442 3293.2524 -3291.5405 -3276.4343 -3261.3281 -2172.2717 2591.3176 3299.8992 3299.8992 3299.8992 3288.4185 3273.816 3258.7097 -1946.283 3264.5508 3280.3618 3295.5688 -3288.922 -3273.715 -3258.609 -3243.6035 -3228.4973 -3214.1968 -3199.4934 -2890.5212 3299.8992 3299.8992 3299.8992 3299.8992 3299.8992 3299.8992 3299.8992 3299.8992 3284.6924 3269.5862 3254.0771 3237.863 -1315.6494 3246.4233 3262.1338 3277.6428 3293.051 -3291.742 -3276.233 -3260.9253 -1777.9999 2991.5312 3299.8992 3299.8992 3299.8992 3286.4043 3271.8018 3256.5947 -2558.6882 3263.5437 3279.4556 3294.7632 -3289.9292 -3274.7222 -3259.616 -3244.5098 -3229.7058 -3215.103 -3200.3997 -2747.2136 3299.8992 3299.8992 3299.8992 3299.8992 3299.8992 3299.8992 3299.8992 3298.2878 3283.1816 3268.2769 3252.4658 3235.9497 -1712.5397 3246.524 3262.1338 3277.7434 3293.051 -3291.742 -3276.3335 -3261.4287 -1801.062 3018.6218 3299.8992 3299.8992 3299.8992 3286.5051 3271.701 3256.7961 -3107.7483 3264.6514 3280.3618 3295.9717 -3288.6199 -3273.413 -3258.5083 -3243.402 -3228.598 -3213.8945 -3199.594 -2500.0762 3299.8992 3299.8992 3299.8992 3299.8992 3299.8992 3299.8992 3299.8992 3297.7844 3282.7788 3267.6726 3252.2644 3232.6262 -2076.6997 3247.229 3262.9395 3278.4485 3293.8567 -3290.8354 -3275.4272 -3260.5225 -1879.715 2868.869 3299.8992 3299.8992 3299.8992 3288.3179 3273.413 3258.307 3251.9622 3267.874 3283.5845 3299.0935 -3285.8 -3270.3918 -3255.2856 -3240.28 -3225.476 -3210.8733 -3196.6736 -2263.7146 3299.8992 3299.8992 3299.8992 3299.8992 3299.8992 3299.8992 3299.8992 3299.8992 3285.0952 3269.989 3254.3792 3232.8276 -2384.3628 3250.653 3266.3635 3281.9731 3297.2808 -3287.3108 -3272.3052 -3257.5012 -1484.7382 3299.8992 3299.8992 3299.8992 3299.8992 3288.217 3273.413 3258.5083 3253.6743 3269.4854 3285.1958 3299.8992 -3283.9873 -3268.881 -3253.6743 -3238.87 
3005.0261 2991.0278 2977.4321 2963.333 2403.598 620.66345 -1143.5394 -2880.3496 2973.8066 2991.1284 3008.1482 3025.0671 3041.7847 3058.2 3074.716 3091.0308 3107.2449 3123.2573 3139.1692 3155.081 3170.7915 3186.502 3202.3132 3217.6208 -700.92773 3210.3699 3203.6223 3189.0198 3173.9136 3159.613 3145.413 3131.012 3116.7114 3102.2095 3087.7075 3073.2056 3059.0056 3044.806 3030.7068 3016.7083 3002.8105 2988.8123 2975.116 2960.2112 2168.9482 319.4458 -1495.816 -3231.2163 2977.2307 2994.452 3011.4714 3028.2898 3045.0073 3061.5234 3077.8381 3094.2534 3110.266 3126.3794 3142.2913 3158.1023 3173.9136 3189.624 3205.3345 3220.7427 -448.45276 3219.5342 3204.8308 3190.1274 3175.122 3160.922 3146.7224 3132.4219 3117.819 3103.3171 3088.916 3074.414 3060.1135 3045.813 3031.8145 3017.8162 3003.8176 2989.92 2975.7202 2958.197 1921.8109 103.22571 -1743.2556 3169.7844 2982.266 2999.588 3016.4062 3033.3252 3049.942 3066.458 3082.7727 3099.0874 3115.1 3131.2134 3147.1252 3163.037 3178.6467 3194.3572 3209.4634 3225.1738 -320.755 3223.6633 3208.96 3194.458 3179.0496 3164.749 3150.5493 3136.2488 3121.8474 3107.3455 3092.8435 3078.3416 3064.041 3049.7405 3035.7422 3021.643 3007.7454 2993.8477 2979.547 2963.6353 2120.0042 349.96033 -1438.211 -3137.86 2981.3599 2998.5808 3015.7012 3032.5195 3049.1362 3065.6523 3082.1685 3098.2817 3114.395 3130.5083 3146.4202 3162.2314 3178.1433 3193.6523 3209.3628 3224.5696 -144.21387 3221.4478 3206.7444 3192.041 3177.0354 3162.7349 3148.4343 3134.1338 3119.6318 3105.13 3090.5273 3076.2268 3061.8254 3047.6257 3033.6272 3019.528 3005.6304 2991.632 2977.9358 2960.0098 1865.918 69.992065 -1689.7797 3282.9802 2983.7769 3000.9978 3017.9167 3034.735 3051.4526 3067.9688 3084.384 3100.4973 3116.6106 3132.6233 3148.6357 3164.3462 3180.0566 3195.767 3211.4775 3226.886 156.80237 3221.7498 3206.9458 3192.2424 3177.1362 3162.9363 3148.6357 3134.3352 3119.8333 3105.3313 3090.628 3076.3274 3062.0269 3047.7263 3033.728 3019.629 3005.7312 2991.7327 2978.0364 2960.3118 1922.2137 77.84729 -1723.0133 3231.3171 2984.0789 3001.1992 3018.1182 3034.9365 3051.654 3068.0693 3084.384 3100.5981 3116.7114 3132.8247 3148.7366 3164.6484 
3274.823 3291.2383 3299.8992 -3276.3335 -1412.1277 2757.4858 3299.8992 3297.583 3281.9731 3265.8599 3250.3508 3234.7412 132.63245 3237.1582 3253.9763 3270.5933 3287.0085 3299.8992 -3280.3618 -3264.2485 -3248.4375 -3232.6262 -3216.9158 -3088.5132 3299.8992 3299.8992 3299.8992 3299.8992 3299.8992 3299.8992 3296.6765 3280.664 3264.5508 3248.4375 3231.8206 3210.4705 -772.63184 3222.9583 3239.6758 3256.2927 3272.8088 3289.1235 3299.8992 -3278.549 -1329.3457 2762.7227 3299.8992 3295.0652 3279.657 3263.4429 3248.0347 3232.4248 -396.1853 3236.4531 3253.2715 3269.7876 3286.3037 3299.8992 -3281.067 -3265.155 -3249.2432 -3233.3313 -3217.6208 -2962.326 3299.8992 3299.8992 3299.8992 3299.8992 3299.8992 3299.8992 3294.7632 3278.7505 3262.738 3246.6248 3229.9072 3208.4563 -824.39575 3221.2463 3237.9639 3254.782 3271.0967 3287.5122 3299.8992 -3280.0598 -1131.0516 2874.6094 3299.8992 3292.3462 3276.8372 3260.8245 3245.2148 3229.8064 -717.64526 3234.6404 3251.4587 3268.0754 3284.5916 3299.8992 -3282.8796 -3266.867 -3250.955 -3235.144 -3219.3328 -2822.1404 3299.8992 3299.8992 3299.8992 3299.8992 3299.8992 3299.8992 3292.044 3276.132 3260.1196 3244.0063 3227.3894 3168.274 -1256.8359 3221.2463 3238.0645 3254.5806 3271.0967 3287.4114 3299.8992 -3280.2612 -998.6206 3053.8696 3299.8992 3291.0369 3275.5278 3259.314 3244.0063 3228.3965 -1258.3466 3234.8418 3251.5593 3268.0754 3284.6924 3299.8992 -3282.7788 -3266.7664 -3250.8545 -3235.0432 -3219.8364 -2534.5183 3299.8992 3299.8992 3299.8992 3299.8992 3299.8992 3299.8992 3290.4326 3274.5208 3258.5083 3242.2942 3225.6775 3107.2449 -1524.3164 3221.1455 3237.7625 3254.2786 3270.7947 3287.3108 3299.8992 -3280.3618 -1343.4448 2421.222 3299.8992 3294.5618 3279.0527 3262.8386 3247.4304 3231.72 -1933.0902 3239.8772 3256.6956 3273.2117 3289.7278 3299.8992 -3277.8442 -3261.6301 -3245.819 -3230.0078 -3214.801 -2430.89 3299.8992 3299.8992 3299.8992 3299.8992 3299.8992 3299.8992 3294.5618 3278.65 3262.6372 3246.524 3229.605 3065.048 -1576.0803 3225.476 3242.2942 3258.7097 3275.4272 3291.641 3299.8992 -3276.132 -889.0503 2996.5667 3299.8992 3294.7632 3279.3547 3263.04 3247.6318 3232.022 -2407.8276 3241.4885 3258.307 3274.7222 3291.339 3299.8992 -3276.3335 -3260.2202 
3133.731 3119.3298 3104.6265 3089.923 3058.7036 321.8628 3077.536 3094.3542 3110.8704 3127.2856 3143.6003 3159.915 3176.0283 3191.9402 3207.852 3223.5625 3239.1724 3254.782 3270.3918 3285.901 3299.8992 -3283.1816 -3267.9749 -3252.8687 -2510.2478 1873.7732 3299.8992 3299.8992 3299.8992 3298.892 3283.2825 3268.3777 3253.1707 3237.9639 3222.8577 3207.55 3192.6453 3177.841 3163.1377 3148.4343 3133.9324 3119.5312 3104.9285 3090.225 3033.2244 333.1421 3077.8381 3094.5557 3111.1724 3127.487 3143.9026 3160.1165 3176.1292 3192.041 3208.0535 3223.764 3239.273 3254.9834 3270.5933 3286.1023 3299.8992 -3283.081 -3267.9749 -3252.6672 -2401.0803 2020.404 3299.8992 3299.8992 3299.8992 3298.0864 3282.4768 3267.6726 3252.4658 3237.3596 3222.2534 3207.0464 3191.9402 3177.1362 3162.5334 3147.931 3133.3281 3118.8262 3104.2236 3089.6208 2935.8398 -13.293457 3079.953 3096.7712 3113.388 3129.904 3146.2188 3162.4329 3178.5461 3194.458 3210.1685 3225.9795 3241.69 3257.4004 3273.0103 3288.4185 3299.8992 -3280.8655 -3265.6584 -3250.5522 -2130.6792 2218.7988 3299.8992 3299.8992 3299.8992 3298.6907 3282.9802 3267.9749 3252.6672 3237.6616 3222.354 3207.2478 3192.343 3177.539 3162.7349 3148.1323 3133.6304 3119.0276 3104.5256 3089.923 2851.4465 -329.4159 3082.672 3099.3896 3116.0063 3132.4219 3148.7366 3164.8499 3180.8623 3196.7742 3212.4846 3228.296 3244.107 3259.7168 3275.3264 3290.8354 -3293.8567 -3278.549 -3263.2415 -3248.236 -2054.242 2459.3901 3299.8992 3299.8992 3299.8992 3299.8992 3284.2896 3269.284 3254.0771 3238.7695 3223.6633 3208.4563 3193.5515 3178.7476 3164.0442 3149.3408 3134.738 3120.236 3105.7341 3090.9302 2784.7778 -379.36707 3084.2834 3101.001 3117.6177 3134.0332 3150.4485 3166.4612 3182.4736 3198.4863 3214.3982 3230.0078 3245.819 3261.3281 3277.0386 3292.4468 -3292.2454 -3276.9377 -3261.731 -3246.6248 -1670.4437 2884.6802 3299.8992 3299.8992 3299.8992 3298.6907 3282.8796 3267.874 3252.6672 3237.4602 3222.354 3207.2478 3192.2424 3177.4382 3162.7349 3148.1323 3133.5295 3119.0276 3104.425 3089.6208 2838.455 -266.5741 3082.2693 3099.0874 3115.6035 3131.9182 3148.3337 3164.447 3180.5603 3196.3713 3212.1826 3227.9937 3243.704 3259.5154 3275.125 3290.5334 

7.3516846 4.2297363 10.473633 11.984253 7.9559326 1.7120361 0.10070801 2.2155762 3.6254883 5.2368164 1.1077881 2.9205322 3.4240723 3.7261963 -0.50354004 -4.6325684 -10.675049 -7.3516846 -3.7261963 0.70495605 3.3233643 0.40283203 3.0212402 4.9346924 -5.2368164 -3.7261963 -0.30212402 16.71753 29.406738 36.758423 42.90161 49.95117 47.53418 32.93152 23.464966 18.026733 11.883545 4.0283203 -11.178589 -59.1156 -82.88269 -76.034546 -48.742676 -30.514526 -19.940186 -10.473633 -11.077881 -8.560181 -5.0354004 -8.358765 -4.8339844 -7.0495605 1.4099121 -2.1148682 2.2155762 -4.1290283 -2.1148682 -1.9134521 -2.2155762 -6.4453125 -9.567261 -9.265137 -6.8481445 -4.5318604 -4.5318604 3.0212402 4.2297363 3.9276123 5.8410645 11.883545 12.286377 17.623901 23.565674 21.652222 22.558594 16.012573 13.696289 4.7332764 4.4311523 0.20141602 6.7474365 3.9276123 7.4523926 9.265137 5.9417725 6.4453125 -4.3304443 3.6254883 -1.2084961 1.6113281 -3.5247803 -13.192749 -7.1502686 -10.675049 -10.574341 -11.077881 -11.077881 -14.501953 -10.775757 -5.9417725 -5.0354004 -2.8198242 -0.40283203 2.1148682 4.1290283 7.3516846 10.473633 7.0495605 10.473633 9.164429 8.963013 8.761597 4.2297363 5.8410645 5.2368164 0.9063721 9.466553 5.9417725 7.1502686 2.5177002 0.30212402 -8.560181 -5.5389404 -6.2438965 -8.056641 -2.7191162 0.50354004 1.1077881 5.1361084 -2.5177002 -1.7120361 -4.7332764 1.2084961 -0.40283203 -1.4099121 -6.5460205 -6.3446045 -2.7191162 -1.5106201 1.5106201 1.2084961 -8.157349 -14.703369 -12.185669 -8.358765 -2.2155762 -0.50354004 -2.1148682 -0.80566406 2.9205322 4.5318604 7.8552246 3.9276123 4.3304443 3.3233643 2.9205322 6.2438965 9.970093 10.775757 10.372925 6.5460205 7.6538086 9.667969 11.682129 3.7261963 2.9205322 3.2226562 1.1077881 1.5106201 -1.2084961 0.30212402 -3.6254883 -2.3162842 -0.40283203 -4.5318604 -10.372925 -10.977173 4.2297363 22.76001 23.867798 26.184082 31.420898 31.521606 26.385498 23.76709 13.293457 13.293457 1.1077881 -22.659302 -67.8772 -84.2926 -60.22339 -36.4563 -21.551514 -11.782837 -8.258057 -8.157349 -5.4382324 -1.2084961 3.5247803 
-0.80566406 3.6254883 3.8269043 -0.60424805 3.0212402 0.10070801 -9.567261 -13.092041 -14.099121 -11.984253 -13.696289 -18.933105 -21.350098 -19.033813 -17.22107 -17.422485 -12.689209 -16.21399 -22.357178 -26.486206 -17.120361 -11.480713 -0.9063721 0.80566406 7.2509766 3.6254883 4.7332764 -0.9063721 -0.9063721 3.4240723 5.0354004 9.063721 17.22107 18.832397 22.76001 24.169922 20.947266 27.29187 35.95276 45.822144 43.807983 40.081787 36.95984 33.132935 28.29895 20.24231 7.4523926 2.8198242 -7.2509766 -12.588501 -10.574341 -25.680542 -43.203735 -49.649048 -44.210815 -37.96692 -27.996826 -16.415405 -13.696289 -11.178589 -11.682129 -7.9559326 -10.473633 -2.3162842 2.4169922 -2.2155762 1.3092041 -7.5531006 -1.0070801 1.4099121 -2.3162842 1.9134521 2.4169922 5.3375244 7.1502686 11.178589 18.933105 18.73169 21.551514 17.825317 17.825317 17.825317 17.825317 17.825317 17.825317 17.825317 17.825317 17.825317 17.825317 17.825317 17.825317 17.825317 17.825317 17.825317 17.825317 17.825317 17.825317 17.825317 17.825317 17.825317 -10.574341 -14.501953 -16.516113 -2.6184082 0.10070801 13.394165 11.480713 8.761597 11.279297 12.487793 20.343018 22.558594 19.335938 13.494873 7.6538086 -1.9134521 -8.157349 -5.2368164 -12.487793 -7.1502686 -9.365845 -1.9134521 7.8552246 7.7545166 6.0424805 8.056641 10.473633 7.4523926 2.1148682 -8.862305 -13.394165 -14.804077 -15.811157 -11.782837 -18.429565 -20.040894 -21.652222 -15.106201 -18.73169 -13.494873 -12.286377 -10.876465 -7.7545166 -5.3375244 -2.8198242 6.5460205 4.4311523 7.5531006 0.30212402 -4.8339844 -4.2297363 -7.3516846 -1.6113281 5.8410645 -1.2084961 4.5318604 7.0495605 7.9559326 13.394165 14.401245 15.106201 19.839478 16.516113 16.012573 3.2226562 -1.1077881 -0.40283203 -4.4311523 -14.703369 -21.853638 -19.638062 -14.099121 -7.4523926 0.9063721 -1.3092041 -0.40283203 0.50354004 7.4523926 2.8198242 -1.3092041 2.0141602 -0.20141602 -12.991333 -17.825317 -14.501953 -22.055054 -29.003906 -23.364258 -23.867798 -18.429565 -3.5247803 1.4099121 7.7545166 6.9488525 1.6113281 9.063721 16.314697 27.191162 30.111694 21.450806 
-3165.3533 -3150.65 -3135.3423 -3121.2432 2861.8193 3299.8992 3299.8992 3299.8992 3299.8992 3299.8992 3299.8992 3299.8992 3299.8992 3299.8992 3299.8992 3299.8992 3284.5916 3268.4783 3252.5664 3236.856 3221.2463 3205.6365 3190.7317 3174.5178 3173.7122 3191.4368 3208.6577 3225.476 3242.1936 3258.8103 3275.3264 3291.742 -3292.044 -3275.9307 -3259.9182 -3244.107 -3228.3965 -3212.7869 -3197.3784 -3182.1716 -3166.9646 -3152.362 -3137.6587 -3122.653 3299.8992 3299.8992 3299.8992 3299.8992 3299.8992 3299.8992 3299.8992 3299.8992 3299.8992 3299.8992 3299.8992 3297.583 3281.2683 3265.3564 3249.3438 3233.7341 3218.0237 3203.018 3187.3076 3171.7986 3172.6042 3189.8254 3206.845 3223.5625 3240.3809 3256.9976 3273.413 3289.8284 -3293.8567 -3277.8442 -3261.731 -3245.9197 -3230.1086 -3214.7002 -3199.1912 -3183.8835 -3168.6768 -3153.4697 -3138.565 -3124.3652 3299.8992 3299.8992 3299.8992 3299.8992 3299.8992 3299.8992 3299.8992 3299.8992 3299.8992 3299.8992 3299.8992 3295.8708 3279.657 3263.745 3247.8333 3232.1228 3216.6138 3201.004 3186.099 3169.6838 3171.5972 3189.1204 3206.3416 3223.1597 3239.978 3256.5947 3273.1108 3289.5264 -3294.3604 -3278.1462 -3262.2344 -3246.3225 -3230.612 -3215.0024 -3199.594 -3184.1858 -3169.1802 -3154.5776 -3139.1692 -3124.9695 3299.8992 3299.8992 3299.8992 3299.8992 3299.8992 3299.8992 3299.8992 3299.8992 3299.8992 3299.8992 3299.8992 3293.2524 3277.0386 3261.1267 3245.3154 3229.605 3214.096 3198.4863 3183.078 3167.4683 3170.59 3187.9119 3204.8308 3221.6492 3238.3667 3254.9834 3271.298 3287.8142 3299.8992 -3279.7576 -3263.8457 -3247.9338 -3232.1228 -3216.6138 -3201.1047 -3185.8977 -3170.7915 -3155.3833 -3140.982 -3125.8757 3299.8992 3299.8992 3299.8992 3299.8992 3299.8992 3299.8992 3299.8992 3299.8992 3299.8992 3299.8992 3299.8992 3291.9434 3275.83 3259.7168 3244.0063 3228.195 3212.686 3197.7812 3182.4736 3165.857 3170.4895 3188.1133 3205.133 3222.1526 3238.7695 3255.3862 3271.9023 3288.217 3299.8992 -3279.3547 -3263.3423 -3247.531 -3231.6191 -3216.211 -3200.702 -3185.2935 
-3199.292 -3185.1929 -3171.3958 -3157.498 3299.8992 3299.8992 3299.8992 3299.8992 3299.8992 3299.8992 3299.8992 3299.8992 3299.8992 3297.6836 3282.6782 3267.6726 3252.7678 3238.0645 3223.2605 3208.8591 3194.458 3179.956 3166.159 3151.2542 3156.7932 3172.9065 3189.1204 3204.8308 3220.642 3236.1511 3251.6602 3266.9678 3282.1746 3297.2808 -3287.6128 -3272.708 -3257.904 -3243.2007 -3228.598 -3214.096 -3199.8962 -3185.4949 -3171.698 -3158.0017 3299.8992 3299.8992 3299.8992 3299.8992 3299.8992 3299.8992 3299.8992 3299.8992 3299.8992 3296.475 3281.369 3266.2627 3251.4587 3236.7554 3221.9512 3207.4492 3193.2495 3179.251 3164.9504 3146.7224 3156.9946 3173.108 3189.4226 3205.2336 3220.944 3236.3525 3251.8616 3267.1692 3282.376 3297.583 -3287.4114 -3272.406 -3257.7026 -3242.8984 -3228.3965 -3213.9954 -3199.594 -3185.3943 -3171.4966 -2962.8296 3299.8992 3299.8992 3299.8992 3299.8992 3299.8992 3299.8992 3299.8992 3299.8992 3299.8992 3294.7632 3279.657 3264.5508 3249.7466 3235.0432 3220.4407 3205.838 3191.6382 3177.2368 3163.339 3139.3706 3156.189 3172.6042 3188.4155 3204.126 3219.8364 3235.3455 3250.8545 3266.2627 3281.4697 3296.576 -3288.4185 -3273.413 -3258.609 -3243.9055 -3229.303 -3214.9016 -3200.601 -3186.8042 -3172.4028 -2543.7834 3299.8992 3299.8992 3299.8992 3299.8992 3299.8992 3299.8992 3299.8992 3299.8992 3299.8992 3292.3462 3277.24 3262.3352 3247.4304 3232.6262 3218.1243 3203.5217 3189.3218 3175.0212 3161.1235 2968.6707 3155.7861 3172.2014 3188.0127 3203.5217 3219.4336 3234.9426 3250.4517 3265.7593 3280.966 3296.173 -3288.8213 -3273.9165 -3259.0117 -3244.4092 -3229.7058 -3215.3044 -3201.004 -3187.1062 -3172.8057 -2403.9001 3299.8992 3299.8992 3299.8992 3299.8992 3299.8992 3299.8992 3299.8992 3299.8992 3299.8992 3291.5405 3276.4343 3261.5295 3246.524 3231.72 3217.3186 3202.9175 3188.516 3174.2156 3160.2173 2774.4048 3155.7861 3172.3022 3188.0127 3203.8237 3219.4336 3235.0432 3250.5522 3265.8599 3281.067 3296.173 -3288.8213 -3273.816 -3258.9111 -3244.3083 -3229.7058 -3215.3044 
-3224.0662 -3209.3628 -3195.1628 -1771.8567 3299.8992 3299.8992 3299.8992 3299.8992 3299.8992 3299.8992 3299.8992 3299.6978 3284.5916 3269.3848 3253.8757 3219.4336 -2706.5276 3251.5593 3267.0684 3282.6782 3297.9858 -3286.7065 -3271.399 -3256.192 -1373.4558 3249.4446 3299.8992 3299.8992 3299.8992 3289.0227 3274.2188 3258.9111 3255.5876 3271.6003 3287.21 3299.8992 -3282.074 -3266.867 -3251.8616 -3236.856 -3221.8506 -3207.55 -3192.9473 -1400.647 3299.8992 3299.8992 3299.8992 3299.8992 3299.8992 3299.8992 3299.8992 3299.8992 3286.1023 3270.996 3254.9834 3168.274 -2962.8296 3253.8757 3269.6868 3284.9944 3299.8992 -3284.2896 -3269.284 -3254.5806 -1361.5723 3299.8992 3299.8992 3299.8992 3299.8992 3290.7349 3275.83 3260.623 3259.0117 3274.7222 3290.332 3299.8992 -3278.8513 -3263.6443 -3248.538 -3233.6333 -3219.0308 -3204.3274 -3190.1274 -1115.2405 3299.8992 3299.8992 3299.8992 3299.8992 3299.8992 3299.8992 3299.8992 3299.8992 3287.5122 3272.2046 3256.5947 3045.4102 3254.0771 3256.897 3272.5066 3288.0156 3299.8992 -3281.369 -3266.0613 -3251.2573 -1044.6442 3299.8992 3299.8992 3299.8992 3299.8992 3292.1448 3277.24 3261.731 3261.026 3277.0386 3292.5476 -3291.9434 -3276.6357 -3261.731 -3246.4233 -3231.6191 -3216.8152 -3202.4138 -3188.1133 -316.12244 3299.8992 3299.8992 3299.8992 3299.8992 3299.8992 3299.8992 3299.8992 3299.8992 3287.915 3272.708 3256.7961 2948.0254 3242.5964 3258.609 3274.118 3289.7278 3299.8992 -3279.7576 -3264.7522 -3249.948 -762.3596 3299.8992 3299.8992 3299.8992 3299.8992 3291.4397 3276.535 3261.2273 3262.3352 3278.1462 3293.6553 -3290.8354 -3275.6287 -3260.4216 -3245.4163 -3230.5115 -3215.808 -3201.3062 -3187.207 80.4657 3299.8992 3299.8992 3299.8992 3299.8992 3299.8992 3299.8992 3299.8992 3299.8992 3287.5122 3272.6074 3256.5947 2840.2678 3243.3013 3259.2131 3274.823 3290.332 3299.8992 -3279.1533 -3263.745 -3248.538 -764.8773 3299.8992 3299.8992 3299.8992 3299.8992 3292.1448 3277.0386 3261.6301 3264.2485 3280.2612 3295.6694 -3289.0227 -3273.816 -3258.5083 -3243.5027 -3228.6987 
3180.359 3195.9685 3211.679 3227.0874 273.72437 3221.1455 3206.3416 3191.6382 3176.532 3162.4329 3148.0315 3133.731 3119.229 3104.828 3090.326 3075.824 3061.4226 3047.3235 3033.2244 3019.0247 3005.2275 2991.3298 2977.1301 2959.607 1887.973 55.490112 -1685.2478 3213.8945 2983.676 3000.7964 3017.8162 3034.6343 3051.3518 3067.868 3084.082 3100.296 3116.51 3132.5225 3148.4343 3164.2456 3179.956 3195.6665 3210.8733 3256.2927 534.05457 3219.1313 3204.428 3189.926 3174.7192 3160.4187 3146.2188 3131.8176 3117.4163 3103.0151 3088.4124 3074.0112 3059.6099 3045.5107 3031.4116 3017.3125 3003.5156 2989.618 2975.2166 2956.9885 1798.8464 -61.935425 -1860.379 3070.6877 2984.2803 3001.5015 3018.3196 3035.138 3051.7546 3068.2708 3084.5854 3100.7996 3117.0134 3133.0261 3148.8372 3164.6484 3180.4595 3196.0693 3211.7798 3293.6553 512.30164 3219.3328 3204.6294 3190.0269 3174.9207 3160.8215 3146.4202 3132.019 3117.6177 3103.0151 3088.6138 3074.2126 3059.912 3045.6116 3031.5125 3017.6147 3003.6162 2989.7185 2975.9216 2955.8806 1661.1786 -65.15808 -1809.6222 3104.1228 2984.784 3002.005 3018.9238 3035.6414 3052.359 3068.875 3085.1897 3101.4038 3117.517 3133.6304 3149.4414 3165.2527 3180.9631 3196.6736 3212.384 -3177.1362 791.46423 3217.9229 3203.119 3188.516 3173.3093 3159.2102 3144.9097 3130.5083 3116.1072 3101.5044 3087.1033 3072.702 3058.4014 3044.2017 3030.1025 3016.104 3002.2063 2988.3086 2974.5117 2953.363 1682.6294 11.883545 -1819.0887 3029.0955 2983.2732 3000.4944 3017.4133 3034.2314 3050.949 3067.3645 3083.6792 3099.994 3116.0063 3132.1196 3147.931 3163.8428 3179.5532 3195.2637 3210.5713 -3141.1833 947.1588 3215.808 3201.004 3186.6028 3171.1943 3157.0952 3142.8955 3128.4941 3114.093 3099.591 3085.1897 3070.6877 3056.2866 3042.1875 3028.189 3014.1907 3000.1921 2986.3953 2972.0947 2950.4424 1637.7136 -163.04626 -1886.261 3048.8342 2982.7698 2999.8901 3016.9097 3033.728 3050.3447 3066.8608 3083.1755 3099.4902 3115.503 3131.5154 3147.4272 3163.2385 
-3244.4092 -3228.6987 -3213.693 -2167.035 3299.8992 3299.8992 3299.8992 3299.8992 3299.8992 3299.8992 3294.6624 3278.65 3262.738 3246.4233 3229.605 3006.0332 -1769.7418 3226.3823 3243.0999 3259.8174 3276.3335 3292.6482 -3291.4397 -3275.125 -564.7705 3207.7515 3299.8992 3293.6553 3278.247 3261.9324 3246.4233 3230.713 -3109.561 3242.0928 3258.8103 3275.4272 3291.8425 -3291.8425 -3275.7292 -3259.7168 -3243.805 -3227.9937 -3212.8875 -1600.5524 3299.8992 3299.8992 3299.8992 3299.8992 3299.8992 3299.8992 3292.8496 3276.9377 3260.8245 3244.6106 3227.7922 2794.4458 -2432.7026 3228.0945 3244.9126 3261.5295 3277.9448 3294.2595 -3289.8284 -3273.5137 -758.5327 3087.6067 3299.8992 3296.2737 3280.8655 3264.5508 3249.0417 3233.2305 3229.1016 3246.222 3262.738 3279.2542 3295.8708 -3287.915 -3271.9023 -3255.789 -3240.1794 -3224.3682 -3208.7585 -1266.806 3299.8992 3299.8992 3299.8992 3299.8992 3299.8992 3299.8992 3295.0652 3279.1533 3263.1409 3246.7253 3230.0078 2683.969 -2430.89 3230.612 3247.3296 3263.8457 3280.3618 3296.7773 -3286.8071 -3270.8953 -480.17578 3195.5657 3299.8992 3297.1802 3281.5703 3265.457 3249.7466 3233.9355 3231.1157 3248.0347 3264.6514 3281.2683 3297.6836 -3286.0015 -3269.8882 -3253.9763 -3238.1653 -3222.4548 -3206.7444 -949.4751 3299.8992 3299.8992 3299.8992 3299.8992 3299.8992 3299.8992 3295.8708 3279.959 3263.9465 3247.6318 3230.713 2603.7048 -2728.5828 3232.727 3249.4446 3265.9607 3282.4768 3298.7915 -3284.793 -3268.7805 -566.78467 3236.0503 3299.8992 3299.4963 3283.9873 3267.7734 3252.1636 3236.2517 3234.439 3251.4587 3268.1763 3284.6924 3299.8992 -3282.5774 -3266.565 -3250.5522 -3234.7412 -3219.2322 -3203.6223 -531.0333 3299.8992 3299.8992 3299.8992 3299.8992 3299.8992 3299.8992 3297.6836 3281.6711 3265.5579 3249.2432 3232.3242 2405.1086 -3020.2332 3235.9497 3252.6672 3269.284 3285.5986 3299.8992 -3282.1746 -3265.7593 -225.88806 3299.8992 3299.8992 3299.8992 3284.3901 3268.0754 3252.5664 3236.3525 3236.7554 3253.5735 3270.291 3286.908 3299.8992 -3280.3618 -3264.45 -3248.538 
-3294.058 -3278.7505 -3263.6443 -3248.4375 -1463.7909 3073.3062 3299.8992 3299.8992 3299.8992 3295.3674 3279.657 3264.8528 3249.5452 3234.439 3219.3328 3204.2266 3189.3218 3174.417 3159.7136 3145.2117 3130.6091 3116.2078 3101.5044 3086.801 2611.4592 -650.473 3082.5713 3099.4902 3115.9058 3132.2205 3148.5352 3164.749 3180.7617 3196.5728 3212.2832 3228.195 3244.0063 3259.5154 3275.125 3290.634 -3293.8567 -3278.65 -3263.4429 -3248.1353 -1371.6431 3217.6208 3299.8992 3299.8992 3299.8992 3294.8638 3279.0527 3264.2485 3249.1423 3233.9355 3218.8293 3203.7231 3188.8184 3174.115 3159.3108 3144.8088 3130.2063 3115.7043 3101.001 3086.1968 2713.2751 -502.63367 3080.8594 3097.577 3114.1936 3130.4077 3146.823 3162.9363 3178.949 3194.8608 3210.7727 3226.4832 3242.1936 3257.904 3273.413 3288.922 3299.8992 -3280.2612 -3265.155 -3249.948 -1195.8069 3299.8992 3299.8992 3299.8992 3299.8992 3292.044 3276.4343 3261.5295 3246.3225 3231.2163 3216.11 3200.9033 3186.099 3171.2952 3156.6924 3142.0898 3127.588 3113.086 3098.4832 3083.7798 2484.0637 -761.1511 3080.5571 3097.3755 3113.8916 3130.4077 3146.6216 3162.8357 3178.7476 3194.6594 3210.4705 3226.181 3242.1936 3257.7026 3273.413 3288.8213 3299.8992 -3280.4626 -3265.3564 -3250.1494 -891.3666 3299.8992 3299.8992 3299.8992 3299.8992 3289.627 3274.118 3258.7097 3243.805 3228.6987 3213.5925 3198.3855 3183.6821 3168.7773 3154.1748 3139.6729 3125.171 3110.669 3096.0662 3081.4636 2510.4492 -897.50977 3079.0466 3095.8647 3112.3809 3128.7964 3145.111 3161.1235 3177.2368 3193.048 3208.8591 3224.6704 3240.4814 3256.192 3271.701 3287.1094 3299.8992 -3282.074 -3266.867 -3251.7607 -833.7616 3299.8992 3299.8992 3299.8992 3299.8992 3288.1165 3272.406 3257.2998 3242.1936 3227.0874 3211.9812 3196.875 3182.0708 3167.2668 3152.664 3138.0615 3123.6602 3109.0576 3094.6562 3079.8523 2306.1125 -1226.2207 3079.953 3096.7712 3113.1865 3129.7026 3145.9167 3162.1306 3178.1433 3193.9543 3209.8662 3225.5767 3241.1865 3256.897 3272.406 3288.0156 

2.0141602 2.8198242 4.7332764 13.092041 1.2084961 5.7403564 3.4240723 3.5247803 0.30212402 0.60424805 2.7191162 4.7332764 4.1290283 1.7120361 -2.1148682 -1.8127441 2.8198242 2.2155762 5.5389404 4.2297363 3.6254883 0.70495605 2.6184082 1.9134521 3.3233643 0.20141602 5.4382324 -0.80566406 -5.0354004 -4.9346924 0.10070801 3.6254883 2.6184082 9.667969 10.272217 9.869385 11.380005 8.761597 7.0495605 8.963013 10.272217 3.4240723 8.862305 6.1431885 5.4382324 8.459473 4.4311523 1.4099121 6.8481445 6.4453125 -2.9205322 -5.1361084 -2.1148682 -1.8127441 1.3092041 -3.1219482 0.40283203 -1.1077881 -2.2155762 -0.20141602 0.50354004 8.560181 3.9276123 6.6467285 7.7545166 3.9276123 1.6113281 -1.2084961 1.5106201 2.8198242 2.1148682 2.6184082 4.1290283 -0.20141602 0 2.2155762 0.20141602 0.20141602 4.2297363 1.0070801 1.6113281 3.4240723 6.5460205 -1.2084961 -1.7120361 0.30212402 -6.2438965 -2.8198242 -2.4169922 2.4169922 -5.9417725 -7.3516846 -9.365845 2.1148682 -0.40283203 0.10070801 -6.8481445 -7.4523926 -7.2509766 -1.3092041 3.2226562 2.0141602 -0.70495605 -1.1077881 -2.2155762 -5.0354004 -3.5247803 -7.4523926 -10.775757 -12.185669 -8.056641 0.9063721 5.9417725 9.466553 8.258057 13.494873 16.012573 14.703369 10.473633 11.883545 11.279297 13.092041 14.602661 11.380005 7.2509766 6.9488525 5.0354004 -2.5177002 -0.80566406 -4.6325684 0.20141602 5.3375244 16.616821 24.069214 28.29895 20.645142 13.293457 15.509033 9.063721 1.6113281 -7.7545166 -19.033813 -53.979492 -79.45862 -68.07861 -32.528687 -12.286377 -9.869385 -1.2084961 -4.2297363 0.70495605 -2.6184082 -5.6396484 -5.8410645 -4.1290283 -1.9134521 -1.9134521 -5.8410645 3.6254883 -1.2084961 3.1219482 -3.0212402 -3.6254883 -2.9205322 0.60424805 0.70495605 -6.3446045 1.8127441 1.4099121 0.70495605 4.3304443 -0.60424805 -3.8269043 -1.3092041 2.2155762 0.30212402 -1.3092041 1.1077881 -3.7261963 -2.6184082 2.5177002 2.8198242 -1.7120361 -3.5247803 -2.3162842 -0.9063721 -2.6184082 -1.3092041 -7.1502686 -2.8198242 -3.4240723 -3.5247803 -7.9559326 -5.6396484 4.4311523 -2.2155762 -2.9205322 -1.7120361 5.0354004 4.7332764 12.991333 11.077881 10.473633 6.6467285 2.9205322 -0.60424805 2.7191162 -0.20141602 1.0070801 -0.80566406 1.1077881 -3.2226562 -7.5531006 -9.063721 -5.8410645 -3.6254883 -8.660889 -8.660889 0 -3.0212402 
6.6467285 -4.6325684 -11.782837 -9.063721 -1.4099121 -0.70495605 -5.8410645 -0.10070801 -6.4453125 -12.789917 -21.24939 -31.924438 -30.715942 -24.975586 -26.78833 -21.551514 -19.335938 -18.73169 -12.588501 -9.768677 -4.9346924 -2.5177002 -2.4169922 2.6184082 0.10070801 -2.0141602 -4.5318604 1.5106201 7.4523926 5.2368164 10.675049 5.8410645 4.4311523 -0.30212402 0.80566406 6.0424805 4.9346924 4.5318604 9.567261 4.0283203 4.0283203 4.0283203 4.0283203 4.0283203 4.0283203 4.0283203 4.0283203 4.0283203 4.0283203 4.0283203 4.0283203 4.0283203 4.0283203 4.0283203 4.0283203 4.0283203 4.0283203 4.0283203 4.0283203 4.0283203 -6.9488525 -2.3162842 -7.7545166 -6.6467285 -0.30212402 1.0070801 0.60424805 6.8481445 15.609741 9.970093 12.689209 12.991333 10.977173 16.113281 19.839478 18.429565 25.579834 23.666382 21.450806 17.321777 17.321777 17.321777 17.321777 17.321777 17.321777 17.321777 17.321777 17.321777 17.321777 17.321777 17.321777 17.321777 17.321777 17.321777 17.321777 17.321777 17.321777 17.321777 17.321777 17.321777 -6.8481445 -2.5177002 1.5106201 -2.3162842 -2.4169922 -1.8127441 2.5177002 17.120361 16.71753 14.099121 16.21399 10.876465 4.7332764 2.1148682 0.80566406 4.4311523 7.5531006 5.4382324 9.768677 6.4453125 2.9205322 3.9276123 1.3092041 -1.4099121 -6.8481445 -5.3375244 -12.588501 -7.5531006 -10.473633 -4.3304443 -15.005493 -7.4523926 -6.9488525 -9.869385 -7.7545166 -10.272217 -3.7261963 -5.4382324 -8.862305 -10.775757 -6.9488525 -2.4169922 -3.5247803 0.50354004 1.2084961 -1.3092041 1.8127441 -0.10070801 -1.5106201 7.2509766 7.7545166 2.0141602 4.5318604 8.459473 9.063721 11.581421 8.963013 10.574341 15.206909 15.911865 23.062134 19.033813 16.012573 12.890625 5.4382324 1.9134521 5.5389404 -2.8198242 -6.5460205 -5.0354004 1.8127441 3.8269043 4.8339844 7.2509766 3.9276123 0.20141602 1.4099121 -0.20141602 0.20141602 7.7545166 7.7545166 2.9205322 2.7191162 7.4523926 2.1148682 -13.998413 -23.162842 -29.104614 -24.77417 -17.72461 -5.3375244 -3.5247803 5.8410645 10.473633 9.164429 21.652222 26.083374 30.31311 18.832397 9.063721 3.4240723 5.1361084 3.9276123 0.20141602 -0.10070801 -5.7403564 -10.272217 -9.768677 -9.768677 -13.192749 -17.422485 -21.551514 -30.81665 -26.486206 -20.544434 -18.429565 -15.206909 -13.595581 -12.588501 -19.335938 
-3170.1873 -3155.5847 -3140.3777 -3125.8757 3299.8992 3299.8992 3299.8992 3299.8992 3299.8992 3299.8992 3299.8992 3299.8992 3299.8992 3299.8992 3299.8992 3289.7278 3273.6145 3257.7026 3241.8914 3226.181 3210.6719 3195.1628 3180.359 3163.44 3168.7773 3186.3005 3203.5217 3220.4407 3237.0574 3253.6743 3270.0896 3286.6057 3299.8992 -3281.067 -3265.0542 -3249.1423 -3233.5327 -3217.8223 -3202.4138 -3187.1062 -3171.7986 -3157.0952 -3141.989 -3081.4636 3299.8992 3299.8992 3299.8992 3299.8992 3299.8992 3299.8992 3299.8992 3299.8992 3299.8992 3299.8992 3299.8992 3288.217 3272.1038 3256.192 3240.3809 3224.771 3209.262 3193.753 3178.3447 3148.938 3169.9858 3187.1062 3204.0251 3220.8435 3237.561 3254.1777 3270.5933 3286.908 3299.8992 -3280.5632 -3264.6514 -3248.7395 -3233.029 -3217.4194 -3202.011 -3186.7034 -3171.4966 -3156.0881 -3141.7876 -2848.2239 3299.8992 3299.8992 3299.8992 3299.8992 3299.8992 3299.8992 3299.8992 3299.8992 3299.8992 3299.8992 3299.8992 3286.0015 3269.989 3253.9763 3238.1653 3222.5554 3207.1472 3192.1416 3176.9348 3051.3518 3168.8782 3186.4014 3203.421 3220.3398 3236.9568 3253.5735 3269.989 3286.5051 3299.8992 -3281.2683 -3265.155 -3249.2432 -3233.5327 -3217.8223 -3202.5146 -3187.3076 -3171.8994 -3157.2966 -3142.0898 -2734.8267 3299.8992 3299.8992 3299.8992 3299.8992 3299.8992 3299.8992 3299.8992 3299.8992 3299.8992 3299.8992 3299.8992 3285.1958 3268.982 3253.07 3237.3596 3221.7498 3206.2407 3190.8325 3175.424 2851.547 3169.7844 3186.8042 3203.7231 3220.5413 3237.1582 3253.8757 3270.1904 3286.6057 3299.8992 -3280.966 -3264.9536 -3249.1423 -3233.3313 -3217.7214 -3202.3132 -3186.9048 -3171.7986 -3156.491 -3142.0898 -2501.889 3299.8992 3299.8992 3299.8992 3299.8992 3299.8992 3299.8992 3299.8992 3299.8992 3299.8992 3299.8992 3299.4963 3283.383 3267.3706 3251.4587 3235.5469 3220.1384 3204.5288 3189.624 3174.0142 2690.6157 3168.9788 3185.9985 3202.9175 3219.635 3236.4531 3253.07 3269.4854 3285.8 3299.8992 -3281.7717 -3265.7593 -3249.948 -3234.2375 -3218.527 -3203.018 -3187.7104 -3172.6042 -3157.196 -3142.3918 -2369.1558 3299.8992 3299.8992 3299.8992 3299.8992 3299.8992 3299.8992 3299.8992 3299.8992 3299.8992 3299.8992 3298.993 3282.6782 3266.7664 3250.7537 3235.0432 3219.5342 
-3200.9033 -3187.1062 -3172.8057 -2029.7699 3299.8992 3299.8992 3299.8992 3299.8992 3299.8992 3299.8992 3299.8992 3299.8992 3299.8992 3290.332 3275.3264 3260.321 3245.5168 3230.713 3216.211 3201.8096 3187.509 3173.108 3159.2102 2457.376 3156.189 3172.6042 3188.3147 3204.0251 3219.8364 3235.2446 3250.7537 3266.0613 3281.369 3296.475 -3288.4185 -3273.5137 -3258.7097 -3244.107 -3229.4036 -3215.103 -3200.702 -3186.8042 -3172.6042 -1667.5232 3299.8992 3299.8992 3299.8992 3299.8992 3299.8992 3299.8992 3299.8992 3299.8992 3299.8992 3289.7278 3274.7222 3259.7168 3244.812 3230.2092 3215.6067 3201.2053 3186.9048 3172.5037 3158.606 2140.2466 3156.6924 3172.705 3188.919 3204.6294 3220.3398 3235.7483 3251.2573 3266.6655 3281.8726 3296.9788 -3288.0156 -3273.1108 -3258.206 -3243.6035 -3229.0007 -3214.5996 -3200.299 -3185.8977 -3172.1008 -1081.8054 3299.8992 3299.8992 3299.8992 3299.8992 3299.8992 3299.8992 3299.8992 3299.8992 3299.8992 3288.922 3273.816 3258.8103 3244.107 3229.303 3214.801 3200.3997 3186.099 3171.698 3157.6995 1606.3934 3157.3975 3173.7122 3189.3218 3205.0322 3220.642 3236.1511 3251.5593 3266.9678 3282.2754 3297.3816 -3287.6128 -3272.5066 -3257.7026 -3242.9993 -3228.3965 -3213.9954 -3199.7954 -3185.797 -3171.5972 -303.0304 3299.8992 3299.8992 3299.8992 3299.8992 3299.8992 3299.8992 3299.8992 3299.8992 3299.8992 3287.915 3272.8088 3257.904 3243.0999 3228.3965 3213.693 3199.3926 3185.092 3171.2952 3156.8938 1146.6614 3157.5989 3173.5107 3189.7246 3205.435 3221.045 3236.6545 3252.063 3267.2698 3282.5774 3297.7844 -3287.3108 -3272.3052 -3257.6018 -3242.8984 -3228.296 -3213.8945 -3199.4934 -3185.1929 -3171.4966 -172.41211 3299.8992 3299.8992 3299.8992 3299.8992 3299.8992 3299.8992 3299.8992 3299.8992 3299.8992 3287.7136 3272.708 3257.7026 3242.9993 3228.296 3213.693 3199.292 3185.092 3171.0938 3156.7932 911.4075 3157.901 3173.8127 3190.0269 3205.7373 3221.347 3236.9568 3252.365 3267.6726 3282.9802 3298.0864 -3286.908 -3272.0032 -3257.2998 -3242.4956 -3227.9937 -3213.5925 -3199.3926 -3184.8906 -3171.1943 1251.6998 3299.8992 3299.8992 3299.8992 3299.8992 3299.8992 3299.8992 3299.8992 3299.8992 3299.8992 3285.6995 3270.5933 3255.6885 3240.8843 3226.181 3211.679 3197.2778 
-3213.9954 -3199.4934 -3184.9915 480.2765 3299.8992 3299.8992 3299.8992 3299.8992 3299.8992 3299.8992 3299.8992 3299.8992 3289.224 3273.9165 3257.904 2597.8638 3246.6248 3262.4358 3278.0457 3293.4539 -3291.1377 -3275.83 -3260.9253 -3246.222 -402.22778 3299.8992 3299.8992 3299.8992 3299.8992 3292.9504 3277.9448 3262.2344 3265.7593 3281.6711 3297.1802 -3287.5122 -3272.2046 -3256.897 -3241.8914 -3227.188 -3212.384 -3197.9827 -3183.8835 1079.892 3299.8992 3299.8992 3299.8992 3299.8992 3299.8992 3299.8992 3299.8992 3299.8992 3288.6199 3273.413 3257.6018 2546.9055 3246.6248 3262.2344 3277.8442 3293.3533 -3291.339 -3276.132 -3260.7239 -3245.6177 -392.4591 3299.8992 3299.8992 3299.8992 3299.8992 3292.8496 3278.0457 3257.904 3267.2698 3282.9802 3298.59 -3286.0015 -3270.6938 -3255.5876 -3240.6829 -3225.476 -3211.0747 -3196.7742 -3182.1716 1764.505 3299.8992 3299.8992 3299.8992 3299.8992 3299.8992 3299.8992 3299.8992 3299.8992 3289.325 3273.9165 3258.1055 2325.247 3248.4375 3264.3494 3280.0598 3295.5688 -3289.1235 -3273.9165 -3258.9111 -3244.2078 -151.86768 3299.8992 3299.8992 3299.8992 3299.8992 3293.3533 3278.3477 3219.2322 3268.881 3284.6924 3299.8992 -3284.2896 -3269.284 -3253.8757 -3238.971 -3224.0662 -3209.4634 -3195.0623 -3180.9631 1981.5308 3299.8992 3299.8992 3299.8992 3299.8992 3299.8992 3299.8992 3299.8992 3299.8992 3289.9292 3274.2188 3258.4075 2071.9666 3250.4517 3266.464 3281.8726 3297.2808 -3287.3108 -3272.2046 -3256.6956 -3241.7908 155.39246 3299.8992 3299.8992 3299.8992 3299.8992 3293.051 3277.9448 3134.436 3269.284 3285.0952 3299.8992 -3283.8867 -3268.6797 -3253.473 -3238.568 -3223.8647 -3209.1614 -3194.76 -3180.258 2625.4578 3299.8992 3299.8992 3299.8992 3299.8992 3299.8992 3299.8992 3299.8992 3299.8992 3289.1235 3273.715 3257.8032 1938.4277 3250.7537 3266.6655 3282.1746 3297.583 -3287.0085 -3271.9023 -3256.4941 -3241.287 529.1199 3299.8992 3299.8992 3299.8992 3299.8992 3291.8425 3276.8372 3181.8694 3269.3848 3285.1958 3299.8992 -3283.8867 -3268.579 -3253.6743 -3238.7695 -3223.764 -3209.262 -3194.9614 -3180.359 3299.8992 3299.8992 3299.8992 3299.8992 3299.8992 3299.8992 3299.8992 3299.8992 3299.8992 3286.203 3270.7947 3254.9834 938.90076 3253.1707 3268.982 3284.491 3299.8992 
3178.949 3194.76 3209.8662 -3009.1553 1214.5386 3213.391 3198.4863 3183.9844 3168.8782 3154.6782 3140.4785 3125.9766 3111.676 3097.0732 3082.672 3068.2708 3053.8696 3039.871 3025.772 3011.6729 2997.7751 2984.0789 2969.7783 2923.2512 1451.001 -354.89502 -2083.145 2966.3542 2983.5754 3000.7964 3017.7153 3034.6343 3051.2512 3067.6665 3084.082 3100.296 3116.4092 3132.4219 3148.233 3164.2456 3179.8552 3195.5657 3211.2761 -2899.0813 1242.8375 3213.391 3198.587 3184.085 3168.9788 3154.779 3140.579 3126.0771 3111.7766 3097.2747 3082.8735 3068.3716 3054.1716 3039.972 3025.8728 3011.8743 2997.9766 2984.0789 2970.282 2912.677 1464.4958 -270.3003 -2029.065 2965.75 2983.2732 3000.3936 3017.4133 3034.03 3050.7476 3067.2637 3083.4778 3099.7925 3115.9058 3131.9182 3147.83 3163.742 3179.3518 3195.0623 3210.8733 -2769.2688 1539.5233 3211.0747 3196.3713 3181.7688 3166.6626 3152.4626 3138.263 3123.9624 3109.561 3095.16 3080.658 3066.2566 3051.956 3037.857 3023.7578 3009.7595 2995.9624 2982.0647 2968.2678 2870.2788 1222.7966 -678.67126 -2418.3013 2969.0735 2986.4958 3003.717 3020.636 3037.3535 3053.9702 3070.3857 3086.801 3102.9143 3119.0276 3135.0403 3150.8513 3166.7632 3182.373 3197.9827 3213.794 -2660.3027 1556.4423 3213.5925 3198.8892 3184.1858 3169.0796 3154.8796 3140.68 3126.2786 3111.8774 3097.3755 3083.075 3068.573 3054.1716 3040.0725 3026.0742 3011.975 2998.0774 2984.2803 2970.0806 2813.681 1143.5394 -679.3762 -2362.4084 2971.8933 2989.215 3006.5369 3023.355 3040.0725 3056.6895 3073.1047 3089.4194 3105.6335 3121.646 3137.6587 3153.4697 3169.281 3185.092 3200.702 3215.808 -2450.2258 1918.8904 3213.9954 3199.292 3184.5886 3169.4824 3155.3833 3140.982 3126.6814 3112.2803 3097.6775 3083.2764 3068.875 3054.5745 3040.4753 3026.3762 3012.4785 2998.4802 2984.5825 2970.282 2790.7195 1078.1799 -694.3817 -2367.8467 2972.699 2990.0208 3007.141 3024.06 3040.7776 3057.3943 3073.709 3090.1245 3106.3384 3122.351 3138.4644 3154.2754 3170.0867 3185.6963 3201.4067 3216.9158 -2326.9592 1916.1713 3213.9954 3199.292 3184.5886 3169.4824 3155.3833 3141.0828 3126.5808 3112.2803 3097.6775 3083.1755 3068.7744 3054.6753 3040.3748 3026.3762 3012.378 
-3232.727 -3217.1172 -3202.011 -434.45435 3299.8992 3299.8992 3299.8992 3299.8992 3299.8992 3299.8992 3299.3958 3283.383 3267.2698 3250.8545 3233.9355 2437.1338 -2928.0852 3237.1582 3253.9763 3270.4924 3286.8071 3299.8992 -3280.966 -3264.5508 -249.75586 3299.8992 3299.8992 3299.8992 3286.1023 3269.6868 3254.1777 3237.863 3239.273 3256.0913 3272.8088 3289.325 3299.8992 -3278.0457 -3262.033 -3246.0205 -3230.4106 -3214.7002 -3199.8962 91.04004 3299.8992 3299.8992 3299.8992 3299.8992 3299.8992 3299.8992 3299.8992 3284.0881 3267.874 3251.4587 3234.5398 2058.8745 3224.1667 3240.8843 3257.5012 3274.118 3290.5334 3299.8992 -3277.542 -3261.026 180.26733 3299.8992 3299.8992 3299.8992 3286.203 3269.7876 3254.2786 3232.9285 3240.985 3258.0046 3274.7222 3291.2383 3299.8992 -3276.132 -3260.2202 -3244.2078 -3228.4973 -3212.8875 -3197.4792 558.6273 3299.8992 3299.8992 3299.8992 3299.8992 3299.8992 3299.8992 3299.8992 3284.2896 3268.2769 3251.7607 3234.8418 1894.3176 3225.5767 3242.395 3259.1125 3275.5278 3292.1448 -3291.5405 -3275.3264 -3234.7412 428.10974 3299.8992 3299.8992 3299.8992 3285.901 3269.4854 3253.8757 3230.0078 3241.388 3258.206 3274.9236 3291.4397 -3292.1448 -3276.0315 -3259.9182 -3244.107 -3228.296 -3212.8875 -3197.2778 1074.6552 3299.8992 3299.8992 3299.8992 3299.8992 3299.8992 3299.8992 3299.0935 3283.081 3266.867 3250.4517 3233.5327 1767.2241 3225.0732 3241.9922 3258.7097 3275.3264 3291.641 -3292.1448 -3275.7292 -3256.7961 154.88892 3299.8992 3299.8992 3299.8992 3287.21 3270.7947 3254.9834 3131.1125 3244.2078 3261.2273 3277.8442 3294.3604 -3289.325 -3273.2117 -3257.0984 -3241.1865 -3225.6775 -3210.0676 -3194.6594 1489.1693 3299.8992 3299.8992 3299.8992 3299.8992 3299.8992 3299.8992 3299.8992 3284.491 3268.4783 3251.7607 3234.9426 1679.8096 3227.2888 3244.107 3260.8245 3277.3406 3293.8567 -3289.9292 -3273.5137 -3084.7869 814.6271 3299.8992 3299.8992 3299.8992 3284.3901 3267.9749 3252.365 3041.6838 3242.395 3259.314 3275.9307 3292.4468 -3291.2383 -3275.0244 -3258.9111 -3242.9993 -3227.2888 -3211.8804 -3196.875 1416.4581 3299.8992 3299.8992 3299.8992 3299.8992 3299.8992 3299.8992 3298.993 3283.081 3266.867 3250.2502 3233.432 1296.2128 3228.4973 3245.2148 3261.8315 3278.7505 
3299.8992 -3281.2683 -3266.0613 -3250.8545 -596.59424 3299.8992 3299.8992 3299.8992 3299.8992 3287.21 3271.4995 3256.2927 3241.388 3226.181 3211.1755 3196.17 3181.2651 3166.4612 3151.8584 3137.3564 3122.754 3108.3525 3093.8506 3079.1472 2087.8784 -1555.838 3081.8665 3098.4832 3114.9993 3131.314 3147.6287 3163.742 3179.7546 3195.6665 3211.4775 3227.3894 3242.9993 3258.609 3274.118 3289.5264 -3295.0652 -3279.657 -3264.45 -3249.4446 -436.06567 3299.8992 3299.8992 3299.8992 3299.8992 3287.4114 3271.8018 3256.7961 3241.7908 3226.6846 3211.5784 3196.5728 3181.668 3166.7632 3152.2612 3137.7593 3123.2573 3108.8562 3094.1528 3079.4495 2203.7932 -1373.3551 3080.658 3097.3755 3113.9922 3130.307 3146.7224 3162.9363 3178.949 3194.76 3210.7727 3226.2817 3242.0928 3257.7026 3273.1108 3288.8213 3299.8992 -3280.4626 -3265.2556 -3250.2502 -124.77722 3299.8992 3299.8992 3299.8992 3299.6978 3284.6924 3268.982 3254.0771 3239.0715 3223.764 3208.6577 3193.8538 3178.8481 3164.1448 3149.5422 3135.1409 3120.5383 3106.2378 3091.635 3076.7302 2007.5134 -1654.4312 3080.4565 3097.174 3113.5894 3129.904 3146.2188 3162.5334 3178.4453 3194.3572 3210.1685 3225.9795 3241.69 3257.199 3272.8088 3288.4185 3299.8992 -3280.966 -3265.7593 -3250.653 -195.27283 3299.8992 3299.8992 3299.8992 3299.5972 3284.3901 3268.7805 3253.775 3238.6687 3223.6633 3208.5571 3193.5515 3178.7476 3163.8428 3149.24 3134.738 3120.236 3105.9355 3091.2322 3076.4282 2041.7542 -1635.0952 3079.7515 3096.469 3112.985 3129.5012 3145.7153 3161.8286 3177.841 3193.753 3209.4634 3225.2747 3240.985 3256.4941 3272.2046 3287.7136 3299.8992 -3281.5703 -3266.3635 -3251.2573 -26.28479 3299.8992 3299.8992 3299.8992 3298.1873 3283.2825 3267.572 3252.4658 3237.4602 3222.2534 3207.1472 3192.1416 3177.4382 3162.6343 3148.1323 3133.5295 3119.0276 3104.6265 3090.0237 3075.2197 2011.9446 -1501.0529 3078.8452 3095.462 3112.0789 3128.4941 3144.5068 3160.7207 3176.7334 3192.6453 3208.4563 3224.2676 3239.978 3255.5876 3271.1975 3286.7065 3299.8992 -3282.5774 -3267.2698 -2621.1272 1314.9445 3299.8992 3299.8992 3299.8992 3288.8213 3274.0173 3258.307 3243.3013 3228.296 3213.2903 3198.285 3183.2793 3168.576 3153.8726 3139.3706 3124.8687 

2.2155762 1.4099121 1.9134521 5.0354004 1.9134521 -0.70495605 -0.9063721 2.7191162 10.171509 8.761597 4.7332764 0 2.7191162 -2.4169922 -2.6184082 -2.2155762 2.6184082 5.5389404 9.869385 13.595581 5.6396484 9.063721 14.401245 14.300537 -2.3162842 -7.8552246 -8.358765 0.70495605 2.1148682 1.0070801 3.1219482 -4.6325684 -7.1502686 -6.9488525 -3.5247803 -2.7191162 -3.8269043 -3.1219482 -5.4382324 -8.761597 -10.675049 -13.897705 -8.560181 -7.9559326 -3.8269043 -6.4453125 0.70495605 -4.7332764 1.5106201 -2.7191162 -2.9205322 -2.5177002 -2.7191162 1.2084961 6.6467285 9.365845 9.265137 8.459473 5.1361084 6.3446045 7.4523926 5.2368164 6.6467285 5.5389404 2.6184082 2.1148682 4.3304443 3.3233643 -2.9205322 -7.0495605 -9.466553 -11.581421 -9.466553 -7.7545166 -6.3446045 -7.7545166 -7.3516846 -8.761597 -7.8552246 -4.6325684 -5.2368164 -0.10070801 1.2084961 -2.8198242 0.80566406 1.3092041 1.2084961 0.50354004 4.2297363 3.3233643 7.6538086 8.660889 8.358765 14.703369 12.689209 7.8552246 15.408325 9.365845 4.5318604 2.1148682 1.0070801 4.4311523 -4.7332764 0.10070801 1.9134521 1.4099121 3.4240723 -0.20141602 5.2368164 2.0141602 2.4169922 -4.3304443 -5.4382324 -3.2226562 -2.0141602 -6.4453125 -7.2509766 -5.4382324 -7.8552246 -7.3516846 -6.8481445 -7.0495605 -5.4382324 -7.5531006 -6.3446045 -7.0495605 -6.5460205 -5.8410645 -2.8198242 -2.7191162 -6.5460205 0.10070801 2.2155762 0.30212402 -0.30212402 -2.7191162 2.8198242 0.40283203 4.8339844 7.7545166 2.3162842 7.0495605 5.2368164 0.50354004 -1.5106201 2.3162842 2.7191162 3.4240723 -1.6113281 -1.8127441 1.5106201 -1.7120361 -4.5318604 -5.5389404 -8.258057 -4.5318604 2.1148682 -6.8481445 -8.761597 -9.164429 -11.380005 -11.380005 -11.279297 -8.358765 -7.7545166 -1.0070801 0.70495605 -1.0070801 1.6113281 1.4099121 5.7403564 5.4382324 12.084961 4.3304443 14.199829 29.104614 46.627808 47.131348 45.620728 44.613647 40.786743 30.413818 22.659302 8.560181 1.3092041 -3.4240723 -20.846558 -56.396484 -80.76782 -60.324097 -39.88037 -30.31311 -21.350098 -14.602661 -13.293457 -9.970093 -10.070801 -12.387085 -10.372925 -5.0354004 
-18.630981 -20.141602 -16.314697 -10.171509 5.8410645 5.3375244 2.8198242 5.8410645 7.3516846 11.178589 16.818237 13.293457 14.703369 15.509033 15.509033 15.710449 19.033813 17.120361 19.940186 19.436646 14.300537 8.761597 4.9346924 2.8198242 1.7120361 7.9559326 -0.9063721 -3.6254883 -5.5389404 -7.0495605 -5.3375244 -6.5460205 -1.5106201 -4.8339844 -10.775757 -5.9417725 -5.8410645 -6.0424805 -5.5389404 -0.80566406 5.2368164 2.5177002 -2.7191162 0 1.7120361 0.9063721 7.7545166 9.970093 12.588501 21.450806 26.184082 29.205322 33.33435 25.27771 26.889038 26.687622 28.097534 18.328857 12.286377 18.22815 10.977173 -6.3446045 -12.789917 -18.630981 -17.422485 -12.991333 -13.293457 -7.2509766 -7.9559326 -10.171509 -16.616821 -32.125854 -36.154175 -30.615234 -21.450806 -18.127441 -13.595581 -14.501953 -10.171509 -7.7545166 -6.4453125 -8.660889 -9.265137 -9.265137 -5.8410645 -4.8339844 -5.2368164 -2.9205322 1.2084961 -2.7191162 1.7120361 0.30212402 5.7403564 11.682129 12.588501 17.623901 19.537354 32.125854 34.84497 26.889038 25.579834 15.206909 3.6254883 1.2084961 -1.7120361 3.5247803 4.0283203 -12.689209 -21.047974 -15.811157 -9.567261 -7.5531006 -6.2438965 -6.0424805 -11.682129 -13.494873 -11.782837 -9.869385 -6.3446045 4.4311523 1.3092041 14.099121 9.667969 11.984253 10.171509 10.775757 7.1502686 7.1502686 10.272217 9.265137 10.171509 9.164429 13.293457 15.206909 8.660889 11.178589 3.6254883 7.4523926 3.0212402 6.5460205 11.077881 14.099121 19.436646 16.113281 16.616821 13.192749 7.6538086 -0.20141602 -2.6184082 -4.5318604 -8.056641 -8.963013 -6.6467285 -3.5247803 -6.7474365 -10.876465 -16.918945 -13.796997 -9.265137 -8.963013 -5.1361084 -5.4382324 -12.689209 -19.940186 -23.364258 -17.019653 -9.265137 -5.6396484 -1.9134521 -0.10070801 2.1148682 9.970093 12.387085 12.689209 13.897705 14.501953 12.185669 18.22815 18.832397 12.789917 8.459473 -0.70495605 -3.2226562 -7.7545166 -14.199829 -17.422485 -24.975586 -26.083374 -31.118774 -20.846558 -18.026733 -8.560181 -16.516113 -12.991333 -10.070801 -8.459473 -13.092041 -3.5247803 -2.9205322 -1.7120361 
3204.0251 3188.617 3173.7122 2406.5186 3169.583 3186.9048 3204.0251 3220.944 3237.561 3254.1777 3270.5933 3286.908 3299.8992 -3280.5632 -3264.7522 -3248.7395 -3233.029 -3217.4194 -3202.011 -3186.7034 -3171.4966 -3156.8938 -3142.0898 -2305.6091 3299.8992 3299.8992 3299.8992 3299.8992 3299.8992 3299.8992 3299.8992 3299.8992 3299.8992 3299.8992 3298.892 3282.7788 3266.7664 3250.8545 3235.0432 3219.5342 3204.0251 3189.1204 3173.5107 1815.9668 3172.1008 3189.2212 3206.0393 3222.7568 3239.4744 3255.9905 3272.406 3288.922 3299.8992 -3278.8513 -3262.738 -3246.9268 -3231.2163 -3215.7073 -3200.1982 -3184.8906 -3169.7844 -3154.4768 -3140.1763 -2144.0735 3299.8992 3299.8992 3299.8992 3299.8992 3299.8992 3299.8992 3299.8992 3299.8992 3299.8992 3299.8992 3299.8992 3284.0881 3267.9749 3252.063 3236.3525 3220.642 3205.2336 3190.3289 3175.122 1834.195 3173.007 3190.3289 3207.2478 3224.1667 3240.8843 3257.5012 3273.9165 3290.332 -3293.4539 -3277.3406 -3261.4287 -3245.6177 -3229.9072 -3214.1968 -3198.8892 -3183.5815 -3168.4753 -3153.772 -3138.6658 -1726.3367 3299.8992 3299.8992 3299.8992 3299.8992 3299.8992 3299.8992 3299.8992 3299.8992 3299.8992 3299.8992 3299.5972 3283.484 3267.3706 3251.4587 3235.6475 3220.1384 3204.6294 3189.2212 3174.3164 1072.641 3174.3164 3191.7388 3208.8591 3225.778 3242.395 3258.9111 3275.3264 3291.742 -3292.1448 -3276.0315 -3260.1196 -3244.2078 -3228.4973 -3212.8875 -3197.4792 -3182.2722 -3167.166 -3152.5635 -3137.86 -1615.4572 3299.8992 3299.8992 3299.8992 3299.8992 3299.8992 3299.8992 3299.8992 3299.8992 3299.8992 3299.8992 3299.8992 3284.1887 3268.0754 3252.1636 3236.4531 3220.8435 3205.3345 3190.4297 3174.7192 473.32764 3177.2368 3194.2566 3210.974 3227.7922 3244.5098 3260.9253 3277.3406 3293.756 -3290.1306 -3273.9165 -3258.0046 -3242.1936 -3226.4832 -3210.8733 -3195.465 -3180.258 -3165.1519 -3149.945 -3135.6445 -295.77942 3299.8992 3299.8992 3299.8992 3299.8992 3299.8992 3299.8992 3299.8992 3299.8992 3299.8992 3299.8992 3297.0793 3280.966 3264.9536 3249.0417 3233.2305 3217.7214 
3183.1787 3169.1802 3154.779 186.1084 3157.5989 3173.5107 3189.624 3205.435 3221.045 3236.6545 3251.9622 3267.3706 3282.5774 3297.6836 -3287.3108 -3272.406 -3257.5012 -3242.8984 -3228.296 -3213.8945 -3199.6948 -3185.1929 -3171.3958 1275.3662 3299.8992 3299.8992 3299.8992 3299.8992 3299.8992 3299.8992 3299.8992 3299.8992 3299.8992 3285.2966 3270.1904 3255.1848 3240.4814 3225.6775 3211.2761 3196.875 3182.675 3168.7773 3154.2754 -575.8484 3158.7065 3174.5178 3190.631 3206.3416 3222.052 3237.561 3252.9692 3268.2769 3283.5845 3298.59 -3286.4043 -3271.399 -3256.5947 -3241.9922 -3227.4902 -3213.0889 -3198.7883 -3184.3872 -3170.59 2192.9167 3299.8992 3299.8992 3299.8992 3299.8992 3299.8992 3299.8992 3299.8992 3299.8992 3299.8992 3284.793 3269.8882 3254.8828 3240.1794 3225.476 3210.8733 3196.5728 3182.373 3168.274 3153.8726 -1435.9955 3159.613 3175.525 3191.7388 3207.4492 3223.059 3238.6687 3253.9763 3269.3848 3284.5916 3299.6978 -3285.2966 -3270.291 -3255.5876 -3240.8843 -3226.3823 -3211.9812 -3197.6807 -3183.3801 -3169.583 3299.8992 3299.8992 3299.8992 3299.8992 3299.8992 3299.8992 3299.8992 3299.8992 3299.8992 3298.4893 3283.383 3268.2769 3253.473 3238.568 3223.9653 3209.4634 3195.0623 3180.8623 3166.6626 3152.5635 -2169.351 3159.7136 3175.6255 3191.8396 3207.55 3223.059 3238.568 3253.9763 3269.3848 3284.5916 3299.6978 -3285.2966 -3270.291 -3255.5876 -3240.8843 -3226.4832 -3211.9812 -3197.7812 -3183.2793 -3169.6838 3299.8992 3299.8992 3299.8992 3299.8992 3299.8992 3299.8992 3299.8992 3299.8992 3299.8992 3297.9858 3282.8796 3267.7734 3252.8687 3238.1653 3223.462 3208.8591 3194.5586 3180.359 3166.0583 3151.9592 -2530.8928 3159.915 3176.1292 3191.9402 3207.6506 3223.2605 3238.6687 3254.0771 3269.4854 3284.6924 3299.8992 -3285.0952 -3270.291 -3255.487 -3240.7837 -3226.2817 -3211.9812 -3197.6807 -3183.6821 -3169.4824 3299.8992 3299.8992 3299.8992 3299.8992 3299.8992 3299.8992 3299.8992 3299.8992 3299.8992 3297.0793 3281.9731 3266.7664 3251.9622 3237.1582 3222.5554 3207.953 3193.6523 
-3284.8938 -3269.5862 -3254.2786 -3014.9963 -918.2556 3299.8992 3299.8992 3299.8992 3299.8992 3299.8992 3288.217 2431.7961 3284.2896 3299.8992 -3284.491 -3269.1833 -3253.9763 -3239.0715 -3224.3682 -3209.6648 -3194.9614 -3180.7617 -3166.864 3299.8992 3299.8992 3299.8992 3299.8992 3299.8992 3299.8992 3299.8992 3299.8992 3299.8992 3299.8992 3284.491 3268.3777 1716.568 3262.033 3277.9448 3293.4539 -3291.1377 -3275.7292 -3260.623 -3245.4163 -3229.4036 738.2904 3299.8992 3299.8992 3299.8992 3299.8992 3299.8992 3285.8 2367.2424 3281.067 3296.576 -3287.7136 -3272.406 -3257.0984 -3242.2942 -3227.188 -3212.5854 -3198.0835 -3183.6821 -3169.6838 3299.8992 3299.8992 3299.8992 3299.8992 3299.8992 3299.8992 3299.8992 3299.8992 3299.8992 3295.8708 3280.4626 3264.148 1425.0183 3259.9182 3275.7292 3291.2383 3299.8992 -3277.9448 -3262.8386 -3247.9338 -3229.8064 792.6727 3299.8992 3299.8992 3299.8992 3299.8992 3297.7844 3282.6782 2031.5826 3279.2542 3294.7632 -3289.627 -3274.3193 -3259.1125 -3243.805 -3229.1016 -3214.3982 -3199.8962 -3185.4949 -3171.1943 3299.8992 3299.8992 3299.8992 3299.8992 3299.8992 3299.8992 3299.8992 3299.8992 3299.8992 3293.3533 3277.6428 3261.5295 926.6144 3259.7168 3275.5278 3291.0369 3299.8992 -3278.247 -3263.1409 -3247.7324 -3102.5115 1292.8894 3299.8992 3299.8992 3299.8992 3299.8992 3295.2666 3280.2612 1544.0552 3278.3477 3293.9575 -3290.5334 -3275.2258 -3259.9182 -3245.114 -3230.1086 -3215.2039 -3200.8025 -3186.4014 -3172.4028 3299.8992 3299.8992 3299.8992 3299.8992 3299.8992 3299.8992 3299.8992 3299.8992 3299.8992 3290.9363 3275.2258 3259.314 837.99133 3257.904 3273.816 3289.4255 3299.8992 -3279.7576 -3264.6514 -3249.8474 -3100.9001 1163.0768 3299.8992 3299.8992 3299.8992 3299.8992 3293.756 3278.8513 1135.8856 3277.8442 3293.756 -3290.8354 -3275.4272 -3260.321 -3245.3154 -3230.2092 -3215.5059 -3200.9033 -3186.6028 -3172.6042 3299.8992 3299.8992 3299.8992 3299.8992 3299.8992 3299.8992 3299.8992 3299.8992 3299.8992 3288.922 3273.413 3257.2998 401.52283 3258.1055 3273.816 3289.4255 3299.8992 
2998.3794 2984.5825 2970.7854 2745.401 1062.7716 -772.3297 -2503.2988 2974.008 2991.3298 3008.4502 3025.2686 3041.986 3058.6028 3075.119 3091.4336 3107.5469 3123.6602 3139.572 3155.3833 3171.1943 3186.9048 3202.5146 3218.1243 -2296.7468 1827.6489 3215.5059 3200.8025 3186.2 3171.0938 3156.8938 3142.5933 3128.1921 3113.6902 3099.1882 3084.7869 3070.3857 3056.0852 3041.986 3027.7861 3013.8884 2999.8901 2985.9924 2971.692 2676.5166 1027.7252 -792.87415 -2530.7922 2976.123 2993.4448 3010.6658 3027.4841 3044.2017 3060.7178 3077.133 3093.5486 3109.561 3125.7751 3141.5862 3157.5989 3173.3093 3189.0198 3204.6294 3219.635 -2022.4182 2215.4753 3214.9016 3200.299 3185.5957 3170.4895 3156.3904 3141.989 3127.6885 3113.1865 3098.584 3084.1826 3069.6807 3055.481 3041.3818 3027.2827 3013.1836 2999.286 2985.3882 2970.9868 2600.7842 799.01733 -974.6521 -2778.131 2979.1443 2996.3652 3013.2842 3030.4045 3047.0215 3063.5376 3079.953 3096.2676 3112.3809 3128.3936 3144.406 3160.2173 3175.9277 3191.6382 3207.2478 3222.354 -1878.1036 2297.351 3216.7144 3202.011 3187.4084 3172.3022 3158.0017 3143.8018 3129.2998 3114.7979 3100.1953 3085.794 3071.3928 3057.1929 3043.0938 3028.894 3014.8955 3000.8972 2987.1 2973.001 2658.9934 978.88184 -843.12744 -2618.4082 2977.9358 2995.2576 3012.277 3029.196 3045.813 3062.5305 3078.8452 3095.16 3111.2732 3127.3865 3143.399 3159.1094 3175.0212 3190.631 3206.2407 3221.9512 -1757.3547 2411.3525 3214.7002 3200.0977 3185.3943 3170.3887 3156.0881 3141.8884 3127.3865 3112.985 3098.4832 3083.9812 3069.58 3055.2795 3041.0796 3027.0813 3013.1836 2999.0845 2985.2874 2971.289 2418.6035 670.81604 -1125.7141 -2817.81 2981.0576 2998.3794 3015.3992 3032.318 3048.8342 3065.3503 3081.8665 3098.0803 3114.1936 3130.1055 3146.2188 3162.03 3177.841 3193.451 3209.0605 3224.6704 -1479.0985 2713.98 3215.4053 3200.8025 3186.099 3171.0938 3156.7932 3142.5933 3128.0913 3113.5894 3098.9868 3084.6863 3070.1843 3055.8838 3041.6838 3027.6855 3013.7878 
3294.7632 -3288.8213 -3272.5066 -3030.304 926.5137 3299.8992 3299.8992 3299.8992 3284.5916 3268.1763 3252.6672 2905.8289 3244.107 3261.026 3277.542 3294.159 -3289.5264 -3273.3123 -3257.4004 -3241.388 -3225.778 -3210.3699 -3194.76 2371.7742 3299.8992 3299.8992 3299.8992 3299.8992 3299.8992 3299.8992 3297.9858 3281.9731 3265.8599 3249.2432 3232.2234 1059.0454 3228.6987 3245.5168 3262.1338 3278.7505 3295.0652 -3288.6199 -3272.708 -2931.3079 840.60974 3299.8992 3299.8992 3299.8992 3284.9944 3268.4783 3252.9692 2576.4128 3246.121 3263.04 3279.7576 3296.2737 -3287.4114 -3271.399 -3255.2856 -3239.4744 -3223.8647 -3208.255 -3193.451 2929.0923 3299.8992 3299.8992 3299.8992 3299.8992 3299.8992 3299.8992 3298.4893 3282.376 3266.3635 3249.646 3232.727 881.19507 3230.1086 3247.0276 3263.6443 3280.2612 3296.576 -3287.0085 -3271.298 -2698.8738 1392.691 3299.8992 3299.8992 3298.0864 3282.5774 3266.0613 3250.4517 2337.6343 3245.114 3261.8315 3278.549 3295.0652 -3288.6199 -3272.3052 -3256.4941 -3240.5823 -3224.771 -3209.3628 -3194.5586 3299.8992 3299.8992 3299.8992 3299.8992 3299.8992 3299.8992 3299.8992 3296.0723 3279.959 3263.9465 3247.1282 3230.2092 676.4557 3229.4036 3246.222 3262.8386 3279.3547 3295.7703 -3287.8142 -3271.6003 -2732.611 1178.7872 3299.8992 3299.8992 3298.59 3282.9802 3266.565 3250.955 1984.4513 3247.1282 3263.9465 3280.664 3296.9788 -3286.6057 -3270.3918 -3254.3792 -3238.6687 -3222.9583 -3207.55 -3192.1416 3299.8992 3299.8992 3299.8992 3299.8992 3299.8992 3299.8992 3299.8992 3297.3816 3281.369 3265.0542 3248.4375 3231.4177 565.47546 3231.3171 3248.1353 3264.9536 3281.369 3297.6836 -3286.1023 -3269.6868 -2394.937 1691.2903 3299.8992 3299.8992 3296.6765 3281.067 3264.6514 3249.0417 1751.1108 3246.222 3263.1409 3279.657 3296.0723 -3287.6128 -3271.399 -3255.3862 -3239.4744 -3223.764 -3208.3557 -3192.9473 3299.8992 3299.8992 3299.8992 3299.8992 3299.8992 3299.8992 3299.8992 3295.3674 3279.5562 3263.3423 3246.7253 3229.5044 265.76843 3231.2163 3248.0347 3264.7522 3281.2683 
3110.4675 3096.0662 3081.665 3062.1277 480.2765 -3147.7295 3155.2825 3103.1157 3119.6318 3135.9465 3151.9592 3168.0725 3184.085 3199.9968 3215.808 3231.5186 3247.229 3262.8386 3278.3477 3293.756 -3290.8354 -3275.6287 -3260.4216 -3245.4163 101.916504 3299.8992 3299.8992 3299.8992 3299.8992 3288.0156 3272.2046 3257.4004 3242.2942 3227.0874 3211.8804 3196.875 3181.9702 3167.2668 3152.664 3138.0615 3123.5596 3109.0576 3094.3542 3079.3486 1757.959 -1987.3718 3085.6934 3102.411 3118.927 3135.2417 3151.5564 3167.6697 3183.6821 3199.4934 3215.2039 3230.9143 3246.6248 3262.3352 3277.8442 3293.2524 -3291.339 -3276.0315 -3260.8245 -3180.359 804.657 3299.8992 3299.8992 3299.8992 3298.1873 3283.081 3267.3706 3252.2644 3237.3596 3222.1526 3207.0464 3192.041 3177.1362 3162.5334 3148.0315 3133.429 3119.1284 3104.5256 3089.923 3074.817 1481.8176 -2296.1426 3083.9812 3100.6987 3117.0134 3133.3281 3149.5422 3165.756 3181.668 3197.4792 3213.2903 3229.0007 3244.812 3260.321 3276.0315 3291.4397 -3293.2524 -3277.8442 -3262.738 -3135.9465 850.4791 3299.8992 3299.8992 3299.8992 3295.9717 3280.7646 3264.9536 3250.2502 3235.2446 3220.0378 3205.0322 3190.1274 3175.0212 3160.5193 3146.0173 3131.4148 3117.0134 3102.6123 3087.808 3072.8027 1339.1144 -2558.2854 3083.4778 3100.1953 3116.7114 3132.9253 3149.3408 3165.3533 3181.2651 3197.0764 3213.0889 3228.6987 3244.4092 3259.9182 3275.5278 3291.0369 -3293.5547 -3278.247 -3263.04 -3022.6501 1068.6127 3299.8992 3299.8992 3299.8992 3294.058 3279.0527 3263.2415 3248.236 3233.3313 3218.1243 3203.119 3188.214 3173.41 3158.8074 3144.2046 3129.8035 3115.3015 3100.7996 3086.0962 3069.3787 1007.88574 -2961.0168 3084.8877 3101.4038 3117.819 3134.2346 3150.4485 3166.7632 3182.4736 3198.285 3214.1968 3229.8064 3245.7183 3261.2273 3276.7363 3292.1448 -3292.4468 -3277.0386 -3261.8315 -3009.0544 1030.7465 3299.8992 3299.8992 3299.8992 3295.2666 3280.3618 3264.5508 3249.4446 3234.3384 3219.4336 3204.2266 3189.4226 3174.417 3159.8145 3145.3125 3130.8105 

-7.0495605 -3.6254883 -1.7120361 -1.4099121 2.0141602 0.70495605 -1.4099121 -2.4169922 2.2155762 4.7332764 -1.8127441 -4.1290283 -2.5177002 7.5531006 2.4169922 -1.8127441 -0.60424805 0.50354004 5.5389404 5.9417725 6.5460205 7.4523926 11.279297 15.005493 10.675049 6.5460205 2.0141602 -2.3162842 -20.74585 -27.090454 -18.026733 -6.4453125 -3.2226562 -5.6396484 -2.9205322 -4.0283203 -6.4453125 -0.20141602 2.1148682 -0.80566406 -4.5318604 -10.171509 -7.7545166 -5.9417725 -5.5389404 -3.3233643 -2.5177002 1.9134521 4.7332764 3.4240723 9.365845 3.7261963 11.077881 12.689209 13.092041 11.984253 11.380005 12.588501 11.279297 7.4523926 8.459473 8.560181 6.6467285 7.0495605 4.5318604 -0.80566406 -5.0354004 -6.0424805 -7.2509766 -10.876465 -14.401245 -10.775757 -9.063721 -4.5318604 2.2155762 -2.6184082 2.2155762 1.1077881 1.5106201 1.8127441 1.0070801 4.6325684 5.8410645 2.4169922 3.3233643 -2.7191162 1.5106201 1.7120361 8.459473 1.5106201 0.10070801 5.8410645 0.30212402 -0.20141602 -1.3092041 -1.9134521 -6.2438965 3.8269043 -1.2084961 2.4169922 2.2155762 1.4099121 2.8198242 0.60424805 -0.20141602 1.6113281 1.1077881 -0.40283203 0.40283203 -2.7191162 -4.6325684 -4.0283203 -4.6325684 -4.4311523 -5.0354004 -0.30212402 -1.4099121 -5.9417725 -2.8198242 -1.2084961 -1.0070801 0.80566406 -8.459473 -7.7545166 1.2084961 -3.9276123 3.3233643 2.5177002 5.0354004 5.8410645 3.4240723 2.8198242 7.8552246 8.963013 12.387085 12.286377 5.4382324 17.422485 16.616821 14.401245 11.480713 3.6254883 1.1077881 0.10070801 -8.056641 -7.8552246 -0.9063721 -1.4099121 -9.063721 -14.703369 -17.523193 -15.509033 -10.272217 -8.459473 -3.1219482 -1.5106201 -4.5318604 -9.567261 -9.970093 -7.0495605 -7.3516846 -6.2438965 -10.473633 1.5106201 -2.5177002 -2.4169922 0.40283203 0.9063721 0.9063721 1.4099121 9.365845 10.070801 13.293457 6.8481445 9.667969 6.9488525 4.6325684 2.4169922 4.8339844 -0.50354004 0.70495605 -0.40283203 3.6254883 5.8410645 3.7261963 1.8127441 5.6396484 3.0212402 1.7120361 -0.10070801 1.9134521 -4.9346924 -0.60424805 -9.365845 -12.387085 -7.5531006 -11.380005 -9.970093 -10.876465 -1.3092041 
-2.0141602 -1.5106201 0.60424805 7.6538086 6.9488525 8.056641 4.3304443 5.5389404 7.5531006 2.0141602 12.588501 12.487793 11.984253 19.134521 17.523193 11.380005 8.862305 1.7120361 -1.1077881 5.0354004 5.3375244 3.7261963 8.358765 6.1431885 6.1431885 5.3375244 6.1431885 -1.4099121 -3.6254883 -3.5247803 -7.7545166 -10.070801 -7.7545166 -8.963013 -5.9417725 -8.560181 -5.3375244 -6.3446045 -0.80566406 2.7191162 5.2368164 2.6184082 4.2297363 5.9417725 6.3446045 5.2368164 12.588501 9.667969 14.602661 21.75293 28.903198 23.062134 24.27063 22.558594 21.551514 20.443726 25.378418 25.27771 20.343018 15.408325 18.630981 6.0424805 -16.516113 -37.46338 -34.84497 -23.968506 -15.710449 -11.883545 -6.5460205 2.0141602 -2.7191162 -2.3162842 -1.2084961 -2.1148682 -6.3446045 -9.869385 -11.682129 -13.998413 -10.977173 -15.811157 -24.874878 -27.29187 -21.954346 -15.005493 -10.775757 -1.1077881 4.2297363 5.6396484 -3.6254883 -1.6113281 -2.3162842 -4.5318604 -0.50354004 3.0212402 1.8127441 3.3233643 3.2226562 8.459473 7.7545166 5.3375244 2.8198242 6.3446045 5.7403564 7.7545166 3.3233643 -1.2084961 -7.3516846 -6.4453125 -6.6467285 -6.0424805 -8.459473 -11.581421 -15.609741 -11.077881 -12.084961 -3.1219482 -4.7332764 -8.963013 -8.258057 -6.8481445 -5.1361084 -4.0283203 -2.4169922 3.1219482 6.0424805 4.9346924 0.80566406 4.9346924 5.6396484 8.963013 8.560181 14.703369 11.984253 18.127441 15.911865 16.616821 20.040894 16.314697 12.890625 7.0495605 1.0070801 6.3446045 7.5531006 2.1148682 5.3375244 -1.5106201 -5.0354004 -8.761597 -4.2297363 -8.157349 -6.7474365 -6.2438965 -6.8481445 -7.3516846 -8.358765 -7.5531006 -7.8552246 -10.775757 -6.9488525 -2.4169922 -1.7120361 6.9488525 9.164429 10.272217 10.574341 13.494873 10.473633 11.480713 6.0424805 2.3162842 2.4169922 -7.7545166 3.3233643 12.185669 3.9276123 3.5247803 6.6467285 0.50354004 -1.1077881 -0.9063721 2.7191162 2.2155762 6.6467285 9.466553 9.365845 7.8552246 6.6467285 5.3375244 -0.60424805 -2.0141602 3.3233643 4.8339844 10.876465 1.3092041 0.30212402 -10.070801 -21.148682 -23.464966 -25.579834 -18.127441 
3202.3132 3187.4084 3172.1008 -252.57568 3175.827 3193.048 3210.1685 3226.9866 3243.704 3260.1196 3276.6357 3292.9504 -3290.8354 -3274.823 -3258.9111 -3242.9993 -3227.2888 -3211.7798 -3196.3713 -3181.0637 -3165.9575 -3151.355 -3136.148 -649.36523 3299.8992 3299.8992 3299.8992 3299.8992 3299.8992 3299.8992 3299.8992 3299.8992 3299.8992 3299.8992 3297.6836 3281.5703 3265.457 3249.5452 3233.8347 3218.225 3202.8167 3187.4084 3171.8994 -887.23755 3177.7405 3194.8608 3211.679 3228.3965 3245.0134 3261.5295 3277.9448 3294.3604 -3289.627 -3273.413 -3257.4004 -3241.5894 -3225.9795 -3210.4705 -3195.0623 -3179.7546 -3164.8499 -3149.5422 -3135.1409 -628.11584 3299.8992 3299.8992 3299.8992 3299.8992 3299.8992 3299.8992 3299.8992 3299.8992 3299.8992 3299.8992 3298.7915 3282.5774 3266.464 3250.653 3234.8418 3219.2322 3203.8237 3188.919 3173.6113 -1736.8103 3180.5603 3197.882 3214.9016 3231.72 3248.3367 3264.8528 3281.2683 3297.583 -3286.3037 -3270.0896 -3254.2786 -3238.3667 -3222.7568 -3207.2478 -3191.8396 -3176.7334 -3161.6272 -3147.0244 -3131.9182 -76.84021 3299.8992 3299.8992 3299.8992 3299.8992 3299.8992 3299.8992 3299.8992 3299.8992 3299.8992 3299.8992 3299.6978 3283.484 3267.3706 3251.4587 3235.7483 3220.2393 3204.7302 3189.2212 3174.2156 -2001.0681 3181.8694 3199.0906 3216.3115 3232.9285 3249.5452 3266.162 3282.4768 3298.7915 -3284.9944 -3268.881 -3253.07 -3237.1582 -3221.5483 -3206.0393 -3190.7317 -3175.525 -3160.4187 -3145.9167 -3131.314 11.682129 3299.8992 3299.8992 3299.8992 3299.8992 3299.8992 3299.8992 3299.8992 3299.8992 3299.8992 3299.8992 3299.8992 3283.8867 3267.7734 3251.9622 3236.1511 3220.5413 3205.2336 3190.1274 3174.2156 3188.3147 3185.2935 3202.5146 3219.635 3236.3525 3252.9692 3269.4854 3285.8 3299.8992 -3281.7717 -3265.5579 -3249.7466 -3233.9355 -3218.4265 -3202.8167 -3187.6099 -3172.4028 -3157.2966 -3142.7947 -3128.2927 1422.6013 3299.8992 3299.8992 3299.8992 3299.8992 3299.8992 3299.8992 3299.8992 3299.8992 3299.8992 3299.8992 3298.6907 3282.6782 3266.565 3250.5522 3234.9426 3219.4336 
3179.5532 3165.2527 3151.1536 3144.9097 3161.325 3177.539 3193.2495 3209.0605 3224.5696 3240.0786 3255.487 3270.7947 3286.0015 3299.8992 -3283.9873 -3268.982 -3254.1777 -3239.5752 -3225.0732 -3210.6719 -3196.3713 -3182.4736 -3168.274 3299.8992 3299.8992 3299.8992 3299.8992 3299.8992 3299.8992 3299.8992 3299.8992 3299.8992 3296.173 3280.966 3266.0613 3251.056 3236.4531 3221.7498 3207.1472 3192.8467 3178.7476 3164.447 3150.348 3145.2117 3161.6272 3178.0425 3193.753 3209.3628 3224.9724 3240.3809 3255.789 3271.0967 3286.3037 3299.8992 -3283.5845 -3268.6797 -3253.8757 -3239.273 -3224.8718 -3210.3699 -3196.0693 -3182.2722 -3167.9717 3299.8992 3299.8992 3299.8992 3299.8992 3299.8992 3299.8992 3299.8992 3299.8992 3299.8992 3296.878 3281.8726 3266.867 3251.8616 3237.1582 3222.4548 3207.953 3193.6523 3179.3518 3165.0513 3150.9521 3147.7295 3164.2456 3180.359 3196.0693 3211.679 3227.188 3242.7979 3258.206 3273.5137 3288.8213 3299.8992 -3281.1675 -3266.2627 -3251.5593 -3236.9568 -3222.4548 -3208.0535 -3193.753 -3179.8552 -3165.756 3299.8992 3299.8992 3299.8992 3299.8992 3299.8992 3299.8992 3299.8992 3299.8992 3299.8992 3297.4822 3282.376 3267.4712 3252.5664 3237.863 3222.9583 3208.5571 3194.1558 3179.956 3165.756 3151.4556 3149.1394 3165.454 3181.2651 3197.3784 3213.0889 3228.6987 3244.107 3259.616 3274.7222 3290.0298 3299.8992 -3279.8584 -3264.9536 -3250.3508 -3235.6475 -3221.2463 -3206.845 -3192.6453 -3178.3447 -3164.5476 3299.8992 3299.8992 3299.8992 3299.8992 3299.8992 3299.8992 3299.8992 3299.8992 3299.8992 3296.7773 3281.7717 3266.7664 3251.8616 3237.0574 3222.4548 3207.852 3193.451 3179.251 3165.0513 3150.7507 3150.8513 3167.166 3183.078 3199.1912 3214.801 3230.4106 3245.819 3261.3281 3276.4343 3291.742 3299.8992 -3278.247 -3263.3423 -3248.7395 -3234.0361 -3219.5342 -3205.2336 -3191.034 -3176.7334 -3163.1377 3299.8992 3299.8992 3299.8992 3299.8992 3299.8992 3299.8992 3299.8992 3299.8992 3299.8992 3297.885 3282.7788 3267.7734 3252.8687 3238.1653 3223.462 3208.96 3194.6594 
-3279.959 -3264.8528 -3249.5452 -2923.9563 1544.5587 3299.8992 3299.8992 3299.8992 3299.8992 3291.9434 3276.9377 517.0349 3277.542 3293.1519 -3291.339 -3276.0315 -3260.8245 -3245.9197 -3230.8135 -3216.11 -3201.5076 -3187.1062 -3173.2085 3299.8992 3299.8992 3299.8992 3299.8992 3299.8992 3299.8992 3299.8992 3299.8992 3299.8992 3287.7136 3271.8018 3255.9905 -35.147095 3258.7097 3274.4202 3289.9292 3299.8992 -3279.2542 -3264.2485 -3249.3438 -2676.6174 2004.6936 3299.8992 3299.8992 3299.8992 3299.8992 3289.0227 3274.0173 23.76709 3275.7292 3291.4397 -3293.051 -3277.542 -3262.5366 -3247.229 -3232.5256 -3217.7214 -3203.119 -3188.8184 -3174.417 3299.8992 3299.8992 3299.8992 3299.8992 3299.8992 3299.8992 3299.8992 3299.8992 3299.8992 3284.5916 3268.982 3252.9692 -244.82117 3256.7961 3272.5066 3288.0156 3299.8992 -3281.2683 -3266.162 -3250.8545 -2553.7537 2019.6991 3299.8992 3299.8992 3299.8992 3299.8992 3287.5122 3272.3052 -602.4353 3275.6287 3291.2383 3299.8992 -3277.8442 -3262.5366 -3247.531 -3232.6262 -3217.9229 -3203.3203 -3188.919 -3175.0212 3299.8992 3299.8992 3299.8992 3299.8992 3299.8992 3299.8992 3299.8992 3299.8992 3298.0864 3282.9802 3267.2698 3251.2573 -456.10657 3255.89 3271.4995 3287.21 3299.8992 -3282.074 -3266.9678 -3252.063 -2333.606 2495.0408 3299.8992 3299.8992 3299.8992 3298.59 3283.786 3268.881 -1116.8518 3273.1108 3288.8213 3299.8992 -3280.3618 -3265.0542 -3250.0488 -3235.0432 -3220.4407 -3205.7373 -3191.336 -3148.938 3299.8992 3299.8992 3299.8992 3299.8992 3299.8992 3299.8992 3299.8992 3299.8992 3294.5618 3279.1533 3263.6443 3247.7324 -863.6719 3254.0771 3269.6868 3285.1958 3299.8992 -3284.0881 -3268.982 -3253.6743 -1949.4049 2863.632 3299.8992 3299.8992 3299.8992 3294.8638 3279.959 3264.9536 -2015.9729 3270.996 3286.7065 3299.8992 -3282.7788 -3267.2698 -3252.1636 -3237.1582 -3222.7568 -3207.852 -3193.35 -3042.288 3299.8992 3299.8992 3299.8992 3299.8992 3299.8992 3299.8992 3299.8992 3299.8992 3291.742 3276.7363 3260.9253 3244.7112 -1172.7448 3252.7678 3268.4783 3283.9873 3299.295 
2999.7893 2985.8916 2971.8933 2561.7095 846.6522 -1009.29565 -2775.1099 2979.547 2996.869 3013.9893 3030.8074 3047.525 3064.041 3080.4565 3096.6704 3112.8845 3128.897 3144.8088 3160.7207 3176.532 3192.1416 3207.6506 3222.9583 -1364.4928 2583.8652 3214.096 3199.292 3184.6892 3169.583 3155.3833 3141.0828 3126.6814 3112.2803 3097.7783 3083.2764 3068.875 3054.6753 3040.4753 3026.3762 3012.378 2998.5808 2984.683 2970.1812 2474.5972 771.62476 -1006.1737 -2681.1492 2978.4392 2995.761 3012.68 3029.6997 3046.3164 3062.9333 3079.3486 3095.6633 3111.7766 3127.7893 3143.7012 3159.7136 3175.3235 3191.1345 3206.6436 3221.7498 -1096.2067 2905.0232 3210.974 3196.17 3181.5674 3166.5618 3152.2612 3137.9607 3123.5596 3109.1582 3094.5557 3080.2551 3065.9546 3051.5532 3037.555 3023.4558 3009.4573 2995.761 2981.964 2967.2607 2274.7925 427.6062 -1381.311 -3086.5996 2981.6619 2998.883 3015.9026 3032.721 3049.3376 3065.9546 3082.2693 3098.584 3114.7979 3130.7097 3146.7224 3162.5334 3178.244 3193.9543 3209.4634 3225.0732 -978.3783 2832.7148 3212.9883 3198.285 3183.6821 3168.576 3154.4768 3140.1763 3125.6743 3111.2732 3096.7712 3082.2693 3067.9688 3053.5674 3039.4683 3025.47 3011.4714 2997.5737 2983.676 2969.4763 2187.8813 409.68018 -1405.1788 -3096.9727 2984.2803 3001.5015 3018.521 3035.3394 3051.956 3068.4722 3084.9883 3101.001 3117.2148 3133.2275 3149.24 3164.9504 3180.7617 3196.4722 3212.0818 3227.5908 -670.2118 3227.5908 3212.9883 3198.285 3183.5815 3168.576 3154.3762 3140.0757 3125.6743 3111.1724 3096.6704 3082.1685 3067.868 3053.4668 3039.4683 3025.3691 3011.4714 2997.3723 2983.5754 2968.872 2192.514 421.2616 -1458.7555 -3130.307 2984.683 3001.9043 3018.9238 3035.7422 3052.2583 3068.875 3085.2905 3101.5044 3117.517 3133.731 3149.4414 3165.454 3181.0637 3196.875 3212.2832 3227.3894 -637.2803 3213.0889 3213.2903 3198.587 3183.9844 3168.7773 3154.779 3140.3777 3125.9766 3111.4746 3097.0732 3082.4707 3068.1702 3053.8696 3039.7705 3025.6714 3011.6729 
