wall_time,elapsed_s,F1_N,F2_N
2026-07-21T15:57:29.649,0.0317,5.1562,5.8006
2026-07-21T15:57:29.665,0.0475,5.1758,5.7223
2026-07-21T15:57:29.665,0.0475,4.9604,5.5852
2026-07-21T15:57:29.681,0.0537,5.117,5.7419
2026-07-21T15:57:29.681,0.0537,5.0387,5.6048
2026-07-21T15:57:29.713,0.079,4.9996,5.5265
2026-07-21T15:57:29.713,0.079,4.9996,5.6635
2026-07-21T15:57:29.713,0.079,5.0191,5.6244
2026-07-21T15:57:29.734,0.079,5.0779,5.644
2026-07-21T15:57:29.760,0.1265,5.0975,5.644
2026-07-21T15:57:29.760,0.1265,5.1562,5.5656
2026-07-21T15:57:29.760,0.1265,5.0779,5.6048
2026-07-21T15:57:29.760,0.1265,5.0975,5.5656
2026-07-21T15:57:29.776,0.159,4.9996,5.5852
2026-07-21T15:57:29.792,0.159,5.117,5.5656
2026-07-21T15:57:29.792,0.159,4.9996,5.5656
2026-07-21T15:57:29.807,0.1792,4.9604,5.6048
2026-07-21T15:57:29.807,0.1792,4.98,5.5265
2026-07-21T15:57:29.840,0.2055,5.0583,5.7223
2026-07-21T15:57:29.840,0.2055,5.1562,5.5852
2026-07-21T15:57:29.840,0.2055,5.0583,5.6635
2026-07-21T15:57:29.860,0.2212,4.98,5.5265
2026-07-21T15:57:29.871,0.254,4.8233,5.4677
2026-07-21T15:57:29.886,0.254,4.9996,5.3502
2026-07-21T15:57:29.886,0.254,4.8625,5.4873
2026-07-21T15:57:29.902,0.254,5.0191,5.6048
2026-07-21T15:57:29.902,0.291,5.0975,5.5461
2026-07-21T15:57:29.918,0.291,5.0387,5.6244
2026-07-21T15:57:29.934,0.291,5.0583,5.5461
2026-07-21T15:57:29.935,0.3066,4.9996,5.5656
2026-07-21T15:57:29.972,0.3426,5.0779,5.5265
2026-07-21T15:57:29.972,0.3437,4.9212,5.4482
2026-07-21T15:57:29.972,0.3437,5.0975,5.3698
2026-07-21T15:57:29.972,0.3458,4.7058,5.4677
2026-07-21T15:57:30.004,0.3802,4.8821,5.4873
2026-07-21T15:57:30.004,0.3852,4.9212,5.6048
2026-07-21T15:57:30.004,0.3852,5.0975,5.7614
2026-07-21T15:57:30.023,0.3852,4.98,5.4482
2026-07-21T15:57:30.027,0.3852,4.98,5.6048
2026-07-21T15:57:30.050,0.4167,4.8429,5.4286
2026-07-21T15:57:30.050,0.4167,5.1366,5.4677
2026-07-21T15:57:30.066,0.4167,4.9996,5.4286
2026-07-21T15:57:30.066,0.4325,4.9017,5.5852
2026-07-21T15:57:30.098,0.4641,4.8821,5.5069
2026-07-21T15:57:30.098,0.4641,5.0583,5.6635
2026-07-21T15:57:30.098,0.4641,5.1366,5.5069
2026-07-21T15:57:30.113,0.4641,4.8429,5.5265
2026-07-21T15:57:30.113,0.4959,5.1758,5.5265
2026-07-21T15:57:30.138,0.4959,4.9212,5.4286
2026-07-21T15:57:30.138,0.4959,5.0387,5.4677
2026-07-21T15:57:30.145,0.5117,4.8429,5.3698
2026-07-21T15:57:30.177,0.5446,4.8429,5.5069
2026-07-21T15:57:30.177,0.5446,4.9408,5.6244
2026-07-21T15:57:30.177,0.5446,5.0583,5.7223
2026-07-21T15:57:30.192,0.5541,5.2149,5.4482
2026-07-21T15:57:30.192,0.581,5.0583,5.6048
2026-07-21T15:57:30.209,0.581,4.98,5.5265
2026-07-21T15:57:30.225,0.581,4.8821,5.5852
2026-07-21T15:57:30.235,0.581,4.9212,5.5656
2026-07-21T15:57:30.262,0.6072,4.9996,5.3894
2026-07-21T15:57:30.262,0.623,4.9408,5.4873
2026-07-21T15:57:30.262,0.623,4.7254,5.5461
2026-07-21T15:57:30.272,0.623,4.98,5.5461
2026-07-21T15:57:30.288,0.6544,4.8037,5.6048
2026-07-21T15:57:30.288,0.6544,4.9604,5.5656
2026-07-21T15:57:30.288,0.6544,4.9604,5.3698
2026-07-21T15:57:30.320,0.6857,4.9212,5.5461
2026-07-21T15:57:30.320,0.6857,4.8625,5.3307
2026-07-21T15:57:30.335,0.6857,4.9604,5.6244
2026-07-21T15:57:30.335,0.7014,4.8429,5.4482
2026-07-21T15:57:30.351,0.7334,4.8625,5.4873
2026-07-21T15:57:30.367,0.7334,4.9408,5.4482
2026-07-21T15:57:30.367,0.7334,4.8429,5.5461
2026-07-21T15:57:30.382,0.7334,4.98,5.4482
2026-07-21T15:57:30.398,0.7656,4.98,5.5265
2026-07-21T15:57:30.398,0.7656,4.9604,5.4482
2026-07-21T15:57:30.398,0.7656,4.9604,5.3698
2026-07-21T15:57:30.414,0.7817,4.9408,5.4286
2026-07-21T15:57:30.435,0.8131,4.8625,5.4482
2026-07-21T15:57:30.446,0.8131,5.1366,5.5069
2026-07-21T15:57:30.446,0.8131,4.9996,5.6831
2026-07-21T15:57:30.462,0.8131,5.117,5.6244
2026-07-21T15:57:30.478,0.8445,5.2933,5.4677
2026-07-21T15:57:30.478,0.8445,5.2149,5.8006
2026-07-21T15:57:30.494,0.8546,5.3912,5.644
2026-07-21T15:57:30.494,0.8612,5.5282,5.8985
2026-07-21T15:57:30.510,0.8937,5.6066,6.0552
2026-07-21T15:57:30.525,0.8937,5.8415,6.2118
2026-07-21T15:57:30.535,0.9093,6.1157,6.4664
2026-07-21T15:57:30.542,0.9093,6.4485,7.1517
2026-07-21T15:57:30.542,0.9406,7.0751,7.2692
2026-07-21T15:57:30.573,0.9557,7.2318,7.7391
2026-07-21T15:57:30.573,0.9557,7.7017,8.1699
2026-07-21T15:57:30.575,0.9714,8.2304,8.8944
2026-07-21T15:57:30.590,0.982,9.2486,10.1475
2026-07-21T15:57:30.590,1.0199,9.836,11.714
2026-07-21T15:57:30.621,1.0199,10.8542,13.535
2026-07-21T15:57:30.621,1.0199,11.6374,15.1798
2026-07-21T15:57:30.637,1.0354,12.7731,16.7854
2026-07-21T15:57:30.637,1.0354,13.4584,18.0386
2026-07-21T15:57:30.663,1.0545,14.0459,19.5855
2026-07-21T15:57:30.668,1.0545,14.555,20.5449
2026-07-21T15:57:30.685,1.0838,15.4948,22.0918
2026-07-21T15:57:30.685,1.0838,16.2585,23.3058
2026-07-21T15:57:30.685,1.0838,16.4543,24.324
2026-07-21T15:57:30.701,1.1005,17.0613,25.8709
2026-07-21T15:57:30.716,1.1005,17.7662,27.3786
2026-07-21T15:57:30.716,1.1005,18.3928,28.0443
2026-07-21T15:57:30.732,1.1155,18.5103,28.8667
2026-07-21T15:57:30.749,1.1471,18.9019,29.1409
2026-07-21T15:57:30.749,1.1471,19.1956,29.1605
2026-07-21T15:57:30.765,1.1547,18.9802,29.2975
2026-07-21T15:57:30.765,1.1547,18.9998,29.1996
2026-07-21T15:57:30.781,1.1628,19.3523,29.8849
2026-07-21T15:57:30.796,1.1628,19.3131,29.8849
2026-07-21T15:57:30.813,1.1946,19.3523,29.6891
2026-07-21T15:57:30.813,1.1946,19.2348,29.1017
2026-07-21T15:57:30.813,1.1946,18.9215,28.7101
2026-07-21T15:57:30.836,1.1946,18.7452,27.7115
2026-07-21T15:57:30.844,1.2106,18.5299,27.359
2026-07-21T15:57:30.859,1.2421,18.3341,26.8499
2026-07-21T15:57:30.863,1.2421,18.2557,26.0471
2026-07-21T15:57:30.875,1.2421,18.0208,25.91
2026-07-21T15:57:30.875,1.2547,17.5117,25.3226
2026-07-21T15:57:30.891,1.2577,17.1984,24.2261
2026-07-21T15:57:30.907,1.2968,16.513,23.1492
2026-07-21T15:57:30.907,1.2968,16.0039,21.4652
2026-07-21T15:57:30.923,1.2968,15.299,19.9183
2026-07-21T15:57:30.923,1.3048,14.9857,19.1938
2026-07-21T15:57:30.939,1.3059,14.5941,18.4498
2026-07-21T15:57:30.970,1.3367,14.2221,17.9603
2026-07-21T15:57:30.970,1.3367,13.8109,17.3924
2026-07-21T15:57:30.978,1.355,13.478,16.6875
2026-07-21T15:57:30.986,1.355,12.7731,15.6106
2026-07-21T15:57:30.987,1.3685,12.0095,14.9252
2026-07-21T15:57:31.017,1.4004,11.0696,13.2217
2026-07-21T15:57:31.017,1.4004,10.2276,12.1252
2026-07-21T15:57:31.017,1.4004,9.464,10.872
2026-07-21T15:57:31.036,1.4162,8.7395,9.8147
2026-07-21T15:57:31.036,1.4162,8.2304,9.0118
2026-07-21T15:57:31.049,1.4329,7.643,8.444
2026-07-21T15:57:31.066,1.4636,7.408,8.2678
2026-07-21T15:57:31.066,1.4636,7.1339,8.072
2026-07-21T15:57:31.081,1.4636,7.3101,7.6804
2026-07-21T15:57:31.097,1.4798,6.9968,7.3083
2026-07-21T15:57:31.097,1.4839,6.8401,7.5041
2026-07-21T15:57:31.114,1.4839,6.7422,7.0146
2026-07-21T15:57:31.114,1.5111,6.2723,7.0342
2026-07-21T15:57:31.136,1.5111,6.2527,6.8188
2026-07-21T15:57:31.144,1.527,6.2136,6.9167
2026-07-21T15:57:31.161,1.527,5.9003,6.3489
2026-07-21T15:57:31.165,1.527,5.9982,6.5838
2026-07-21T15:57:31.165,1.5428,5.9982,6.4859
2026-07-21T15:57:31.176,1.5648,5.9786,6.5643
2026-07-21T15:57:31.192,1.5648,6.0765,6.388
2026-07-21T15:57:31.192,1.5764,5.8219,6.251
2026-07-21T15:57:31.208,1.5764,5.7632,6.3097
2026-07-21T15:57:31.224,1.5844,5.6849,6.0552
2026-07-21T15:57:31.244,1.6067,5.7045,6.2118
2026-07-21T15:57:31.244,1.6067,5.587,6.3293
2026-07-21T15:57:31.246,1.6067,6.0178,6.5251
2026-07-21T15:57:31.257,1.6067,6.0765,6.5447
2026-07-21T15:57:31.272,1.6382,5.959,6.7405
2026-07-21T15:57:31.272,1.6382,6.0961,6.3293
2026-07-21T15:57:31.288,1.6539,6.0569,6.3684
2026-07-21T15:57:31.303,1.6845,5.6653,6.2901
2026-07-21T15:57:31.319,1.6845,5.724,6.0552
2026-07-21T15:57:31.319,1.686,5.7045,6.0552
2026-07-21T15:57:31.319,1.686,5.724,6.4468
2026-07-21T15:57:31.336,1.7178,6.0178,6.623
2026-07-21T15:57:31.351,1.7178,5.9786,6.6034
2026-07-21T15:57:31.365,1.7178,6.1157,6.6034
2026-07-21T15:57:31.367,1.7178,5.9199,6.251
2026-07-21T15:57:31.399,1.756,5.587,6.251
2026-07-21T15:57:31.399,1.756,5.9982,6.2314
2026-07-21T15:57:31.399,1.756,5.6457,6.3293
2026-07-21T15:57:31.414,1.785,5.8219,6.3684
2026-07-21T15:57:31.436,1.7965,5.8024,6.623
2026-07-21T15:57:31.436,1.7975,5.959,6.7796
2026-07-21T15:57:31.437,1.7975,5.9003,6.5251
2026-07-21T15:57:31.457,1.8283,5.9003,6.4076
2026-07-21T15:57:31.466,1.8283,5.7828,6.2314
2026-07-21T15:57:31.466,1.8283,5.8024,6.3097
2026-07-21T15:57:31.478,1.8283,5.724,6.3097
2026-07-21T15:57:31.493,1.8612,5.8024,6.4076
2026-07-21T15:57:31.493,1.8612,6.0373,6.4664
2026-07-21T15:57:31.509,1.8758,5.9982,6.858
2026-07-21T15:57:31.509,1.8758,6.2331,6.858
2026-07-21T15:57:31.542,1.908,6.331,7.0146
2026-07-21T15:57:31.542,1.908,6.2919,6.9754
2026-07-21T15:57:31.542,1.9236,6.3115,7.1908
2026-07-21T15:57:31.557,1.9236,6.801,7.3866
2026-07-21T15:57:31.573,1.9555,6.8206,7.7391
2026-07-21T15:57:31.573,1.9555,7.1339,7.9153
2026-07-21T15:57:31.589,1.9712,7.3884,8.0524
2026-07-21T15:57:31.604,1.9712,7.1339,8.3853
2026-07-21T15:57:31.604,1.9712,7.1926,8.4048
2026-07-21T15:57:31.636,2.0036,7.3688,8.7965
2026-07-21T15:57:31.636,2.0036,7.8388,8.8944
2026-07-21T15:57:31.636,2.0036,7.5646,8.8356
2026-07-21T15:57:31.652,2.0036,7.5451,8.6202
2026-07-21T15:57:31.668,2.0354,7.1339,8.3265
2026-07-21T15:57:31.683,2.051,7.2709,8.1895
2026-07-21T15:57:31.684,2.0555,7.173,8.4048
2026-07-21T15:57:31.684,2.0555,6.8793,8.209
2026-07-21T15:57:31.699,2.0555,7.1143,7.9936
2026-07-21T15:57:31.715,2.0864,7.036,8.0524
2026-07-21T15:57:31.716,2.0864,7.0164,7.9153
2026-07-21T15:57:31.736,2.0985,7.0751,7.8762
2026-07-21T15:57:31.736,2.0985,7.0555,7.9153
2026-07-21T15:57:31.767,2.131,6.9772,7.9741
2026-07-21T15:57:31.767,2.131,6.8989,7.5825
2026-07-21T15:57:31.767,2.131,6.7618,7.9349
2026-07-21T15:57:31.779,2.1461,6.8401,7.6216
2026-07-21T15:57:31.795,2.1633,6.8401,7.6608
2026-07-21T15:57:31.795,2.1779,6.8401,7.5433
2026-07-21T15:57:31.812,2.1779,6.9185,7.5237
2026-07-21T15:57:31.812,2.1869,6.9381,7.5629
2026-07-21T15:57:31.827,2.2097,6.6835,7.5433
2026-07-21T15:57:31.844,2.2097,6.7814,7.2496
2026-07-21T15:57:31.844,2.2097,6.7422,7.6412
2026-07-21T15:57:31.868,2.2254,6.7814,7.602
2026-07-21T15:57:31.875,2.257,6.8793,7.4062
2026-07-21T15:57:31.891,2.257,6.9772,7.4062
2026-07-21T15:57:31.891,2.257,6.7422,7.3671
2026-07-21T15:57:31.891,2.257,7.0164,7.3083
2026-07-21T15:57:31.922,2.2884,6.7227,7.1713
2026-07-21T15:57:31.922,2.3041,6.5073,7.0146
2026-07-21T15:57:31.937,2.3041,6.8401,6.8188
2026-07-21T15:57:31.938,2.3041,6.4485,7.1125
2026-07-21T15:57:31.954,2.3041,6.3898,7.0538
2026-07-21T15:57:31.969,2.3366,6.3898,7.0538
2026-07-21T15:57:31.969,2.3366,6.7618,7.1908
2026-07-21T15:57:31.985,2.3366,6.5269,7.0734
2026-07-21T15:57:31.985,2.3516,6.3898,6.9363
2026-07-21T15:57:32.001,2.3683,6.3115,7.0929
2026-07-21T15:57:32.017,2.3839,6.5269,6.995
2026-07-21T15:57:32.017,2.3875,6.6052,6.995
2026-07-21T15:57:32.032,2.3875,6.429,7.2104
2026-07-21T15:57:32.048,2.4154,6.1548,6.8188
2026-07-21T15:57:32.049,2.4154,6.3702,7.1125
2026-07-21T15:57:32.065,2.4154,6.3115,6.9559
2026-07-21T15:57:32.068,2.4312,6.331,6.9363
2026-07-21T15:57:32.096,2.4633,6.4485,7.0929
2026-07-21T15:57:32.096,2.4633,6.7618,7.2104
2026-07-21T15:57:32.096,2.4633,6.7227,6.995
2026-07-21T15:57:32.112,2.4633,6.4485,7.1321
2026-07-21T15:57:32.128,2.4945,6.3702,6.8971
2026-07-21T15:57:32.138,2.5102,6.429,7.0146
2026-07-21T15:57:32.144,2.5102,6.4094,7.2496
2026-07-21T15:57:32.144,2.5102,6.331,6.9754
2026-07-21T15:57:32.169,2.542,6.5073,7.0146
2026-07-21T15:57:32.175,2.542,6.6443,7.1713
2026-07-21T15:57:32.175,2.542,6.7422,7.3083
2026-07-21T15:57:32.191,2.5613,6.8793,7.3475
2026-07-21T15:57:32.207,2.5895,6.7618,7.2496
2026-07-21T15:57:32.223,2.5905,6.3506,7.2692
2026-07-21T15:57:32.223,2.5905,6.6052,7.5041
2026-07-21T15:57:32.239,2.5905,6.6052,7.0734
2026-07-21T15:57:32.243,2.5905,6.6443,7.4062
2026-07-21T15:57:32.254,2.6216,6.8401,7.4062
2026-07-21T15:57:32.254,2.6216,6.8597,7.4258
2026-07-21T15:57:32.271,2.6373,6.7422,7.23
2026-07-21T15:57:32.271,2.6373,6.5464,7.1125
2026-07-21T15:57:32.302,2.6687,6.5856,7.1321
2026-07-21T15:57:32.302,2.6687,6.4485,7.4258
2026-07-21T15:57:32.302,2.6687,6.7618,7.4454
2026-07-21T15:57:32.318,2.689,6.801,7.4062
2026-07-21T15:57:32.350,2.7159,6.8206,7.5041
2026-07-21T15:57:32.350,2.7159,6.7031,7.4062
2026-07-21T15:57:32.350,2.7159,6.801,7.5237
2026-07-21T15:57:32.365,2.7159,6.8597,7.5433
2026-07-21T15:57:32.370,2.7473,6.8206,7.4845
2026-07-21T15:57:32.381,2.7569,6.7618,7.3671
2026-07-21T15:57:32.381,2.7569,6.5073,7.6608
2026-07-21T15:57:32.397,2.7634,6.5269,7.5237
2026-07-21T15:57:32.428,2.7948,6.7814,7.7195
2026-07-21T15:57:32.428,2.7948,6.8597,7.7195
2026-07-21T15:57:32.428,2.7948,7.036,7.7978
2026-07-21T15:57:32.444,2.7948,7.0751,7.8762
2026-07-21T15:57:32.460,2.8273,7.0555,7.8566
2026-07-21T15:57:32.476,2.8273,6.9772,7.9741
2026-07-21T15:57:32.476,2.8423,6.7031,8.0328
2026-07-21T15:57:32.476,2.8423,6.8597,7.9545
2026-07-21T15:57:32.491,2.8423,6.9381,7.7978
2026-07-21T15:57:32.508,2.8827,6.9968,8.1699
2026-07-21T15:57:32.508,2.8833,7.1926,8.1307
2026-07-21T15:57:32.523,2.8899,7.2709,8.3265
2026-07-21T15:57:32.523,2.8924,7.4472,8.1111
2026-07-21T15:57:32.555,2.9228,7.1143,8.4636
2026-07-21T15:57:32.555,2.9228,7.1926,8.0916
2026-07-21T15:57:32.571,2.9228,6.9576,8.1895
2026-07-21T15:57:32.573,2.9228,7.1143,8.2874
2026-07-21T15:57:32.587,2.957,7.1926,8.3657
2026-07-21T15:57:32.587,2.957,7.4276,8.4832
2026-07-21T15:57:32.604,2.9695,7.4472,8.4244
2026-07-21T15:57:32.604,2.9706,7.4667,8.5615
2026-07-21T15:57:32.638,3.0015,7.3492,8.4636
2026-07-21T15:57:32.638,3.0015,7.408,8.5615
2026-07-21T15:57:32.638,3.0015,7.3297,8.4832
2026-07-21T15:57:32.651,3.0173,7.2318,8.5419
2026-07-21T15:57:32.666,3.034,7.3688,8.8356
2026-07-21T15:57:32.682,3.034,7.3492,8.816
2026-07-21T15:57:32.682,3.049,7.5255,8.5811
2026-07-21T15:57:32.682,3.0571,7.3884,8.4244
2026-07-21T15:57:32.698,3.082,7.5059,8.2874
2026-07-21T15:57:32.715,3.082,7.2709,8.0916
2026-07-21T15:57:32.715,3.091,7.1339,8.1111
2026-07-21T15:57:32.730,3.0971,7.173,8.0328
2026-07-21T15:57:32.753,3.1128,7.1143,8.2678
2026-07-21T15:57:32.763,3.1286,7.3297,8.2482
2026-07-21T15:57:32.763,3.1286,7.2709,8.0524
2026-07-21T15:57:32.772,3.1286,7.173,7.9349
2026-07-21T15:57:32.778,3.1446,6.9381,7.602
2026-07-21T15:57:32.794,3.1603,6.9576,7.6216
2026-07-21T15:57:32.794,3.1603,6.7618,7.5041
2026-07-21T15:57:32.809,3.176,6.9381,7.465
2026-07-21T15:57:32.809,3.176,6.9381,7.6608
2026-07-21T15:57:32.841,3.2082,6.7814,7.7391
2026-07-21T15:57:32.841,3.2082,6.8989,7.7391
2026-07-21T15:57:32.841,3.2239,6.6835,7.3866
2026-07-21T15:57:32.857,3.2239,6.5856,7.2887
2026-07-21T15:57:32.873,3.2574,6.5856,7.0342
2026-07-21T15:57:32.889,3.2574,6.3506,7.0538
2026-07-21T15:57:32.889,3.2714,6.2919,6.9363
2026-07-21T15:57:32.905,3.2714,6.4485,6.995
2026-07-21T15:57:32.905,3.2872,6.3898,7.0538
2026-07-21T15:57:32.938,3.319,6.2331,6.8775
2026-07-21T15:57:32.938,3.319,6.1157,6.6817
2026-07-21T15:57:32.938,3.319,5.9982,6.7405
2026-07-21T15:57:32.952,3.319,6.1157,6.5838
2026-07-21T15:57:32.952,3.319,5.8611,6.6817
2026-07-21T15:57:32.984,3.3575,6.2527,6.7796
2026-07-21T15:57:32.984,3.3671,6.1157,6.7405
2026-07-21T15:57:32.984,3.3671,6.0569,6.7013
2026-07-21T15:57:33.000,3.3671,5.9982,6.6426
2026-07-21T15:57:33.000,3.3671,5.8219,6.5643
2026-07-21T15:57:33.015,3.3985,5.724,6.7013
2026-07-21T15:57:33.038,3.3985,5.9786,6.6426
2026-07-21T15:57:33.048,3.3985,6.0961,6.5838
2026-07-21T15:57:33.048,3.4152,6.2527,6.7992
2026-07-21T15:57:33.065,3.446,6.1352,6.5447
2026-07-21T15:57:33.079,3.446,5.8415,6.6426
2026-07-21T15:57:33.079,3.446,5.9199,6.4076
2026-07-21T15:57:33.095,3.4575,5.9003,6.388
2026-07-21T15:57:33.096,3.4616,5.8415,6.5838
2026-07-21T15:57:33.127,3.494,6.0373,6.7209
2026-07-21T15:57:33.127,3.494,6.2331,6.858
2026-07-21T15:57:33.127,3.494,6.0765,6.7405
2026-07-21T15:57:33.142,3.494,6.0569,6.5643
2026-07-21T15:57:33.158,3.5253,5.9199,6.5055
2026-07-21T15:57:33.158,3.5253,5.724,6.4076
2026-07-21T15:57:33.175,3.541,5.8219,6.5643
2026-07-21T15:57:33.175,3.541,6.0373,6.7209
2026-07-21T15:57:33.190,3.5728,6.0765,6.858
2026-07-21T15:57:33.206,3.5728,6.2723,6.7601
2026-07-21T15:57:33.206,3.5728,6.0178,6.7601
2026-07-21T15:57:33.222,3.5927,5.8807,6.4664
2026-07-21T15:57:33.222,3.5927,5.9786,6.5251
2026-07-21T15:57:33.254,3.621,5.8807,6.4468
2026-07-21T15:57:33.254,3.621,5.8611,6.3293
2026-07-21T15:57:33.254,3.621,6.0961,6.4468
2026-07-21T15:57:33.274,3.621,5.9199,6.7601
2026-07-21T15:57:33.285,3.6593,6.1157,6.6622
2026-07-21T15:57:33.285,3.6593,6.0569,6.7601
2026-07-21T15:57:33.302,3.6679,5.8807,6.5447
2026-07-21T15:57:33.317,3.6679,5.959,6.4272
2026-07-21T15:57:33.317,3.6992,5.9199,6.5055
2026-07-21T15:57:33.340,3.6992,5.724,6.4272
2026-07-21T15:57:33.340,3.6992,6.1744,6.5447
2026-07-21T15:57:33.349,3.7306,6.0961,6.7601
2026-07-21T15:57:33.364,3.7306,6.1157,6.7992
2026-07-21T15:57:33.374,3.7306,6.0569,6.4664
2026-07-21T15:57:33.380,3.7464,6.0178,6.5251
2026-07-21T15:57:33.380,3.7621,5.959,6.4076
2026-07-21T15:57:33.411,3.7778,5.8219,6.4664
2026-07-21T15:57:33.411,3.7778,6.0569,6.623
2026-07-21T15:57:33.427,3.7778,5.9982,6.3489
2026-07-21T15:57:33.427,3.8092,6.0373,6.6034
2026-07-21T15:57:33.443,3.8092,5.8807,6.7013
2026-07-21T15:57:33.443,3.8092,5.7828,6.5447
2026-07-21T15:57:33.459,3.8249,5.8024,6.4076
2026-07-21T15:57:33.490,3.8564,5.9786,6.4664
2026-07-21T15:57:33.490,3.8564,5.9199,6.3097
2026-07-21T15:57:33.490,3.8579,6.331,6.4859
2026-07-21T15:57:33.506,3.8579,6.0961,6.5643
2026-07-21T15:57:33.506,3.8939,5.9003,6.5055
2026-07-21T15:57:33.521,3.8939,5.8807,6.3293
2026-07-21T15:57:33.537,3.8939,5.7045,6.251
2026-07-21T15:57:33.539,3.9045,5.8415,6.388
2026-07-21T15:57:33.553,3.9208,5.9982,6.3489
2026-07-21T15:57:33.575,3.9208,5.9003,6.7405
2026-07-21T15:57:33.575,3.9363,6.1157,6.4859
2026-07-21T15:57:33.585,3.9373,5.9786,6.5251
2026-07-21T15:57:33.602,3.969,5.7828,6.2705
2026-07-21T15:57:33.602,3.969,5.6457,6.251
2026-07-21T15:57:33.602,3.969,5.8024,6.1922
2026-07-21T15:57:33.618,4.0012,5.7436,6.4664
2026-07-21T15:57:33.639,4.0012,5.8807,6.5643
2026-07-21T15:57:33.649,4.0012,6.0373,6.4468
2026-07-21T15:57:33.650,4.0012,6.0373,6.623
2026-07-21T15:57:33.665,4.0323,5.9003,6.4272
2026-07-21T15:57:33.682,4.0323,6.1157,6.3097
2026-07-21T15:57:33.682,4.0323,5.724,6.3489
2026-07-21T15:57:33.697,4.0799,5.7828,6.5447
2026-07-21T15:57:33.713,4.0799,5.8219,6.1922
2026-07-21T15:57:33.713,4.0799,5.6849,6.6817
2026-07-21T15:57:33.713,4.0799,5.959,6.388
2026-07-21T15:57:33.729,4.0799,5.8024,6.4272
2026-07-21T15:57:33.745,4.1128,5.8611,6.6817
2026-07-21T15:57:33.745,4.1128,5.8807,6.1531
2026-07-21T15:57:33.761,4.1128,5.8024,6.3489
2026-07-21T15:57:33.794,4.1445,5.8415,6.2705
2026-07-21T15:57:33.794,4.1445,5.9199,6.388
2026-07-21T15:57:33.794,4.1445,5.8219,6.4468
2026-07-21T15:57:33.794,4.1596,5.8219,6.4468
2026-07-21T15:57:33.825,4.1753,5.8024,6.3489
2026-07-21T15:57:33.825,4.1753,5.8415,6.4076
2026-07-21T15:57:33.839,4.1911,5.8611,6.5251
2026-07-21T15:57:33.856,4.2072,6.0373,6.4076
2026-07-21T15:57:33.856,4.2072,6.0569,6.5251
2026-07-21T15:57:33.856,4.2229,5.9199,6.2901
2026-07-21T15:57:33.876,4.239,6.0765,6.3684
2026-07-21T15:57:33.888,4.2548,5.8219,6.3293
2026-07-21T15:57:33.888,4.2548,5.6457,6.4859
2026-07-21T15:57:33.905,4.2583,5.7828,6.4272
2026-07-21T15:57:33.920,4.2952,5.9982,6.3684
2026-07-21T15:57:33.920,4.2952,5.9786,6.4468
2026-07-21T15:57:33.936,4.2952,6.0373,6.4664
2026-07-21T15:57:33.939,4.318,5.9982,6.7796
2026-07-21T15:57:33.952,4.318,5.8611,6.4468
2026-07-21T15:57:33.967,4.3337,5.9199,6.5055
2026-07-21T15:57:33.976,4.3337,5.7045,6.3097
2026-07-21T15:57:33.983,4.3337,5.6653,6.5447
2026-07-21T15:57:33.999,4.3652,5.9982,6.5643
2026-07-21T15:57:33.999,4.3652,6.0961,6.7796
2026-07-21T15:57:34.015,4.3809,6.1744,6.7601
2026-07-21T15:57:34.015,4.3809,5.9982,6.4272
2026-07-21T15:57:34.046,4.4153,5.8611,6.4272
2026-07-21T15:57:34.046,4.4153,5.724,6.4272
2026-07-21T15:57:34.046,4.4153,5.8611,6.3293
2026-07-21T15:57:34.062,4.4153,5.7632,6.4272
2026-07-21T15:57:34.079,4.4572,6.0961,6.858
2026-07-21T15:57:34.079,4.4572,6.2919,6.7796
2026-07-21T15:57:34.096,4.4606,5.9982,6.7601
2026-07-21T15:57:34.096,4.4606,6.0961,6.4859
2026-07-21T15:57:34.117,4.4957,6.1548,6.7405
2026-07-21T15:57:34.127,4.4957,6.1352,6.7209
2026-07-21T15:57:34.137,4.4957,5.9003,6.5251
2026-07-21T15:57:34.141,4.4957,6.1157,6.623
2026-07-21T15:57:34.157,4.5255,6.0569,6.6622
2026-07-21T15:57:34.173,4.5255,6.0765,6.7405
2026-07-21T15:57:34.177,4.54,6.2136,6.6622
2026-07-21T15:57:34.177,4.54,6.3506,6.7209
2026-07-21T15:57:34.206,4.5719,6.429,6.6817
2026-07-21T15:57:34.206,4.5719,6.2919,6.5055
2026-07-21T15:57:34.206,4.5719,6.1744,6.6426
2026-07-21T15:57:34.221,4.5719,6.0961,6.5251
2026-07-21T15:57:34.240,4.6038,6.1548,6.7209
2026-07-21T15:57:34.240,4.6038,6.1744,6.5838
2026-07-21T15:57:34.253,4.6038,6.1352,6.7209
2026-07-21T15:57:34.253,4.6353,6.194,6.7209
2026-07-21T15:57:34.285,4.6353,6.194,6.7796
2026-07-21T15:57:34.285,4.6353,6.2919,6.5643
2026-07-21T15:57:34.285,4.6353,6.1744,6.6426
2026-07-21T15:57:34.300,4.6676,6.194,6.7013
2026-07-21T15:57:34.316,4.6676,6.0961,6.5838
2026-07-21T15:57:34.316,4.6827,6.0961,6.4468
2026-07-21T15:57:34.333,4.7143,5.7632,6.7601
2026-07-21T15:57:34.348,4.7143,6.0569,6.5838
2026-07-21T15:57:34.348,4.7143,6.194,6.3489
2026-07-21T15:57:34.363,4.7143,5.9199,6.6034
2026-07-21T15:57:34.379,4.7457,6.3506,6.6034
2026-07-21T15:57:34.379,4.7457,6.194,6.7796
2026-07-21T15:57:34.395,4.7614,6.3115,6.6622
2026-07-21T15:57:34.395,4.7614,6.194,6.3293
2026-07-21T15:57:34.427,4.7973,5.8611,6.388
2026-07-21T15:57:34.427,4.7973,5.8219,6.4272
2026-07-21T15:57:34.427,4.7973,5.9003,6.4859
2026-07-21T15:57:34.442,4.8094,5.959,6.5251
2026-07-21T15:57:34.458,4.8251,6.0569,6.5447
2026-07-21T15:57:34.474,4.8251,6.1352,6.4468
2026-07-21T15:57:34.474,4.8251,6.0765,6.7992
2026-07-21T15:57:34.478,4.8408,6.3702,6.5838
2026-07-21T15:57:34.490,4.8725,6.2723,6.4468
2026-07-21T15:57:34.506,4.8725,5.9394,6.4859
2026-07-21T15:57:34.506,4.8725,5.7436,6.3293
2026-07-21T15:57:34.522,4.8725,5.8611,6.5447
2026-07-21T15:57:34.539,4.9039,6.0569,6.3489
2026-07-21T15:57:34.540,4.9039,6.0373,6.8971
2026-07-21T15:57:34.553,4.9196,6.2136,6.7013
2026-07-21T15:57:34.553,4.9196,6.194,6.7013
2026-07-21T15:57:34.585,4.9521,6.0373,6.5447
2026-07-21T15:57:34.585,4.9521,5.8024,6.3489
2026-07-21T15:57:34.585,4.9596,5.8807,6.388
2026-07-21T15:57:34.600,4.9672,5.6653,6.5251
2026-07-21T15:57:34.616,4.9985,6.0765,6.7209
2026-07-21T15:57:34.633,4.9996,6.331,6.7405
2026-07-21T15:57:34.633,4.9996,6.0373,6.6817
2026-07-21T15:57:34.640,4.9996,6.2723,6.5251
2026-07-21T15:57:34.648,5.0345,6.0178,6.5838
2026-07-21T15:57:34.665,5.0345,6.0178,6.5251
2026-07-21T15:57:34.665,5.0345,6.0373,6.4859
2026-07-21T15:57:34.680,5.0465,5.9003,6.6622
2026-07-21T15:57:34.713,5.0779,5.6849,6.5055
2026-07-21T15:57:34.713,5.0779,5.9786,6.7601
2026-07-21T15:57:34.715,5.0779,5.959,6.5447
2026-07-21T15:57:34.715,5.0779,6.1548,6.6817
2026-07-21T15:57:34.740,5.1093,6.3898,6.5055
2026-07-21T15:57:34.743,5.1093,5.8611,6.5643
2026-07-21T15:57:34.743,5.1093,5.9394,6.4076
2026-07-21T15:57:34.759,5.1093,5.8024,6.4272
2026-07-21T15:57:34.780,5.1408,5.7436,6.4859
2026-07-21T15:57:34.790,5.1408,6.0178,6.4664
2026-07-21T15:57:34.790,5.1408,6.0961,6.6622
2026-07-21T15:57:34.806,5.1565,6.0373,6.623
2026-07-21T15:57:34.806,5.1727,6.0373,6.6034
2026-07-21T15:57:34.822,5.1884,6.0569,6.5251
2026-07-21T15:57:34.837,5.1884,5.9394,6.3684
2026-07-21T15:57:34.840,5.2197,6.0373,6.4272
2026-07-21T15:57:34.853,5.2197,6.0765,6.2705
2026-07-21T15:57:34.853,5.2197,6.0569,6.5838
2026-07-21T15:57:34.869,5.2512,5.9199,6.6622
2026-07-21T15:57:34.885,5.2512,6.3702,6.7209
2026-07-21T15:57:34.885,5.2598,6.0569,6.4859
2026-07-21T15:57:34.901,5.2598,5.8807,6.5251
2026-07-21T15:57:34.916,5.2826,5.9199,6.2314
2026-07-21T15:57:34.932,5.2826,5.8024,6.5643
2026-07-21T15:57:34.932,5.2826,5.9199,6.4272
2026-07-21T15:57:34.941,5.3144,6.1548,6.4859
2026-07-21T15:57:34.963,5.3144,5.9003,6.8188
2026-07-21T15:57:34.963,5.3302,6.2136,6.6622
2026-07-21T15:57:34.963,5.3302,6.0765,6.6622
2026-07-21T15:57:34.995,5.3616,5.9003,6.6622
2026-07-21T15:57:34.995,5.3616,6.194,6.3684
2026-07-21T15:57:34.995,5.3616,5.959,6.4076
2026-07-21T15:57:35.011,5.3616,5.959,6.4664
2026-07-21T15:57:35.027,5.3931,6.2136,6.5251
2026-07-21T15:57:35.027,5.3931,6.0765,6.8384
2026-07-21T15:57:35.042,5.3997,5.9786,6.6426
2026-07-21T15:57:35.074,5.4245,5.959,6.3097
2026-07-21T15:57:35.074,5.4245,5.8611,6.7405
2026-07-21T15:57:35.074,5.4245,5.959,6.3684
2026-07-21T15:57:35.081,5.4245,5.9982,6.7209
2026-07-21T15:57:35.105,5.4601,6.2723,6.6034
2026-07-21T15:57:35.105,5.4601,6.2331,6.6622
2026-07-21T15:57:35.105,5.4721,6.2527,6.6034
2026-07-21T15:57:35.141,5.5,5.9786,6.5838
2026-07-21T15:57:35.141,5.5035,5.8611,6.4664
2026-07-21T15:57:35.141,5.5035,5.9199,6.5643
2026-07-21T15:57:35.153,5.5035,6.1548,6.4859
2026-07-21T15:57:35.181,5.535,6.1157,6.4859
2026-07-21T15:57:35.181,5.535,6.1157,6.8188
2026-07-21T15:57:35.184,5.535,6.2919,6.6622
2026-07-21T15:57:35.200,5.5695,6.2723,6.6622
2026-07-21T15:57:35.200,5.5695,6.0178,6.4468
2026-07-21T15:57:35.216,5.5695,5.959,6.4468
2026-07-21T15:57:35.216,5.5821,6.0961,6.6426
2026-07-21T15:57:35.250,5.6004,5.9199,6.5251
2026-07-21T15:57:35.250,5.614,6.1744,6.7601
2026-07-21T15:57:35.250,5.614,6.1744,6.9754
2026-07-21T15:57:35.263,5.614,6.3702,6.7209
2026-07-21T15:57:35.281,5.6455,6.3506,6.5055
2026-07-21T15:57:35.281,5.6455,5.9003,6.4272
2026-07-21T15:57:35.295,5.6455,6.0765,6.388
2026-07-21T15:57:35.311,5.6769,5.724,6.4664
2026-07-21T15:57:35.311,5.6769,5.9199,6.5643
2026-07-21T15:57:35.326,5.6769,6.1352,6.5447
2026-07-21T15:57:35.326,5.6769,6.3702,6.858
2026-07-21T15:57:35.358,5.7083,6.2331,6.6817
2026-07-21T15:57:35.358,5.7083,6.194,6.858
2026-07-21T15:57:35.358,5.724,5.9394,6.5055
2026-07-21T15:57:35.373,5.7399,5.9786,6.4076
2026-07-21T15:57:35.389,5.7399,5.9982,6.3489
2026-07-21T15:57:35.389,5.7557,5.7436,6.4859
2026-07-21T15:57:35.405,5.7603,6.0765,6.7013
2026-07-21T15:57:35.413,5.7871,6.1548,6.7796
2026-07-21T15:57:35.421,5.7871,6.2723,7.0342
2026-07-21T15:57:35.436,5.7871,6.2527,6.4272
2026-07-21T15:57:35.441,5.803,5.9199,6.4859
2026-07-21T15:57:35.468,5.8187,5.9786,6.388
2026-07-21T15:57:35.468,5.8187,5.959,6.388
2026-07-21T15:57:35.468,5.8344,6.0765,6.858
2026-07-21T15:57:35.484,5.8663,6.194,6.6034
2026-07-21T15:57:35.499,5.8663,6.1352,6.7405
2026-07-21T15:57:35.499,5.8663,6.1744,6.7209
2026-07-21T15:57:35.515,5.8663,6.1352,6.5447
2026-07-21T15:57:35.532,5.9014,5.7632,6.5055
2026-07-21T15:57:35.541,5.9014,6.0178,6.5055
2026-07-21T15:57:35.547,5.9014,5.9786,6.2901
2026-07-21T15:57:35.547,5.9014,6.1352,6.4664
2026-07-21T15:57:35.579,5.9317,6.2331,6.6622
2026-07-21T15:57:35.579,5.9317,6.0569,6.8384
2026-07-21T15:57:35.582,5.9317,6.194,6.7796
2026-07-21T15:57:35.595,5.9634,6.1744,6.858
2026-07-21T15:57:35.613,5.9634,6.0178,6.623
2026-07-21T15:57:35.613,5.9634,6.2527,6.623
2026-07-21T15:57:35.613,5.9779,6.3506,6.6817
2026-07-21T15:57:35.644,6.0017,5.9199,6.5447
2026-07-21T15:57:35.644,6.0017,6.2527,6.6034
2026-07-21T15:57:35.644,6.0093,6.1157,6.623
2026-07-21T15:57:35.659,6.0429,5.9786,6.7796
2026-07-21T15:57:35.683,6.0429,6.194,6.5838
2026-07-21T15:57:35.683,6.0429,6.194,6.8384
2026-07-21T15:57:35.690,6.073,6.3115,6.7601
2026-07-21T15:57:35.706,6.073,6.2331,6.6034
2026-07-21T15:57:35.706,6.073,6.2527,6.6622
2026-07-21T15:57:35.724,6.073,6.0961,6.7209
2026-07-21T15:57:35.754,6.1044,6.194,6.7992
2026-07-21T15:57:35.754,6.1044,5.959,6.7601
2026-07-21T15:57:35.754,6.1044,6.0178,6.7209
2026-07-21T15:57:35.754,6.1201,6.2919,6.7601
2026-07-21T15:57:35.770,6.1359,6.0373,6.6817
2026-07-21T15:57:35.785,6.1359,6.2136,6.5447
2026-07-21T15:57:35.785,6.1516,6.331,6.8188
2026-07-21T15:57:35.817,6.1684,6.2331,6.6622
2026-07-21T15:57:35.817,6.1684,6.1744,6.6622
2026-07-21T15:57:35.817,6.1839,5.9394,6.6034
2026-07-21T15:57:35.832,6.1839,5.959,6.5643
2026-07-21T15:57:35.849,6.2156,5.9786,6.5838
2026-07-21T15:57:35.849,6.2156,6.1352,6.7405
2026-07-21T15:57:35.865,6.2156,6.3115,6.7601
2026-07-21T15:57:35.883,6.2471,6.3115,6.6034
2026-07-21T15:57:35.883,6.2471,6.1157,6.9559
2026-07-21T15:57:35.896,6.2471,6.2331,6.9363
2026-07-21T15:57:35.912,6.28,6.1352,6.6426
2026-07-21T15:57:35.928,6.28,6.2331,6.6817
2026-07-21T15:57:35.928,6.28,6.0961,6.6622
2026-07-21T15:57:35.928,6.28,6.0961,6.9754
2026-07-21T15:57:35.961,6.3107,6.429,6.7405
2026-07-21T15:57:35.961,6.3107,6.2136,6.7992
2026-07-21T15:57:35.961,6.3107,6.2527,6.7209
2026-07-21T15:57:35.976,6.3421,6.2919,6.8384
2026-07-21T15:57:35.992,6.3421,6.194,6.6817
2026-07-21T15:57:35.992,6.3578,6.194,6.8971
2026-07-21T15:57:36.023,6.374,6.2527,6.6034
2026-07-21T15:57:36.023,6.3897,6.0569,6.7992
2026-07-21T15:57:36.023,6.3897,6.1352,6.7013
2026-07-21T15:57:36.023,6.3897,6.1744,6.5643
2026-07-21T15:57:36.055,6.4213,6.1157,6.7405
2026-07-21T15:57:36.055,6.4213,6.2919,6.4859
2026-07-21T15:57:36.055,6.4213,6.0569,6.6426
2026-07-21T15:57:36.071,6.437,6.1157,6.4076
2026-07-21T15:57:36.102,6.4685,6.0373,6.4076
2026-07-21T15:57:36.102,6.4685,5.9394,6.4076
2026-07-21T15:57:36.102,6.4685,5.8219,6.858
2026-07-21T15:57:36.118,6.4685,6.1157,6.5643
2026-07-21T15:57:36.118,6.5031,5.959,6.623
2026-07-21T15:57:36.142,6.5031,6.1548,6.4664
2026-07-21T15:57:36.142,6.5031,5.959,6.4076
2026-07-21T15:57:36.149,6.5319,5.8807,6.4859
2026-07-21T15:57:36.181,6.5319,6.1157,6.4468
2026-07-21T15:57:36.181,6.5319,6.0961,6.8384
2026-07-21T15:57:36.184,6.5319,6.0569,6.5447
2026-07-21T15:57:36.197,6.5638,5.8415,6.4859
2026-07-21T15:57:36.213,6.5795,5.9003,6.4076
2026-07-21T15:57:36.213,6.5795,6.1744,6.4859
2026-07-21T15:57:36.228,6.5795,6.1157,6.5838
2026-07-21T15:57:36.230,6.6112,6.331,6.6622
2026-07-21T15:57:36.245,6.6112,6.1744,6.7209
2026-07-21T15:57:36.245,6.6112,6.1548,6.5251
2026-07-21T15:57:36.260,6.6112,6.0373,6.5643
2026-07-21T15:57:36.276,6.6578,6.0569,6.3684
2026-07-21T15:57:36.292,6.66,5.9199,6.7013
2026-07-21T15:57:36.292,6.66,6.2331,6.6622
2026-07-21T15:57:36.292,6.6626,6.1352,6.6426
2026-07-21T15:57:36.323,6.6897,6.2919,6.8775
2026-07-21T15:57:36.323,6.6897,6.2136,6.5055
2026-07-21T15:57:36.339,6.7039,6.0178,6.6622
2026-07-21T15:57:36.343,6.7057,6.2331,6.6426
2026-07-21T15:57:36.354,6.7214,6.1744,6.623
2026-07-21T15:57:36.371,6.7371,6.194,6.623
2026-07-21T15:57:36.371,6.7371,6.0178,6.9167
2026-07-21T15:57:36.386,6.7371,6.0765,6.6817
2026-07-21T15:57:36.402,6.7685,6.331,6.7992
2026-07-21T15:57:36.402,6.7756,6.2527,6.7601
2026-07-21T15:57:36.418,6.7756,6.2527,6.5838
2026-07-21T15:57:36.434,6.804,6.2331,6.7405
2026-07-21T15:57:36.434,6.804,6.1157,6.6426
2026-07-21T15:57:36.449,6.804,6.1744,6.6622
2026-07-21T15:57:36.456,6.804,6.1548,6.5643
2026-07-21T15:57:36.466,6.8318,6.1157,6.7405
2026-07-21T15:57:36.485,6.8475,6.1744,6.6426
2026-07-21T15:57:36.485,6.8475,6.1548,6.7601
2026-07-21T15:57:36.497,6.8475,6.5073,6.7992
2026-07-21T15:57:36.513,6.8802,6.2136,6.6817
2026-07-21T15:57:36.513,6.8802,6.3115,6.7796
2026-07-21T15:57:36.528,6.8952,6.194,6.5838
2026-07-21T15:57:36.528,6.8952,6.1352,6.6817
2026-07-21T15:57:36.561,6.9266,6.0765,6.6034
2026-07-21T15:57:36.561,6.9266,6.3702,6.7405
2026-07-21T15:57:36.561,6.9266,6.0765,6.7796
2026-07-21T15:57:36.576,6.9266,6.4681,6.6817
2026-07-21T15:57:36.592,6.9616,6.3506,6.8384
2026-07-21T15:57:36.592,6.9616,6.1744,6.7601
2026-07-21T15:57:36.607,6.9616,6.2919,6.623
2026-07-21T15:57:36.607,6.9742,6.0569,6.623
2026-07-21T15:57:36.642,6.9899,6.1548,6.6622
2026-07-21T15:57:36.642,6.9899,6.2136,6.623
2026-07-21T15:57:36.642,6.9899,6.0961,6.7796
2026-07-21T15:57:36.655,7.0214,6.0765,6.7013
2026-07-21T15:57:36.671,7.0382,6.194,6.7992
2026-07-21T15:57:36.671,7.0382,6.2331,6.8188
2026-07-21T15:57:36.686,7.0382,6.2527,6.6622
2026-07-21T15:57:36.686,7.0699,6.2919,6.6426
2026-07-21T15:57:36.702,7.0699,6.2136,6.8775
2026-07-21T15:57:36.702,7.0699,6.194,6.7013
2026-07-21T15:57:36.719,7.1007,6.1548,6.6817
2026-07-21T15:57:36.750,7.1007,6.194,6.7601
2026-07-21T15:57:36.750,7.1007,6.0569,6.7796
2026-07-21T15:57:36.751,7.1007,6.3506,6.7992
2026-07-21T15:57:36.766,7.1321,6.2331,6.7209
2026-07-21T15:57:36.782,7.1321,6.2331,6.9559
2026-07-21T15:57:36.782,7.1321,6.331,6.7013
2026-07-21T15:57:36.813,7.1637,6.2723,6.6426
2026-07-21T15:57:36.813,7.1637,6.2527,6.7796
2026-07-21T15:57:36.813,7.1637,6.0569,6.6426
2026-07-21T15:57:36.813,7.1967,6.1548,6.7992
2026-07-21T15:57:36.845,7.1967,6.1548,6.7796
2026-07-21T15:57:36.845,7.1967,6.2136,6.7405
2026-07-21T15:57:36.845,7.2269,6.2919,6.623
2026-07-21T15:57:36.878,7.2269,6.1352,7.0342
2026-07-21T15:57:36.878,7.2269,6.3506,6.623
2026-07-21T15:57:36.878,7.2427,6.2723,6.8188
2026-07-21T15:57:36.892,7.262,6.2527,6.7405
2026-07-21T15:57:36.908,7.2741,6.2331,6.7405
2026-07-21T15:57:36.908,7.2741,6.1744,6.7405
2026-07-21T15:57:36.923,7.3058,6.0178,6.7601
2026-07-21T15:57:36.923,7.3058,6.1548,6.8188
2026-07-21T15:57:36.943,7.3058,6.2136,6.7796
2026-07-21T15:57:36.955,7.3058,6.3506,6.7405
2026-07-21T15:57:36.987,7.3375,6.3702,6.6426
2026-07-21T15:57:36.987,7.3375,6.0765,6.7209
2026-07-21T15:57:36.987,7.3375,6.2331,6.6034
2026-07-21T15:57:37.018,7.3689,6.3506,6.6426
2026-07-21T15:57:37.018,7.3689,6.1744,6.9559
2026-07-21T15:57:37.018,7.3689,6.1548,6.6622
2026-07-21T15:57:37.018,7.3689,6.3702,6.7992
2026-07-21T15:57:37.050,7.4007,6.2136,6.9363
2026-07-21T15:57:37.050,7.4007,6.2919,6.7796
2026-07-21T15:57:37.050,7.4164,6.2919,6.858
2026-07-21T15:57:37.082,7.4478,6.2723,6.7209
2026-07-21T15:57:37.082,7.4478,6.2331,6.8384
2026-07-21T15:57:37.082,7.4478,6.1744,6.5838
2026-07-21T15:57:37.097,7.4478,6.3506,6.7013
2026-07-21T15:57:37.113,7.4956,6.2136,6.7405
2026-07-21T15:57:37.113,7.4956,6.0765,6.7992
2026-07-21T15:57:37.129,7.4956,6.3115,6.6426
2026-07-21T15:57:37.129,7.5113,6.2136,6.858
2026-07-21T15:57:37.176,7.5622,6.2331,6.6426
2026-07-21T15:57:37.176,7.5622,6.194,6.7992
2026-07-21T15:57:37.176,7.5622,6.1548,6.9559
2026-07-21T15:57:37.176,7.5622,6.2919,6.6817
2026-07-21T15:57:37.192,7.5739,6.331,6.7601
2026-07-21T15:57:37.192,7.6241,6.0961,7.0146
2026-07-21T15:57:37.208,7.6241,6.331,6.7796
2026-07-21T15:57:37.239,7.6241,6.3506,6.8971
2026-07-21T15:57:37.239,7.6241,6.429,6.9167
2026-07-21T15:57:37.239,7.6241,6.4877,6.7796
2026-07-21T15:57:37.243,7.6375,6.4094,6.9559
2026-07-21T15:57:37.255,7.6375,6.3506,6.9167
2026-07-21T15:57:37.270,7.6846,6.3702,6.9363
2026-07-21T15:57:37.286,7.7003,6.4094,7.0734
2026-07-21T15:57:37.286,7.7003,6.3702,6.9363
2026-07-21T15:57:37.302,7.7003,6.4094,6.995
2026-07-21T15:57:37.305,7.7003,6.5464,7.0146
2026-07-21T15:57:37.318,7.7003,6.5464,6.9754
2026-07-21T15:57:37.318,7.716,6.4485,6.9754
2026-07-21T15:57:37.365,7.7784,6.6248,7.2496
2026-07-21T15:57:37.365,7.7784,6.5464,6.858
2026-07-21T15:57:37.365,7.7784,6.5856,7.1713
2026-07-21T15:57:37.365,7.7784,6.6052,6.8971
2026-07-21T15:57:37.381,7.7942,6.429,7.1713
2026-07-21T15:57:37.381,7.7942,6.6248,7.1321
2026-07-21T15:57:37.397,7.7942,6.6248,7.0734
2026-07-21T15:57:37.406,7.8567,6.6835,7.1321
2026-07-21T15:57:37.413,7.8629,6.4681,7.1125
2026-07-21T15:57:37.443,7.8629,6.7227,7.0146
2026-07-21T15:57:37.443,7.8725,6.4485,7.0734
2026-07-21T15:57:37.443,7.8725,6.5073,6.995
2026-07-21T15:57:37.459,7.8725,6.5269,6.7601
2026-07-21T15:57:37.459,7.8725,6.3702,7.0734
2026-07-21T15:57:37.475,7.8883,6.3702,6.9559
2026-07-21T15:57:37.491,7.8883,6.6248,7.4258
2026-07-21T15:57:37.522,7.9356,6.9381,7.2887
2026-07-21T15:57:37.522,7.9513,6.7618,7.1517
2026-07-21T15:57:37.522,7.9513,6.7814,7.0929
2026-07-21T15:57:37.522,7.9513,6.6052,7.0734
2026-07-21T15:57:37.544,7.9513,6.8401,7.0734
2026-07-21T15:57:37.544,7.963,6.5856,7.1321
2026-07-21T15:57:37.553,7.9671,6.6052,7.1125
2026-07-21T15:57:37.569,7.9671,6.5464,7.0342
2026-07-21T15:57:37.569,7.9671,6.4877,7.1125
2026-07-21T15:57:37.616,8.0301,6.8793,7.3279
2026-07-21T15:57:37.616,8.0301,7.2905,7.8566
2026-07-21T15:57:37.616,8.0301,7.3297,7.7978
2026-07-21T15:57:37.616,8.0301,7.2513,7.6216
2026-07-21T15:57:37.632,8.0478,7.2318,7.5433
2026-07-21T15:57:37.644,8.0478,7.2709,7.465
2026-07-21T15:57:37.648,8.0478,7.0751,7.6608
2026-07-21T15:57:37.648,8.0478,6.9576,7.837
2026-07-21T15:57:37.664,8.1101,7.173,7.7195
2026-07-21T15:57:37.695,8.1101,7.0947,7.6804
2026-07-21T15:57:37.695,8.1101,7.0164,7.5825
2026-07-21T15:57:37.695,8.1101,7.1534,7.4454
2026-07-21T15:57:37.707,8.1265,6.9772,7.5629
2026-07-21T15:57:37.711,8.1265,7.173,7.5629
2026-07-21T15:57:37.729,8.1265,7.036,7.3475
2026-07-21T15:57:37.729,8.1417,6.9185,7.5629
2026-07-21T15:57:37.759,8.2051,6.8401,7.602
2026-07-21T15:57:37.775,8.2051,7.036,7.5041
2026-07-21T15:57:37.775,8.2051,6.9185,7.7195
2026-07-21T15:57:37.775,8.2051,7.1339,7.4062
2026-07-21T15:57:37.791,8.2051,6.9968,7.4258
2026-07-21T15:57:37.791,8.2208,6.8401,7.5041
2026-07-21T15:57:37.807,8.227,6.9968,7.2692
2026-07-21T15:57:37.822,8.227,6.8793,7.4845
2026-07-21T15:57:37.822,8.2683,7.2513,7.4258
2026-07-21T15:57:37.870,8.2841,6.801,7.5825
2026-07-21T15:57:37.871,8.2841,6.8989,7.5825
2026-07-21T15:57:37.871,8.2841,7.173,7.3866
2026-07-21T15:57:37.871,8.2841,6.9381,7.4258
2026-07-21T15:57:37.871,8.2841,6.9381,7.5825
2026-07-21T15:57:37.886,8.2999,6.9772,7.4062
2026-07-21T15:57:37.902,8.2999,7.0164,7.23
2026-07-21T15:57:37.908,8.3157,6.8401,7.4062
2026-07-21T15:57:37.917,8.3637,6.9185,7.2104
2026-07-21T15:57:37.917,8.3637,6.7422,7.5041
2026-07-21T15:57:37.949,8.3637,6.8989,7.5433
2026-07-21T15:57:37.949,8.3637,6.9185,7.3671
2026-07-21T15:57:37.949,8.3793,6.9381,7.6216
2026-07-21T15:57:37.965,8.3793,6.9381,7.3279
2026-07-21T15:57:37.981,8.3793,6.9185,7.4062
2026-07-21T15:57:37.981,8.3793,6.7618,7.3279
2026-07-21T15:57:37.996,8.3793,6.8206,7.2887
2026-07-21T15:57:38.028,8.443,6.7422,7.2496
2026-07-21T15:57:38.045,8.443,6.6639,7.3866
2026-07-21T15:57:38.045,8.443,6.9968,7.4454
2026-07-21T15:57:38.045,8.443,6.8206,7.4062
2026-07-21T15:57:38.045,8.443,6.9381,7.4258
2026-07-21T15:57:38.060,8.4588,7.036,7.2887
2026-07-21T15:57:38.060,8.4639,6.9381,7.2887
2026-07-21T15:57:38.076,8.5064,6.7031,7.2496
2026-07-21T15:57:38.109,8.5064,6.9772,7.1713
2026-07-21T15:57:38.109,8.5222,6.6443,7.3671
2026-07-21T15:57:38.124,8.5222,6.7618,7.6216
2026-07-21T15:57:38.124,8.5284,6.9968,7.23
2026-07-21T15:57:38.124,8.538,6.7814,7.3279
2026-07-21T15:57:38.140,8.538,6.8597,7.5629
2026-07-21T15:57:38.145,8.5602,6.8793,7.3671
2026-07-21T15:57:38.155,8.6169,6.8401,7.3083
2026-07-21T15:57:38.187,8.6169,6.8989,7.1321
2026-07-21T15:57:38.187,8.6169,6.8793,7.1713
2026-07-21T15:57:38.187,8.6169,6.566,7.465
2026-07-21T15:57:38.203,8.6286,7.0164,7.4062
2026-07-21T15:57:38.209,8.6327,6.7618,7.5041
2026-07-21T15:57:38.219,8.6327,6.9576,7.4845
2026-07-21T15:57:38.235,8.6327,6.8989,7.23
2026-07-21T15:57:38.242,8.6327,6.8401,7.3475
2026-07-21T15:57:38.282,8.6956,6.801,7.3083
2026-07-21T15:57:38.282,8.6956,6.7618,7.3083
2026-07-21T15:57:38.298,8.7115,6.8206,7.1713
2026-07-21T15:57:38.298,8.7115,6.6835,7.2887
2026-07-21T15:57:38.298,8.7115,6.7618,7.4258
2026-07-21T15:57:38.298,8.7115,6.801,7.3083
2026-07-21T15:57:38.314,8.7115,7.0555,7.2887
2026-07-21T15:57:38.314,8.7115,6.801,7.4845
2026-07-21T15:57:38.329,8.7288,6.8989,7.3671
2026-07-21T15:57:38.361,8.7748,6.8793,7.1713
2026-07-21T15:57:38.376,8.7906,6.7422,7.2496
2026-07-21T15:57:38.376,8.7906,6.8793,7.1125
2026-07-21T15:57:38.376,8.7906,6.6052,7.4062
2026-07-21T15:57:38.376,8.7906,6.8597,7.3475
2026-07-21T15:57:38.376,8.7906,6.8206,7.23
2026-07-21T15:57:38.392,8.8065,6.8793,7.5041
2026-07-21T15:57:38.410,8.8065,6.6835,7.2692
2026-07-21T15:57:38.424,8.8646,6.801,7.2692
2026-07-21T15:57:38.456,8.8698,6.6443,7.5237
2026-07-21T15:57:38.456,8.8698,6.8597,7.5041
2026-07-21T15:57:38.456,8.8698,6.9381,7.0342
2026-07-21T15:57:38.456,8.8698,6.566,7.4258
2026-07-21T15:57:38.456,8.8698,6.801,7.2887
2026-07-21T15:57:38.471,8.8855,6.8401,7.4062
2026-07-21T15:57:38.487,8.8855,6.8401,7.3866
2026-07-21T15:57:38.487,8.8855,6.9185,7.2104
2026-07-21T15:57:38.519,8.9329,6.8793,7.465
2026-07-21T15:57:38.535,8.9329,6.6052,7.2692
2026-07-21T15:57:38.535,8.9329,6.8989,7.1908
2026-07-21T15:57:38.535,8.9329,6.7031,7.2104
2026-07-21T15:57:38.551,8.9487,6.6835,7.5433
2026-07-21T15:57:38.551,8.9487,6.8206,7.2887
2026-07-21T15:57:38.566,8.9487,6.801,7.4062
2026-07-21T15:57:38.566,8.9645,6.7422,7.2104
2026-07-21T15:57:38.611,9.0118,6.801,7.4062
2026-07-21T15:57:38.614,9.0118,6.7422,7.4845
2026-07-21T15:57:38.614,9.0118,7.0555,7.2104
2026-07-21T15:57:38.614,9.0118,6.9968,7.0146
2026-07-21T15:57:38.630,9.0118,6.6052,7.5041
2026-07-21T15:57:38.630,9.0118,6.8206,7.3083
2026-07-21T15:57:38.645,9.0301,6.6835,7.465
2026-07-21T15:57:38.661,9.0764,6.8989,7.4062
2026-07-21T15:57:38.677,9.0764,6.8793,7.23
2026-07-21T15:57:38.677,9.0764,7.0751,7.3279
2026-07-21T15:57:38.677,9.0764,6.801,7.4062
2026-07-21T15:57:38.693,9.0906,6.8597,7.1713
2026-07-21T15:57:38.711,9.0906,6.7227,7.3279
2026-07-21T15:57:38.711,9.0906,6.7618,7.3475
2026-07-21T15:57:38.724,9.1544,6.6835,7.3671
2026-07-21T15:57:38.756,9.1544,6.7227,7.4062
2026-07-21T15:57:38.756,9.1544,7.173,7.2887
2026-07-21T15:57:38.757,9.1544,6.801,7.3671
2026-07-21T15:57:38.771,9.1649,6.9381,7.3083
2026-07-21T15:57:38.771,9.1649,6.7618,7.1908
2026-07-21T15:57:38.788,9.2025,6.801,7.7391
2026-07-21T15:57:38.804,9.2025,6.6639,7.0734
2026-07-21T15:57:38.819,9.2025,6.6443,7.3671
2026-07-21T15:57:38.819,9.2025,6.566,7.3671
2026-07-21T15:57:38.819,9.2189,7.0164,7.3475
2026-07-21T15:57:38.846,9.2189,6.8793,7.465
2026-07-21T15:57:38.851,9.2651,6.7618,7.3279
2026-07-21T15:57:38.868,9.2651,6.8793,7.4454
2026-07-21T15:57:38.868,9.2651,6.7422,7.4062
2026-07-21T15:57:38.868,9.2651,6.8989,7.1908
2026-07-21T15:57:38.883,9.2808,6.7422,7.1321
2026-07-21T15:57:38.900,9.2808,7.036,7.3475
2026-07-21T15:57:38.912,9.2808,6.5464,7.4845
2026-07-21T15:57:38.915,9.3316,6.8793,7.3083
2026-07-21T15:57:38.946,9.3316,6.7227,7.3671
2026-07-21T15:57:38.946,9.3316,6.8989,7.3671
2026-07-21T15:57:38.946,9.3316,7.036,7.1517
2026-07-21T15:57:38.946,9.3316,6.6639,7.3083
2026-07-21T15:57:38.962,9.3441,6.801,7.1321
2026-07-21T15:57:38.978,9.3761,6.7227,7.2496
2026-07-21T15:57:38.993,9.3761,6.7618,7.3279
2026-07-21T15:57:39.009,9.3761,6.7227,7.2496
2026-07-21T15:57:39.009,9.3761,6.9185,7.3279
2026-07-21T15:57:39.012,9.3919,6.7031,7.3475
2026-07-21T15:57:39.025,9.3919,6.9381,7.2692
2026-07-21T15:57:39.057,9.4392,6.7422,7.2692
2026-07-21T15:57:39.057,9.4392,6.8597,7.3279
2026-07-21T15:57:39.057,9.4392,6.8597,7.0146
2026-07-21T15:57:39.057,9.4392,6.7227,7.2496
2026-07-21T15:57:39.073,9.4392,6.6639,7.3671
2026-07-21T15:57:39.089,9.4865,6.8597,7.3279
2026-07-21T15:57:39.104,9.4865,6.801,7.3279
2026-07-21T15:57:39.104,9.4865,6.8206,7.3866
2026-07-21T15:57:39.120,9.4865,7.0947,7.2496
2026-07-21T15:57:39.120,9.4865,6.7227,7.3671
2026-07-21T15:57:39.136,9.5345,6.7422,7.23
2026-07-21T15:57:39.146,9.5345,6.7031,7.1321
2026-07-21T15:57:39.151,9.5345,6.7422,7.4062
2026-07-21T15:57:39.167,9.5345,6.8206,7.1125
2026-07-21T15:57:39.167,9.5345,6.6248,7.3475
2026-07-21T15:57:39.215,9.5811,6.8597,7.2887
2026-07-21T15:57:39.215,9.5811,6.7814,7.5433
2026-07-21T15:57:39.215,9.5811,6.801,7.3083
2026-07-21T15:57:39.215,9.597,6.7618,7.2887
2026-07-21T15:57:39.231,9.597,6.7422,7.2104
2026-07-21T15:57:39.246,9.6332,6.6639,7.0734
2026-07-21T15:57:39.262,9.6332,6.7618,7.23
2026-07-21T15:57:39.262,9.6444,6.5073,7.3083
2026-07-21T15:57:39.262,9.6444,6.801,7.4454
2026-07-21T15:57:39.278,9.6444,6.8206,7.2104
2026-07-21T15:57:39.314,9.6759,6.6835,7.5041
2026-07-21T15:57:39.314,9.6759,6.8597,7.1321
2026-07-21T15:57:39.314,9.692,6.6835,7.2496
2026-07-21T15:57:39.314,9.692,6.8206,7.3475
2026-07-21T15:57:39.325,9.692,6.7618,7.0538
2026-07-21T15:57:39.357,9.7394,6.7618,7.2496
2026-07-21T15:57:39.357,9.7394,6.6835,7.2496
2026-07-21T15:57:39.357,9.7394,6.7618,7.5041
2026-07-21T15:57:39.357,9.7394,6.6639,7.3279
2026-07-21T15:57:39.373,9.7553,6.801,7.465
2026-07-21T15:57:39.415,9.8026,6.8989,7.0734
2026-07-21T15:57:39.415,9.8026,6.6835,7.23
2026-07-21T15:57:39.415,9.8026,6.6443,7.1321
2026-07-21T15:57:39.420,9.8026,6.6639,7.1908
2026-07-21T15:57:39.420,9.8026,6.6835,7.3279
2026-07-21T15:57:39.436,9.8184,6.6443,7.1713
2026-07-21T15:57:39.468,9.8658,6.7227,7.2887
2026-07-21T15:57:39.468,9.8658,6.8793,7.2692
2026-07-21T15:57:39.468,9.8658,6.8989,7.3083
2026-07-21T15:57:39.468,9.8658,6.6835,7.2496
2026-07-21T15:57:39.499,9.8814,6.7814,7.2104
2026-07-21T15:57:39.499,9.8814,6.801,7.0734
2026-07-21T15:57:39.499,9.9288,6.6052,7.1713
2026-07-21T15:57:39.547,9.935,6.6248,7.1517
2026-07-21T15:57:39.547,9.935,6.5269,7.2887
2026-07-21T15:57:39.547,9.935,6.9381,7.3083
2026-07-21T15:57:39.547,9.935,6.7618,7.1517
2026-07-21T15:57:39.547,9.9446,6.9381,7.2692
2026-07-21T15:57:39.562,9.9446,6.6835,7.0734
2026-07-21T15:57:39.578,9.9919,6.7814,7.5041
2026-07-21T15:57:39.594,9.9919,6.6052,7.1321
2026-07-21T15:57:39.610,9.9919,6.9185,7.1125
2026-07-21T15:57:39.610,9.9919,6.7031,7.1517
2026-07-21T15:57:39.616,10.0077,6.5269,7.1125
2026-07-21T15:57:39.625,10.0077,6.7814,7.1908
2026-07-21T15:57:39.647,10.0553,6.7227,7.3279
2026-07-21T15:57:39.657,10.0553,6.8401,7.2496
2026-07-21T15:57:39.657,10.0553,6.7618,7.1125
2026-07-21T15:57:39.673,10.0553,6.7618,7.2887
2026-07-21T15:57:39.673,10.0661,6.6835,7.3475
2026-07-21T15:57:39.688,10.0712,6.7422,7.1321
2026-07-21T15:57:39.688,10.105,6.5856,7.3083
2026-07-21T15:57:39.704,10.105,6.6443,7.2887
2026-07-21T15:57:39.720,10.105,6.7814,7.2104
2026-07-21T15:57:39.720,10.105,6.7031,7.2692
2026-07-21T15:57:39.736,10.1194,6.8793,7.0929
2026-07-21T15:57:39.752,10.1194,6.7031,7.5237
2026-07-21T15:57:39.753,10.1194,6.8989,7.2496
2026-07-21T15:57:39.768,10.1675,6.6443,6.9754
2026-07-21T15:57:39.786,10.1675,6.6639,7.23
2026-07-21T15:57:39.786,10.1675,6.5464,7.3083
2026-07-21T15:57:39.800,10.1675,6.7031,7.2887
2026-07-21T15:57:39.800,10.1675,6.7227,7.3866
2026-07-21T15:57:39.834,10.2162,6.8206,7.1517
2026-07-21T15:57:39.834,10.2162,6.8597,7.3671
2026-07-21T15:57:39.834,10.2162,6.6248,7.2496
2026-07-21T15:57:39.848,10.2162,6.7422,7.0929
2026-07-21T15:57:39.864,10.2307,6.6443,7.3866
2026-07-21T15:57:39.880,10.2665,6.7422,7.1713
2026-07-21T15:57:39.897,10.2665,6.6248,7.0734
2026-07-21T15:57:39.897,10.2665,6.7422,7.2887
2026-07-21T15:57:39.897,10.2665,7.0164,7.3279
2026-07-21T15:57:39.912,10.2781,6.9576,7.3083
2026-07-21T15:57:39.917,10.2781,6.6835,7.3475
2026-07-21T15:57:39.943,10.3256,6.7422,7.3671
2026-07-21T15:57:39.947,10.3329,6.6835,7.0538
2026-07-21T15:57:39.947,10.3369,6.5856,7.1125
2026-07-21T15:57:39.959,10.3413,6.8401,7.0342
2026-07-21T15:57:39.959,10.3732,6.566,7.5629
2026-07-21T15:57:39.985,10.3899,6.7422,7.2692
2026-07-21T15:57:40.006,10.3942,6.7618,7.1713
2026-07-21T15:57:40.006,10.3942,6.9772,7.2692
2026-07-21T15:57:40.006,10.4013,6.6835,7.2887
2026-07-21T15:57:40.022,10.4047,6.7227,7.2887
2026-07-21T15:57:40.026,10.4047,6.6639,7.3279
2026-07-21T15:57:40.054,10.4612,6.7618,7.0929
2026-07-21T15:57:40.054,10.4612,6.8401,7.1125
2026-07-21T15:57:40.054,10.4612,6.5073,7.2887
2026-07-21T15:57:40.071,10.4671,6.801,7.1713
2026-07-21T15:57:40.086,10.4768,6.7031,7.4062
2026-07-21T15:57:40.094,10.4788,6.8206,7.23
2026-07-21T15:57:40.133,10.5163,6.7814,7.0929
2026-07-21T15:57:40.133,10.5163,6.7227,7.4454
2026-07-21T15:57:40.133,10.5163,6.801,7.0342
2026-07-21T15:57:40.133,10.5163,6.7227,7.0929
2026-07-21T15:57:40.142,10.5163,6.566,7.1908
2026-07-21T15:57:40.148,10.5328,6.6248,7.23
2026-07-21T15:57:40.164,10.5377,6.8793,7.2692
2026-07-21T15:57:40.164,10.5773,6.7814,7.2496
2026-07-21T15:57:40.197,10.5845,6.8989,7.1125
2026-07-21T15:57:40.197,10.5845,6.7227,7.2496
2026-07-21T15:57:40.197,10.5913,6.7031,7.23
2026-07-21T15:57:40.197,10.593,6.7422,6.9559
2026-07-21T15:57:40.219,10.593,6.6835,7.1125
2026-07-21T15:57:40.258,10.6439,6.5269,7.1713
2026-07-21T15:57:40.258,10.6556,6.6248,7.3279
2026-07-21T15:57:40.258,10.6556,6.6835,7.3866
2026-07-21T15:57:40.258,10.6556,6.8401,7.2496
2026-07-21T15:57:40.274,10.6556,6.801,7.1125
2026-07-21T15:57:40.282,10.6649,6.6052,7.2692
2026-07-21T15:57:40.325,10.7081,6.7227,7.0929
2026-07-21T15:57:40.325,10.7081,6.6443,7.1321
2026-07-21T15:57:40.325,10.7081,6.7227,7.1713
2026-07-21T15:57:40.325,10.7081,6.6052,7.1321
2026-07-21T15:57:40.325,10.7186,6.6835,7.3083
2026-07-21T15:57:40.336,10.7218,6.8793,7.1908
2026-07-21T15:57:40.348,10.7342,6.7031,7.2887
2026-07-21T15:57:40.384,10.7677,6.7618,7.1908
2026-07-21T15:57:40.384,10.7677,6.8597,7.1321
2026-07-21T15:57:40.384,10.7814,6.7227,7.1125
2026-07-21T15:57:40.389,10.7814,6.5073,7.2496
2026-07-21T15:57:40.403,10.7814,6.6835,7.1517
2026-07-21T15:57:40.403,10.7814,6.429,7.2887
2026-07-21T15:57:40.415,10.8386,6.7814,7.2496
2026-07-21T15:57:40.431,10.8386,6.7814,7.1908
2026-07-21T15:57:40.431,10.8386,6.6835,7.2692
2026-07-21T15:57:40.449,10.8447,6.8401,7.0929
2026-07-21T15:57:40.449,10.8447,6.7227,7.2692
2026-07-21T15:57:40.462,10.8447,6.7422,7.2104
2026-07-21T15:57:40.480,10.8571,6.6835,7.1908
2026-07-21T15:57:40.494,10.8917,6.6639,7.1321
2026-07-21T15:57:40.494,10.8917,6.429,7.23
2026-07-21T15:57:40.510,10.8917,6.6835,7.2692
2026-07-21T15:57:40.519,10.8917,6.6639,7.2496
2026-07-21T15:57:40.525,10.9117,6.801,7.2692
2026-07-21T15:57:40.541,10.9164,6.8206,7.0342
2026-07-21T15:57:40.553,10.9531,6.801,7.2496
2026-07-21T15:57:40.557,10.9548,6.6835,7.1125
2026-07-21T15:57:40.557,10.9576,6.6835,7.1908
2026-07-21T15:57:40.573,10.9576,6.6443,7.2104
2026-07-21T15:57:40.588,10.9576,6.5464,7.1125
2026-07-21T15:57:40.597,10.9709,6.6835,7.2887
2026-07-21T15:57:40.604,11.0099,6.5856,7.1713
2026-07-21T15:57:40.621,11.0099,6.9185,7.1517
2026-07-21T15:57:40.621,11.0099,6.6835,7.23
2026-07-21T15:57:40.638,11.0181,6.7618,7.2692
2026-07-21T15:57:40.652,11.0226,6.7618,6.995
2026-07-21T15:57:40.667,11.0496,6.6835,7.0929
2026-07-21T15:57:40.683,11.0642,6.6248,7.0929
2026-07-21T15:57:40.683,11.0642,6.5269,7.2692
2026-07-21T15:57:40.691,11.0657,6.801,7.23
2026-07-21T15:57:40.699,11.0703,6.7814,7.4258
2026-07-21T15:57:40.703,11.0737,6.8206,7.2104
2026-07-21T15:57:40.722,11.0972,6.6639,7.23
2026-07-21T15:57:40.730,11.0972,6.7227,7.4845
2026-07-21T15:57:40.730,11.113,6.6639,7.1125
2026-07-21T15:57:40.751,11.113,6.801,7.1125
2026-07-21T15:57:40.768,11.1446,6.6052,7.0734
2026-07-21T15:57:40.778,11.161,6.6639,7.4845
2026-07-21T15:57:40.778,11.164,6.7814,7.1713
2026-07-21T15:57:40.778,11.1681,6.7227,7.3671
2026-07-21T15:57:40.794,11.1681,6.7814,7.2887
2026-07-21T15:57:40.812,11.2119,6.7814,7.3671
2026-07-21T15:57:40.825,11.2119,6.6835,7.2692
2026-07-21T15:57:40.825,11.2119,6.7814,7.2496
2026-07-21T15:57:40.842,11.2119,6.7031,7.1321
2026-07-21T15:57:40.849,11.2259,6.4485,7.3083
2026-07-21T15:57:40.858,11.2292,6.7618,7.2887
2026-07-21T15:57:40.889,11.2683,6.8206,7.0734
2026-07-21T15:57:40.889,11.2712,6.6639,7.2692
2026-07-21T15:57:40.889,11.2712,6.8206,7.1125
2026-07-21T15:57:40.893,11.2766,6.7422,7.3083
2026-07-21T15:57:40.910,11.2766,6.7227,7.23
2026-07-21T15:57:40.921,11.3149,6.7618,7.1713
2026-07-21T15:57:40.936,11.319,6.5856,7.3475
2026-07-21T15:57:40.936,11.319,6.5464,7.1908
2026-07-21T15:57:40.949,11.319,6.6443,7.1517
2026-07-21T15:57:40.957,11.3319,6.6835,7.3475
2026-07-21T15:57:40.984,11.3685,6.801,7.23
2026-07-21T15:57:40.984,11.3709,6.8206,7.0734
2026-07-21T15:57:40.984,11.3709,6.801,7.3475
2026-07-21T15:57:41.000,11.3709,6.7227,7.0929
2026-07-21T15:57:41.013,11.3709,6.5856,7.3279
2026-07-21T15:57:41.031,11.4147,6.7814,7.1517
2026-07-21T15:57:41.031,11.4147,6.5856,7.3083
2026-07-21T15:57:41.031,11.4147,6.6443,7.2692
2026-07-21T15:57:41.052,11.4147,6.7227,7.2104
2026-07-21T15:57:41.052,11.4147,6.7422,7.4258
2026-07-21T15:57:41.079,11.4613,6.7422,7.1908
2026-07-21T15:57:41.079,11.4613,6.7422,7.1517
2026-07-21T15:57:41.079,11.4613,6.8793,7.0538
2026-07-21T15:57:41.095,11.4687,6.9185,7.0146
2026-07-21T15:57:41.110,11.4687,6.6443,7.2692
2026-07-21T15:57:41.121,11.4922,6.5073,7.2104
2026-07-21T15:57:41.126,11.5078,6.7227,7.3083
2026-07-21T15:57:41.126,11.5078,6.8989,7.2887
2026-07-21T15:57:41.150,11.5078,6.7031,7.2887
2026-07-21T15:57:41.158,11.5078,6.8401,7.1125
2026-07-21T15:57:41.173,11.549,6.7422,7.3083
2026-07-21T15:57:41.173,11.549,6.7031,7.0538
2026-07-21T15:57:41.189,11.5579,6.6639,6.995
2026-07-21T15:57:41.189,11.5614,6.6639,7.23
2026-07-21T15:57:41.222,11.5896,6.5073,7.23
2026-07-21T15:57:41.222,11.5896,6.7618,7.2496
2026-07-21T15:57:41.230,11.5896,6.7422,7.4454
2026-07-21T15:57:41.244,11.5896,6.8206,7.23
2026-07-21T15:57:41.252,11.6184,6.7814,7.2496
2026-07-21T15:57:41.268,11.6385,6.6639,7.23
2026-07-21T15:57:41.270,11.644,6.6639,6.995
2026-07-21T15:57:41.284,11.6502,6.6443,7.2104
2026-07-21T15:57:41.296,11.669,6.566,7.2692
2026-07-21T15:57:41.299,11.6822,6.6248,7.1713
2026-07-21T15:57:41.299,11.6841,6.7031,7.2496
2026-07-21T15:57:41.325,11.6916,6.6835,7.2692
2026-07-21T15:57:41.331,11.6916,7.173,7.1713
2026-07-21T15:57:41.350,11.7248,6.7031,7.3279
2026-07-21T15:57:41.350,11.7248,6.7227,7.2692
2026-07-21T15:57:41.350,11.73,6.6835,6.8775
2026-07-21T15:57:41.372,11.73,6.4094,7.2496
2026-07-21T15:57:41.379,11.7659,6.5856,7.1908
2026-07-21T15:57:41.379,11.7688,6.5464,7.4062
2026-07-21T15:57:41.395,11.7688,6.7227,7.2692
2026-07-21T15:57:41.411,11.7784,6.7227,7.2104
2026-07-21T15:57:41.411,11.8093,6.801,7.3475
2026-07-21T15:57:41.443,11.8093,6.6248,7.1908
2026-07-21T15:57:41.443,11.8093,6.6835,7.3083
2026-07-21T15:57:41.450,11.8093,6.6835,7.0929
2026-07-21T15:57:41.459,11.8253,6.7814,7.1517
2026-07-21T15:57:41.459,11.8253,6.566,7.0929
2026-07-21T15:57:41.490,11.8569,6.8597,7.2887
2026-07-21T15:57:41.490,11.8569,6.7618,7.2887
2026-07-21T15:57:41.490,11.8691,6.6835,7.3671
2026-07-21T15:57:41.506,11.8728,6.7618,7.2692
2026-07-21T15:57:41.524,11.9046,6.7422,7.0929
2026-07-21T15:57:41.538,11.9046,6.6639,7.2887
2026-07-21T15:57:41.538,11.9046,6.6052,7.0146
2026-07-21T15:57:41.554,11.9118,6.6248,7.1908
2026-07-21T15:57:41.554,11.9152,6.4681,7.3475
2026-07-21T15:57:41.569,11.9431,6.7422,7.2887
2026-07-21T15:57:41.569,11.9431,6.7422,7.1713
2026-07-21T15:57:41.585,11.9431,6.9576,7.2496
2026-07-21T15:57:41.601,11.9829,7.036,7.1321
2026-07-21T15:57:41.617,11.9839,6.7814,7.2496
2026-07-21T15:57:41.617,11.9839,6.6248,7.0929
2026-07-21T15:57:41.633,11.9839,6.6835,7.0342
2026-07-21T15:57:41.650,12.0154,6.7227,7.2104
2026-07-21T15:57:41.650,12.0154,6.429,7.2104
2026-07-21T15:57:41.650,12.0154,6.8597,7.2104
2026-07-21T15:57:41.665,12.0271,6.6052,7.2692
2026-07-21T15:57:41.681,12.047,6.8206,7.23
2026-07-21T15:57:41.696,12.0584,6.8597,7.2104
2026-07-21T15:57:41.696,12.0628,6.5856,7.3279
2026-07-21T15:57:41.712,12.0693,6.7422,6.9754
2026-07-21T15:57:41.728,12.0969,6.6835,7.1517
2026-07-21T15:57:41.728,12.0969,6.5464,7.1713
2026-07-21T15:57:41.744,12.0969,6.566,7.1713
2026-07-21T15:57:41.750,12.1048,6.7618,7.2496
2026-07-21T15:57:41.773,12.1339,6.6248,7.1908
2026-07-21T15:57:41.773,12.1339,6.7814,7.1908
2026-07-21T15:57:41.778,12.1339,6.6835,7.2104
2026-07-21T15:57:41.786,12.1437,6.9576,7.23
2026-07-21T15:57:41.807,12.1717,6.6835,6.9559
2026-07-21T15:57:41.807,12.1734,6.6248,7.1321
2026-07-21T15:57:41.815,12.1734,6.6248,7.0734
2026-07-21T15:57:41.838,12.208,6.5269,7.2887
2026-07-21T15:57:41.840,12.208,6.6835,7.2496
2026-07-21T15:57:41.852,12.208,6.7618,7.2104
2026-07-21T15:57:41.860,12.2172,6.8206,7.1517
2026-07-21T15:57:41.887,12.2516,6.566,7.3671
2026-07-21T15:57:41.887,12.253,6.6835,7.1517
2026-07-21T15:57:41.889,12.2557,6.6639,7.1125
2026-07-21T15:57:41.901,12.2557,6.7031,7.1125
2026-07-21T15:57:41.913,12.2835,6.566,7.1908
2026-07-21T15:57:41.925,12.2835,6.5269,7.2692
2026-07-21T15:57:41.932,12.2835,6.6639,7.2496
2026-07-21T15:57:41.942,12.2835,6.7422,7.3866
2026-07-21T15:57:41.964,12.3148,6.7422,7.1321
2026-07-21T15:57:41.964,12.3148,6.7422,7.0929
2026-07-21T15:57:41.964,12.3148,6.7031,7.1125
2026-07-21T15:57:41.980,12.3623,6.566,7.0538
2026-07-21T15:57:41.996,12.3644,6.6835,7.0929
2026-07-21T15:57:41.996,12.3644,6.4681,7.2496
2026-07-21T15:57:42.014,12.3739,6.9576,7.1908
2026-07-21T15:57:42.027,12.3938,6.7422,7.0734
2026-07-21T15:57:42.027,12.3938,6.7227,7.3083
2026-07-21T15:57:42.027,12.4095,6.7618,7.0929
2026-07-21T15:57:42.055,12.4122,6.6835,7.2496
2026-07-21T15:57:42.061,12.4446,6.7031,7.1321
2026-07-21T15:57:42.075,12.4479,6.6835,7.0146
2026-07-21T15:57:42.075,12.4479,6.7422,7.1517
2026-07-21T15:57:42.090,12.4543,6.429,7.1713
2026-07-21T15:57:42.106,12.4881,6.8989,7.2887
2026-07-21T15:57:42.123,12.4901,6.6248,7.23
2026-07-21T15:57:42.123,12.4901,6.9185,7.2496
2026-07-21T15:57:42.129,12.4901,6.801,7.0146
2026-07-21T15:57:42.138,12.5194,6.6052,7.1517
2026-07-21T15:57:42.151,12.5194,6.6835,7.0538
2026-07-21T15:57:42.153,12.5194,6.5856,7.0734
2026-07-21T15:57:42.171,12.534,6.6835,7.4062
2026-07-21T15:57:42.178,12.5382,6.566,7.0929
2026-07-21T15:57:42.200,12.57,6.6639,7.3866
2026-07-21T15:57:42.200,12.57,6.6443,7.2496
2026-07-21T15:57:42.216,12.5755,6.7031,7.4062
2026-07-21T15:57:42.219,12.583,6.801,7.1713
2026-07-21T15:57:42.236,12.6138,6.6835,7.1321
2026-07-21T15:57:42.236,12.6148,6.7227,6.9754
2026-07-21T15:57:42.251,12.6197,6.5464,7.0929
2026-07-21T15:57:42.256,12.6197,6.6052,7.1517
2026-07-21T15:57:42.287,12.6565,6.5464,7.1713
2026-07-21T15:57:42.287,12.6565,6.801,7.5433
2026-07-21T15:57:42.287,12.6565,6.7031,7.1517
2026-07-21T15:57:42.301,12.6621,6.7031,7.1713
2026-07-21T15:57:42.309,12.6937,6.7618,7.2496
2026-07-21T15:57:42.330,12.6937,6.6443,7.2104
2026-07-21T15:57:42.330,12.6937,6.6443,7.0929
2026-07-21T15:57:42.343,12.7014,6.7422,7.0146
2026-07-21T15:57:42.351,12.7256,6.5464,7.1713
2026-07-21T15:57:42.359,12.7256,6.4485,7.1517
2026-07-21T15:57:42.359,12.7256,6.7618,7.1713
2026-07-21T15:57:42.382,12.7413,6.6443,7.2692
2026-07-21T15:57:42.406,12.7727,6.7618,7.1125
2026-07-21T15:57:42.406,12.7727,6.7227,7.0929
2026-07-21T15:57:42.406,12.7727,6.6443,7.2104
2026-07-21T15:57:42.422,12.7727,6.7031,7.23
2026-07-21T15:57:42.427,12.8043,6.5464,7.1713
2026-07-21T15:57:42.451,12.8201,6.566,7.2692
2026-07-21T15:57:42.454,12.8223,6.6835,7.2692
2026-07-21T15:57:42.454,12.8241,6.7618,7.2496
2026-07-21T15:57:42.469,12.8515,6.7618,7.0734
2026-07-21T15:57:42.485,12.8515,6.8401,7.1908
2026-07-21T15:57:42.485,12.8515,6.8401,7.2104
2026-07-21T15:57:42.505,12.8675,6.7227,7.1517
2026-07-21T15:57:42.511,12.8704,6.7422,6.9363
2026-07-21T15:57:42.532,12.8991,6.5269,7.1321
2026-07-21T15:57:42.532,12.8991,6.5269,7.2496
2026-07-21T15:57:42.532,12.8991,6.7031,7.23
2026-07-21T15:57:42.551,12.8991,6.7618,7.465
2026-07-21T15:57:42.566,12.9537,6.7227,7.0929
2026-07-21T15:57:42.580,12.9537,6.7422,7.1908
2026-07-21T15:57:42.580,12.9537,6.801,7.0734
2026-07-21T15:57:42.580,12.9646,6.7031,7.1321
2026-07-21T15:57:42.596,12.9706,6.6052,7.0538
2026-07-21T15:57:42.616,13.0002,6.6052,7.1713
2026-07-21T15:57:42.628,13.0002,6.6443,7.1908
2026-07-21T15:57:42.628,13.0002,6.5856,7.3671
2026-07-21T15:57:42.645,13.0094,6.8206,7.2692
2026-07-21T15:57:42.649,13.0094,6.7031,7.3083
2026-07-21T15:57:42.675,13.0491,6.8793,7.23
2026-07-21T15:57:42.675,13.0491,6.6835,7.0342
2026-07-21T15:57:42.681,13.0491,6.566,7.1908
2026-07-21T15:57:42.690,13.0567,6.6835,6.9754
2026-07-21T15:57:42.722,13.1028,6.5464,7.1517
2026-07-21T15:57:42.722,13.1038,6.6052,7.23
2026-07-21T15:57:42.722,13.1049,6.8597,7.1908
2026-07-21T15:57:42.730,13.109,6.8793,7.23
2026-07-21T15:57:42.738,13.109,6.6443,7.3279
2026-07-21T15:57:42.753,13.1627,6.7618,7.2692
2026-07-21T15:57:42.769,13.1671,6.7227,7.1125
2026-07-21T15:57:42.778,13.1707,6.6639,7.1125
2026-07-21T15:57:42.784,13.1734,6.7031,6.995
2026-07-21T15:57:42.790,13.1734,6.3898,7.2104
2026-07-21T15:57:42.801,13.1843,6.8597,7.1713
2026-07-21T15:57:42.832,13.2311,6.6443,7.2692
2026-07-21T15:57:42.832,13.2311,6.801,7.2692
2026-07-21T15:57:42.832,13.2311,6.7618,7.0146
2026-07-21T15:57:42.843,13.2311,6.6052,7.2887
2026-07-21T15:57:42.852,13.2385,6.6639,7.1321
2026-07-21T15:57:42.864,13.2479,6.6443,7.0929
2026-07-21T15:57:42.865,13.2479,6.566,7.1908
2026-07-21T15:57:42.880,13.2931,6.566,7.1321
2026-07-21T15:57:42.895,13.2931,6.7227,7.2496
2026-07-21T15:57:42.895,13.2931,6.7031,7.1517
2026-07-21T15:57:42.912,13.3023,6.6835,7.1125
2026-07-21T15:57:42.919,13.3045,6.7227,7.1908
2026-07-21T15:57:42.929,13.3112,6.6835,7.2104
2026-07-21T15:57:42.951,13.3566,6.7227,6.995
2026-07-21T15:57:42.958,13.3566,6.5269,7.0929
2026-07-21T15:57:42.958,13.3566,6.6052,7.1125
2026-07-21T15:57:42.958,13.3566,6.4485,7.2692
2026-07-21T15:57:42.985,13.3667,6.7814,7.3475
2026-07-21T15:57:42.992,13.3726,6.7422,7.1908
2026-07-21T15:57:43.006,13.4142,6.6835,7.2887
2026-07-21T15:57:43.029,13.42,6.7227,7.1321
2026-07-21T15:57:43.029,13.42,6.6639,7.2104
2026-07-21T15:57:43.029,13.42,6.6639,7.23
2026-07-21T15:57:43.044,13.42,6.6639,7.1125
2026-07-21T15:57:43.053,13.436,6.5856,7.2887
2026-07-21T15:57:43.053,13.436,6.5464,7.1713
2026-07-21T15:57:43.085,13.4802,6.7227,7.3475
2026-07-21T15:57:43.085,13.4832,6.6443,7.1517
2026-07-21T15:57:43.085,13.4832,6.801,7.3279
2026-07-21T15:57:43.101,13.4929,6.7227,7.0929
2026-07-21T15:57:43.101,13.4991,6.5269,7.2692
2026-07-21T15:57:43.117,13.5062,6.6835,6.995
2026-07-21T15:57:43.152,13.549,6.5073,7.4062
2026-07-21T15:57:43.152,13.549,6.6443,7.2692
2026-07-21T15:57:43.152,13.549,6.7618,7.0734
2026-07-21T15:57:43.161,13.5596,6.6248,7.3475
2026-07-21T15:57:43.164,13.5643,6.7814,7.1908
2026-07-21T15:57:43.180,13.571,6.7227,7.2104
2026-07-21T15:57:43.191,13.6094,6.6639,7.1713
2026-07-21T15:57:43.208,13.6094,6.6639,7.0734
2026-07-21T15:57:43.228,13.6094,6.7618,7.1517
2026-07-21T15:57:43.228,13.6094,6.6052,7.1517
2026-07-21T15:57:43.230,13.6094,6.6052,7.3279
2026-07-21T15:57:43.242,13.6275,6.7227,7.2887
2026-07-21T15:57:43.252,13.6275,6.6835,7.4845
2026-07-21T15:57:43.290,13.679,6.7814,7.0929
2026-07-21T15:57:43.290,13.679,6.566,7.23
2026-07-21T15:57:43.290,13.679,6.9772,7.0538
2026-07-21T15:57:43.290,13.679,6.7031,7.2104
2026-07-21T15:57:43.290,13.6908,6.6835,7.1908
2026-07-21T15:57:43.308,13.6934,6.566,7.0929
2026-07-21T15:57:43.322,13.7206,6.6248,7.2887
2026-07-21T15:57:43.354,13.7345,6.7618,7.1713
2026-07-21T15:57:43.354,13.7366,6.6443,7.3866
2026-07-21T15:57:43.354,13.7366,6.7814,7.1321
2026-07-21T15:57:43.360,13.7413,6.6639,7.1713
2026-07-21T15:57:43.374,13.7495,6.7227,7.0538
2026-07-21T15:57:43.386,13.784,6.5269,7.0146
2026-07-21T15:57:43.401,13.784,6.566,7.2104
2026-07-21T15:57:43.401,13.784,6.5464,7.3475
2026-07-21T15:57:43.415,13.784,6.801,7.3083
2026-07-21T15:57:43.417,13.7938,6.9576,7.1125
2026-07-21T15:57:43.433,13.7998,6.6248,7.2692
2026-07-21T15:57:43.449,13.8353,6.7618,7.0538
2026-07-21T15:57:43.452,13.8353,6.7618,7.1713
2026-07-21T15:57:43.452,13.8353,6.7227,7.0146
2026-07-21T15:57:43.475,13.8498,6.7814,6.995
2026-07-21T15:57:43.481,13.8555,6.3506,7.2692
2026-07-21T15:57:43.512,13.8949,6.6835,7.1321
2026-07-21T15:57:43.512,13.8995,6.6443,7.2887
2026-07-21T15:57:43.512,13.8995,6.801,7.1713
2026-07-21T15:57:43.516,13.8995,6.8401,7.1517
2026-07-21T15:57:43.536,13.8995,6.801,7.0929
2026-07-21T15:57:43.544,13.9424,6.5073,7.0929
2026-07-21T15:57:43.573,13.9502,6.6443,7.0342
2026-07-21T15:57:43.573,13.9502,6.4485,7.2104
2026-07-21T15:57:43.573,13.9502,6.6639,7.1908
2026-07-21T15:57:43.580,13.9584,6.7618,7.0538
2026-07-21T15:57:43.591,13.9637,6.6639,7.2692
2026-07-21T15:57:43.623,14.006,6.7618,7.0146
2026-07-21T15:57:43.623,14.006,6.6248,7.23
2026-07-21T15:57:43.623,14.006,6.6639,7.1517
2026-07-21T15:57:43.631,14.0124,6.8206,6.9559
2026-07-21T15:57:43.639,14.0124,6.7814,7.1321
2026-07-21T15:57:43.663,14.0601,6.4094,7.1517
2026-07-21T15:57:43.663,14.0601,6.8401,7.23
2026-07-21T15:57:43.671,14.0601,6.6835,7.2496
2026-07-21T15:57:43.671,14.0601,6.6835,7.23
2026-07-21T15:57:43.693,14.071,6.7814,7.0342
2026-07-21T15:57:43.703,14.071,6.5464,7.23
2026-07-21T15:57:43.723,14.1132,6.6639,7.0146
2026-07-21T15:57:43.734,14.118,6.566,7.0929
2026-07-21T15:57:43.734,14.118,6.6443,7.2104
2026-07-21T15:57:43.741,14.1244,6.5856,7.1517
2026-07-21T15:57:43.752,14.1322,6.6248,7.3279
2026-07-21T15:57:43.752,14.1342,6.9576,7.0538
2026-07-21T15:57:43.782,14.1805,6.7422,7.1713
2026-07-21T15:57:43.782,14.1805,6.7031,7.1321
2026-07-21T15:57:43.794,14.1863,6.6639,7.0929
2026-07-21T15:57:43.805,14.1888,6.6835,6.995
2026-07-21T15:57:43.815,14.1951,6.566,7.0929
2026-07-21T15:57:43.815,14.1951,6.6248,7.3866
2026-07-21T15:57:43.836,14.2391,6.6248,7.1908
2026-07-21T15:57:43.852,14.2391,6.7814,7.3866
2026-07-21T15:57:43.852,14.2429,6.7422,7.0146
2026-07-21T15:57:43.873,14.2429,6.6835,7.5629
2026-07-21T15:57:43.873,14.2429,6.6835,7.0929
2026-07-21T15:57:43.876,14.2515,6.6052,7.1908
2026-07-21T15:57:43.908,14.2753,6.6443,7.0929
2026-07-21T15:57:43.908,14.2901,6.566,7.1713
2026-07-21T15:57:43.908,14.2901,6.5856,7.2887
2026-07-21T15:57:43.924,14.2901,6.6639,7.2692
2026-07-21T15:57:43.932,14.2901,6.6835,7.23
2026-07-21T15:57:43.956,14.3436,6.7227,7.1517
2026-07-21T15:57:43.956,14.3436,6.7618,7.1125
2026-07-21T15:57:43.956,14.3436,6.6835,7.1713
2026-07-21T15:57:43.971,14.3535,6.5464,7.1125
2026-07-21T15:57:43.971,14.3535,6.5464,7.1125
2026-07-21T15:57:43.987,14.4005,6.4094,7.23
2026-07-21T15:57:44.003,14.4005,6.9772,7.23
2026-07-21T15:57:44.003,14.4005,6.7618,7.2104
2026-07-21T15:57:44.022,14.4064,6.4877,7.1908
2026-07-21T15:57:44.024,14.4092,6.7227,7.1908
2026-07-21T15:57:44.043,14.4092,6.6248,7.4258
2026-07-21T15:57:44.066,14.4547,6.8793,7.0734
2026-07-21T15:57:44.066,14.4547,6.566,6.995
2026-07-21T15:57:44.066,14.4566,6.5464,7.1908
2026-07-21T15:57:44.081,14.4566,6.6248,7.1713
2026-07-21T15:57:44.090,14.4633,6.6835,7.465
2026-07-21T15:57:44.099,14.4958,6.6248,7.1713
2026-07-21T15:57:44.128,14.4958,6.7227,7.1517
2026-07-21T15:57:44.128,14.4958,6.7031,7.3083
2026-07-21T15:57:44.133,14.4958,6.429,7.0929
2026-07-21T15:57:44.144,14.5153,6.7227,6.995
2026-07-21T15:57:44.160,14.5565,6.4877,7.3671
2026-07-21T15:57:44.177,14.5582,6.6639,7.2496
2026-07-21T15:57:44.177,14.5601,6.7031,7.2887
2026-07-21T15:57:44.177,14.5623,6.5856,7.1713
2026-07-21T15:57:44.196,14.569,6.801,7.0734
2026-07-21T15:57:44.196,14.5894,6.6443,7.2887
2026-07-21T15:57:44.212,14.605,6.6639,7.1321
2026-07-21T15:57:44.223,14.605,6.6052,6.9363
2026-07-21T15:57:44.223,14.605,6.5856,7.0929
2026-07-21T15:57:44.249,14.605,6.4877,7.1713
2026-07-21T15:57:44.253,14.605,6.5856,7.7195
2026-07-21T15:57:44.270,14.6481,6.9185,7.23
2026-07-21T15:57:44.270,14.6527,6.7422,7.2692
2026-07-21T15:57:44.284,14.6527,6.7618,7.0929
2026-07-21T15:57:44.286,14.6527,6.6052,7.23
2026-07-21T15:57:44.302,14.7003,6.8989,7.0734
2026-07-21T15:57:44.325,14.7003,6.5464,7.0538
2026-07-21T15:57:44.325,14.7003,6.6248,7.2104
2026-07-21T15:57:44.334,14.7068,6.5856,7.0929
2026-07-21T15:57:44.334,14.7106,6.5464,7.2887
2026-07-21T15:57:44.353,14.7482,6.8206,7.1125
2026-07-21T15:57:44.365,14.753,6.6835,7.1908
2026-07-21T15:57:44.365,14.753,6.7618,7.3475
2026-07-21T15:57:44.381,14.753,6.6639,7.2887
2026-07-21T15:57:44.391,14.753,6.5856,7.23
2026-07-21T15:57:44.413,14.7959,6.6443,7.0342
2026-07-21T15:57:44.413,14.7959,6.5073,7.2104
2026-07-21T15:57:44.413,14.7959,6.5856,7.1908
2026-07-21T15:57:44.429,14.7959,6.8401,7.2692
2026-07-21T15:57:44.445,14.812,6.7422,7.23
2026-07-21T15:57:44.461,14.8536,6.7227,7.1125
2026-07-21T15:57:44.461,14.8536,6.7031,7.1908
2026-07-21T15:57:44.461,14.8536,6.7618,7.1517
2026-07-21T15:57:44.477,14.8596,6.6835,6.995
2026-07-21T15:57:44.499,14.8596,6.8597,6.995
2026-07-21T15:57:44.501,14.8998,6.4094,7.23
2026-07-21T15:57:44.525,14.9027,6.9185,7.1908
2026-07-21T15:57:44.525,14.9027,6.7227,7.2887
2026-07-21T15:57:44.534,14.907,6.8793,7.1713
2026-07-21T15:57:44.540,14.907,6.7227,7.23
2026-07-21T15:57:44.540,14.907,6.6248,7.2104
2026-07-21T15:57:44.572,14.9384,6.7031,6.995
2026-07-21T15:57:44.572,14.954,6.7031,6.9754
2026-07-21T15:57:44.584,14.954,6.5464,7.1713
2026-07-21T15:57:44.588,14.9607,6.5856,7.2887
2026-07-21T15:57:44.604,14.9969,6.7618,7.1713
2026-07-21T15:57:44.619,15.0021,6.5856,7.1517
2026-07-21T15:57:44.619,15.0021,6.801,7.3083
2026-07-21T15:57:44.635,15.0054,6.6248,7.1125
2026-07-21T15:57:44.641,15.0126,6.7227,7.1713
2026-07-21T15:57:44.666,15.0544,6.801,6.8971
2026-07-21T15:57:44.666,15.0544,6.5464,7.1517
2026-07-21T15:57:44.666,15.0544,6.5269,7.1517
2026-07-21T15:57:44.683,15.0544,6.5856,7.23
2026-07-21T15:57:44.693,15.0641,6.8401,7.2887
2026-07-21T15:57:44.729,15.0955,6.6639,7.0342
2026-07-21T15:57:44.729,15.0955,6.7618,7.1908
2026-07-21T15:57:44.729,15.0955,6.5856,7.0734
2026-07-21T15:57:44.729,15.1114,6.7227,7.1125
2026-07-21T15:57:44.735,15.1114,6.8793,7.0734
2026-07-21T15:57:44.745,15.1114,6.6248,7.1713
2026-07-21T15:57:44.765,15.1589,6.566,7.1125
2026-07-21T15:57:44.776,15.1589,6.6052,7.2104
2026-07-21T15:57:44.776,15.1589,6.8206,7.2104
2026-07-21T15:57:44.792,15.1589,6.7031,7.1713
2026-07-21T15:57:44.792,15.1748,6.7814,7.1908
2026-07-21T15:57:44.809,15.2075,6.7227,7.0734
2026-07-21T15:57:44.809,15.2075,6.8401,7.1321
2026-07-21T15:57:44.836,15.2075,6.6443,7.1125
2026-07-21T15:57:44.840,15.22,6.6052,7.3083
2026-07-21T15:57:44.856,15.2223,6.5269,7.1908
2026-07-21T15:57:44.856,15.2591,6.7618,7.3083
2026-07-21T15:57:44.888,15.2631,6.7618,7.2887
2026-07-21T15:57:44.888,15.2631,6.6052,7.1713
2026-07-21T15:57:44.888,15.2631,6.8989,7.0734
2026-07-21T15:57:44.903,15.2695,6.566,7.1321
2026-07-21T15:57:44.936,15.3013,6.6835,7.0734
2026-07-21T15:57:44.936,15.3013,6.6443,6.9559
2026-07-21T15:57:44.936,15.3013,6.5269,7.2104
2026-07-21T15:57:44.944,15.3013,6.6443,7.1713
2026-07-21T15:57:44.952,15.3173,6.7227,7.2496
2026-07-21T15:57:44.982,15.3555,6.6052,7.3671
2026-07-21T15:57:44.982,15.3555,6.7422,7.2104
2026-07-21T15:57:44.982,15.3555,6.9772,7.1321
2026-07-21T15:57:44.982,15.3639,6.5464,7.1321
2026-07-21T15:57:44.998,15.3639,6.7031,7.0538
2026-07-21T15:57:45.029,15.3953,6.5464,7.2104
2026-07-21T15:57:45.029,15.3953,6.5269,7.2104
2026-07-21T15:57:45.034,15.3953,6.7031,7.23
2026-07-21T15:57:45.045,15.4065,6.6639,7.2104
2026-07-21T15:57:45.060,15.4428,6.7422,7.0734
2026-07-21T15:57:45.076,15.4428,6.801,7.23
2026-07-21T15:57:45.076,15.4428,6.6639,7.1713
2026-07-21T15:57:45.076,15.4517,6.6248,7.0734
2026-07-21T15:57:45.092,15.4558,6.6443,7.1125
2026-07-21T15:57:45.108,15.4895,6.4094,7.1517
2026-07-21T15:57:45.108,15.4895,6.7422,7.1713
2026-07-21T15:57:45.124,15.4895,6.6248,7.3475
2026-07-21T15:57:45.137,15.4895,6.7422,7.2692
2026-07-21T15:57:45.148,15.5349,6.801,7.0146
2026-07-21T15:57:45.154,15.5379,6.566,7.3279
2026-07-21T15:57:45.154,15.5379,6.8989,7.0342
2026-07-21T15:57:45.170,15.5428,6.5856,7.0342
2026-07-21T15:57:45.170,15.5428,6.6052,7.1713
2026-07-21T15:57:45.203,15.5843,6.566,7.1908
2026-07-21T15:57:45.203,15.5843,6.6443,7.2692
2026-07-21T15:57:45.216,15.5863,6.7227,7.0929
2026-07-21T15:57:45.224,15.5863,6.8793,7.1908
2026-07-21T15:57:45.237,15.6158,6.7227,7.3866
2026-07-21T15:57:45.255,15.6158,6.7031,7.1321
2026-07-21T15:57:45.255,15.6319,6.7031,6.9559
2026-07-21T15:57:45.265,15.6319,6.5269,7.1125
2026-07-21T15:57:45.267,15.6319,6.5856,7.0929
2026-07-21T15:57:45.285,15.674,6.6639,7.2496
2026-07-21T15:57:45.297,15.68,6.7422,7.2104
2026-07-21T15:57:45.297,15.68,6.8793,6.9167
2026-07-21T15:57:45.313,15.68,6.6835,7.1517
2026-07-21T15:57:45.313,15.689,6.8206,7.0734
2026-07-21T15:57:45.355,15.7273,6.8401,7.1321
2026-07-21T15:57:45.355,15.7273,6.6639,6.8971
2026-07-21T15:57:45.355,15.7273,6.5856,7.0342
2026-07-21T15:57:45.361,15.7273,6.566,7.1517
2026-07-21T15:57:45.370,15.7431,6.5073,7.2104
2026-07-21T15:57:45.392,15.7899,6.9576,7.1517
2026-07-21T15:57:45.408,15.7899,6.6835,7.2104
2026-07-21T15:57:45.408,15.7948,6.7814,7.23
2026-07-21T15:57:45.408,15.7948,6.6443,7.2692
2026-07-21T15:57:45.424,15.7948,6.6639,7.0929
2026-07-21T15:57:45.424,15.8065,6.6052,6.9754
2026-07-21T15:57:45.440,15.8481,6.5269,7.23
2026-07-21T15:57:45.455,15.8529,6.5856,7.2496
2026-07-21T15:57:45.455,15.8529,6.8597,7.1713
2026-07-21T15:57:45.476,15.8574,6.7031,7.2887
2026-07-21T15:57:45.485,15.8574,6.566,7.1321
2026-07-21T15:57:45.488,15.8641,6.7227,7.0538
2026-07-21T15:57:45.518,15.9027,6.5464,7.465
2026-07-21T15:57:45.518,15.9027,6.6639,7.0538
2026-07-21T15:57:45.529,15.9027,6.6248,7.0342
2026-07-21T15:57:45.534,15.9098,6.2919,7.3083
2026-07-21T15:57:45.545,15.9098,6.7814,7.1713
2026-07-21T15:57:45.555,15.9577,6.6052,7.23
2026-07-21T15:57:45.555,15.9577,6.7618,7.1908
2026-07-21T15:57:45.581,15.963,6.7422,7.0538
2026-07-21T15:57:45.584,15.9666,6.7227,7.1321
2026-07-21T15:57:45.591,15.9686,6.5269,7.0342
2026-07-21T15:57:45.602,16.0143,6.7422,7.2496
2026-07-21T15:57:45.615,16.0143,6.4877,7.1908
2026-07-21T15:57:45.628,16.0143,6.566,7.1713
2026-07-21T15:57:45.628,16.0143,6.7618,7.0929
2026-07-21T15:57:45.649,16.0262,6.6248,7.1908
2026-07-21T15:57:45.655,16.0267,6.7618,7.0538
2026-07-21T15:57:45.660,16.0711,6.6835,7.1517
2026-07-21T15:57:45.675,16.0745,6.6443,7.2104
2026-07-21T15:57:45.691,16.0745,6.6835,7.0538
2026-07-21T15:57:45.691,16.0745,6.6443,7.1517
2026-07-21T15:57:45.695,16.0745,6.4094,7.1125
2026-07-21T15:57:45.708,16.0925,6.8401,7.2887
2026-07-21T15:57:45.748,16.139,6.6639,7.1517
2026-07-21T15:57:45.752,16.139,6.7031,7.2104
2026-07-21T15:57:45.752,16.139,6.801,7.3083
2026-07-21T15:57:45.755,16.139,6.5073,7.1908
2026-07-21T15:57:45.755,16.139,6.6443,6.9363
2026-07-21T15:57:45.773,16.139,6.6052,7.0538
2026-07-21T15:57:45.802,16.1844,6.5856,7.1908
2026-07-21T15:57:45.812,16.1844,6.6639,7.1321
2026-07-21T15:57:45.812,16.1844,6.9381,7.4258
2026-07-21T15:57:45.812,16.1844,6.6052,7.1517
2026-07-21T15:57:45.820,16.2004,6.7422,7.1125
2026-07-21T15:57:45.820,16.2004,6.8206,7.1713
2026-07-21T15:57:45.865,16.2478,6.6835,7.2692
2026-07-21T15:57:45.865,16.2478,6.9968,6.8188
2026-07-21T15:57:45.865,16.2478,6.5464,7.2104
2026-07-21T15:57:45.865,16.2478,6.5464,7.1321
2026-07-21T15:57:45.881,16.2586,6.566,7.2887
2026-07-21T15:57:45.913,16.2955,6.7814,7.2496
2026-07-21T15:57:45.913,16.2955,6.7031,6.995
2026-07-21T15:57:45.913,16.2955,6.7227,7.1321
2026-07-21T15:57:45.913,16.2955,6.5464,7.0538
2026-07-21T15:57:45.929,16.3122,6.6639,7.0734
2026-07-21T15:57:45.945,16.3122,6.6052,7.0734
2026-07-21T15:57:45.956,16.3608,6.5464,7.2887
2026-07-21T15:57:45.962,16.3608,6.6248,7.0929
2026-07-21T15:57:45.976,16.3608,6.6248,7.2692
2026-07-21T15:57:45.976,16.3652,6.7031,7.0734
2026-07-21T15:57:45.993,16.3652,6.566,7.1713
2026-07-21T15:57:45.993,16.406,6.7422,7.2104
2026-07-21T15:57:46.014,16.406,6.7227,7.0734
2026-07-21T15:57:46.023,16.4217,6.6248,7.0146
2026-07-21T15:57:46.023,16.4217,6.4877,6.9559
2026-07-21T15:57:46.046,16.4254,6.5073,7.4845
2026-07-21T15:57:46.056,16.4254,6.7422,7.2104
2026-07-21T15:57:46.071,16.4711,6.7422,7.0342
2026-07-21T15:57:46.071,16.4711,6.6443,7.3083
2026-07-21T15:57:46.087,16.4749,6.801,7.0929
2026-07-21T15:57:46.087,16.4749,6.7031,7.2692
2026-07-21T15:57:46.103,16.4797,6.7422,7.1517
2026-07-21T15:57:46.106,16.5166,6.6052,7.23
2026-07-21T15:57:46.125,16.5166,6.5464,6.995
2026-07-21T15:57:46.132,16.5324,6.5073,7.1908
2026-07-21T15:57:46.140,16.5324,6.6443,7.1125
2026-07-21T15:57:46.152,16.5324,6.6443,7.1713
2026-07-21T15:57:46.166,16.5324,6.7422,7.1125
2026-07-21T15:57:46.166,16.5482,6.7422,7.2104
2026-07-21T15:57:46.197,16.5902,6.6639,7.0734
2026-07-21T15:57:46.197,16.5956,6.566,6.9754
2026-07-21T15:57:46.197,16.5956,6.6639,7.1125
2026-07-21T15:57:46.213,16.5982,6.6835,7.1908
2026-07-21T15:57:46.213,16.5982,6.7227,7.1908
2026-07-21T15:57:46.230,16.6481,6.7422,7.2692
2026-07-21T15:57:46.246,16.6481,6.5073,7.1713
2026-07-21T15:57:46.260,16.6603,6.7031,7.0342
2026-07-21T15:57:46.262,16.6603,6.566,7.1713
2026-07-21T15:57:46.271,16.6603,6.6443,7.2692
2026-07-21T15:57:46.279,16.6603,6.6052,6.995
2026-07-21T15:57:46.292,16.675,6.5464,7.1321
2026-07-21T15:57:46.299,16.7225,6.5073,7.1517
2026-07-21T15:57:46.324,16.7225,6.7031,7.23
2026-07-21T15:57:46.324,16.7225,6.801,7.0929
2026-07-21T15:57:46.329,16.7225,6.8206,7.1125
2026-07-21T15:57:46.341,16.7333,6.7031,6.9559
2026-07-21T15:57:46.341,16.7382,6.6052,7.1517
2026-07-21T15:57:46.378,16.7757,6.6443,6.9559
2026-07-21T15:57:46.390,16.7757,6.5269,7.1908
2026-07-21T15:57:46.390,16.7865,6.4094,7.1908
2026-07-21T15:57:46.396,16.7885,6.6835,7.2692
2026-07-21T15:57:46.403,16.7885,6.7227,7.1517
2026-07-21T15:57:46.414,16.794,6.5856,7.3671
2026-07-21T15:57:46.419,16.8017,6.7031,7.0146
2026-07-21T15:57:46.451,16.8417,6.6835,7.3475
2026-07-21T15:57:46.451,16.8417,6.6835,7.0538
2026-07-21T15:57:46.457,16.8417,6.6248,6.8971
2026-07-21T15:57:46.457,16.8491,6.4877,7.23
2026-07-21T15:57:46.475,16.8563,6.4877,7.0538
2026-07-21T15:57:46.483,16.8609,6.6639,7.2104
2026-07-21T15:57:46.483,16.8966,6.6835,7.1713
2026-07-21T15:57:46.523,16.9045,7.0164,7.2104
2026-07-21T15:57:46.523,16.9045,6.7031,7.1321
2026-07-21T15:57:46.523,16.9045,6.4877,7.2104
2026-07-21T15:57:46.537,16.9122,6.6639,6.9167
2026-07-21T15:57:46.546,16.9122,6.5269,7.1125
2026-07-21T15:57:46.577,16.9532,6.5856,7.2104
2026-07-21T15:57:46.577,16.9532,6.7618,7.1908
2026-07-21T15:57:46.577,16.9532,6.6443,7.1713
2026-07-21T15:57:46.585,16.9598,6.6248,7.0734
2026-07-21T15:57:46.593,16.9613,6.7227,7.2692
2026-07-21T15:57:46.625,16.9912,6.6052,7.1125
2026-07-21T15:57:46.625,16.9912,6.6835,7.5041
2026-07-21T15:57:46.625,16.9912,6.5464,6.8188
2026-07-21T15:57:46.634,17.0072,6.4877,7.3083
2026-07-21T15:57:46.642,17.0144,6.5464,7.0342
2026-07-21T15:57:46.656,17.0558,6.6639,7.2692
2026-07-21T15:57:46.672,17.0619,6.6835,7.2692
2026-07-21T15:57:46.672,17.0619,6.7031,7.0342
2026-07-21T15:57:46.672,17.0619,6.7031,7.1125
2026-07-21T15:57:46.695,17.0707,6.7031,7.0538
2026-07-21T15:57:46.704,17.1096,6.6639,7.0929
2026-07-21T15:57:46.704,17.1096,6.5073,7.0342
2026-07-21T15:57:46.737,17.1135,6.566,7.2104
2026-07-21T15:57:46.737,17.1135,6.6248,7.0146
2026-07-21T15:57:46.743,17.1179,6.5856,7.3866
2026-07-21T15:57:46.752,17.1179,6.7227,6.9559
2026-07-21T15:57:46.767,17.1579,6.7227,7.4258
2026-07-21T15:57:46.783,17.16,6.6248,7.1713
2026-07-21T15:57:46.783,17.16,6.6052,6.995
2026-07-21T15:57:46.794,17.1651,6.8206,6.9167
2026-07-21T15:57:46.799,17.1651,6.4094,7.3279
2026-07-21T15:57:46.832,17.2123,6.5464,7.23
2026-07-21T15:57:46.832,17.2139,6.6248,7.1908
2026-07-21T15:57:46.832,17.2139,6.7422,7.23
2026-07-21T15:57:46.846,17.2168,6.8206,6.9754
2026-07-21T15:57:46.846,17.2168,6.6248,7.1713
2026-07-21T15:57:46.877,17.2633,6.8401,7.0342
2026-07-21T15:57:46.877,17.2633,6.566,7.1713
2026-07-21T15:57:46.877,17.2633,6.6052,7.0146
2026-07-21T15:57:46.895,17.2705,6.5269,7.0538
2026-07-21T15:57:46.898,17.2775,6.5464,7.0929
2026-07-21T15:57:46.925,17.308,6.5856,7.4845
2026-07-21T15:57:46.941,17.308,6.8597,7.1321
2026-07-21T15:57:46.941,17.3226,6.8401,7.1125
2026-07-21T15:57:46.944,17.3226,6.6835,7.1517
2026-07-21T15:57:46.958,17.3226,6.7422,6.9754
2026-07-21T15:57:46.958,17.3226,6.5464,7.3671
2026-07-21T15:57:46.989,17.3758,6.6052,7.0538
2026-07-21T15:57:46.989,17.3758,6.5073,7.23
2026-07-21T15:57:46.989,17.3791,6.7422,7.2692
2026-07-21T15:57:47.003,17.3791,6.7227,7.0538
2026-07-21T15:57:47.003,17.3863,6.7031,7.1713
2026-07-21T15:57:47.027,17.4259,6.8793,7.0538
2026-07-21T15:57:47.027,17.4259,6.6639,7.3083
2026-07-21T15:57:47.051,17.4335,6.6835,7.0538
2026-07-21T15:57:47.051,17.4335,6.7422,6.995
2026-07-21T15:57:47.060,17.4335,6.566,7.0734
2026-07-21T15:57:47.067,17.4335,6.4094,7.2104
2026-07-21T15:57:47.099,17.4856,6.7227,7.3475
2026-07-21T15:57:47.099,17.4856,6.6443,7.1517
2026-07-21T15:57:47.099,17.4856,6.7422,7.4258
2026-07-21T15:57:47.114,17.4906,6.7031,6.9363
2026-07-21T15:57:47.114,17.4956,6.566,7.1517
2026-07-21T15:57:47.162,17.5305,6.6639,7.0929
2026-07-21T15:57:47.162,17.5438,6.6443,7.1321
2026-07-21T15:57:47.162,17.5438,6.5269,7.4062
2026-07-21T15:57:47.162,17.5438,6.7031,7.1908
2026-07-21T15:57:47.177,17.5517,6.7031,7.23
2026-07-21T15:57:47.211,17.5919,6.566,7.0929
2026-07-21T15:57:47.211,17.5919,6.7618,7.1908
2026-07-21T15:57:47.211,17.5919,6.7814,7.1125
2026-07-21T15:57:47.211,17.5919,6.6443,7.1517
2026-07-21T15:57:47.225,17.6034,6.6248,6.8971
2026-07-21T15:57:47.232,17.6062,6.429,7.2104
2026-07-21T15:57:47.251,17.646,6.5073,7.0538
2026-07-21T15:57:47.258,17.648,6.7227,7.2692
2026-07-21T15:57:47.258,17.648,6.7422,7.2496
2026-07-21T15:57:47.273,17.648,6.8206,6.995
2026-07-21T15:57:47.284,17.6552,6.6443,7.3279
2026-07-21T15:57:47.318,17.7017,6.5073,7.0342
2026-07-21T15:57:47.318,17.7017,6.6835,6.9559
2026-07-21T15:57:47.318,17.7017,6.7031,7.0342
2026-07-21T15:57:47.318,17.7017,6.4681,7.0734
2026-07-21T15:57:47.336,17.7017,6.8597,7.1321
2026-07-21T15:57:47.353,17.7479,6.5856,7.1713
2026-07-21T15:57:47.367,17.7497,6.6443,7.0538
2026-07-21T15:57:47.367,17.7497,6.7618,7.1908
2026-07-21T15:57:47.367,17.7497,6.6639,7.2496
2026-07-21T15:57:47.383,17.7497,6.6443,6.9559
2026-07-21T15:57:47.383,17.7497,6.6052,7.0734
2026-07-21T15:57:47.414,17.7811,6.4485,7.2692
2026-07-21T15:57:47.414,17.7811,6.5269,7.1321
2026-07-21T15:57:47.429,17.7811,6.6052,7.23
2026-07-21T15:57:47.430,17.8009,6.8401,7.1713
2026-07-21T15:57:47.446,17.8351,6.7422,6.995
2026-07-21T15:57:47.462,17.8351,6.5464,7.2104
2026-07-21T15:57:47.462,17.8351,6.6443,6.9559
2026-07-21T15:57:47.462,17.8439,6.5269,7.0342
2026-07-21T15:57:47.482,17.8439,6.6639,7.0929
2026-07-21T15:57:47.493,17.8863,6.4681,7.0538
2026-07-21T15:57:47.509,17.8883,6.5464,7.3866
2026-07-21T15:57:47.516,17.8883,6.6639,7.1517
2026-07-21T15:57:47.525,17.8955,6.5856,7.23
2026-07-21T15:57:47.541,17.9229,6.6639,7.2887
2026-07-21T15:57:47.557,17.9229,6.6639,7.1321
2026-07-21T15:57:47.557,17.9229,6.6639,6.9559
2026-07-21T15:57:47.569,17.9408,6.4485,7.0146
2026-07-21T15:57:47.576,17.9428,6.5464,7.23
2026-07-21T15:57:47.588,17.979,6.5269,7.23
2026-07-21T15:57:47.604,17.979,6.8989,7.23
2026-07-21T15:57:47.604,17.979,6.6443,6.9559
2026-07-21T15:57:47.620,17.986,6.7227,7.1321
2026-07-21T15:57:47.628,17.986,6.566,6.995
2026-07-21T15:57:47.635,18.0281,6.6052,7.1125
2026-07-21T15:57:47.643,18.0281,6.7031,6.9754
2026-07-21T15:57:47.657,18.0336,6.566,7.1321
2026-07-21T15:57:47.660,18.0336,6.7422,7.0538
2026-07-21T15:57:47.685,18.0766,6.566,7.23
2026-07-21T15:57:47.685,18.0766,6.6443,7.1321
2026-07-21T15:57:47.699,18.0825,6.6443,7.2104
2026-07-21T15:57:47.699,18.0825,6.7618,7.3475
2026-07-21T15:57:47.714,18.0845,6.7814,7.0146
2026-07-21T15:57:47.724,18.0845,6.6835,6.995
2026-07-21T15:57:47.737,18.1131,6.5073,6.9559
2026-07-21T15:57:47.748,18.1131,6.5073,7.2887
2026-07-21T15:57:47.748,18.1131,6.6248,7.3279
2026-07-21T15:57:47.765,18.129,6.7618,7.4258
2026-07-21T15:57:47.765,18.129,6.801,7.0538
2026-07-21T15:57:47.794,18.1674,6.6248,7.1321
2026-07-21T15:57:47.794,18.1674,6.8206,6.995
2026-07-21T15:57:47.794,18.1769,6.5856,7.2104
2026-07-21T15:57:47.810,18.1794,6.6052,6.995
2026-07-21T15:57:47.829,18.2083,6.6248,6.995
2026-07-21T15:57:47.837,18.2083,6.5073,7.0734
2026-07-21T15:57:47.848,18.2083,6.7031,7.1125
2026-07-21T15:57:47.848,18.2083,6.7618,7.1713
2026-07-21T15:57:47.860,18.2239,6.5269,7.0929
2026-07-21T15:57:47.880,18.2553,6.7227,7.0929
2026-07-21T15:57:47.889,18.2553,6.6443,7.0538
2026-07-21T15:57:47.889,18.2553,6.5856,7.1517
2026-07-21T15:57:47.905,18.2678,6.4877,6.8775
2026-07-21T15:57:47.921,18.3027,6.5073,7.23
2026-07-21T15:57:47.936,18.3027,6.5269,7.1517
2026-07-21T15:57:47.936,18.3027,6.7031,7.2104
2026-07-21T15:57:47.946,18.3122,6.7031,7.3475
2026-07-21T15:57:47.968,18.3504,6.7814,7.1713
2026-07-21T15:57:47.968,18.3504,6.7422,7.0146
2026-07-21T15:57:47.968,18.3504,6.566,7.1321
2026-07-21T15:57:47.968,18.3504,6.6248,6.995
2026-07-21T15:57:47.993,18.355,6.6052,6.995
2026-07-21T15:57:48.015,18.3818,6.4485,7.1517
2026-07-21T15:57:48.015,18.3818,6.6052,7.1321
2026-07-21T15:57:48.015,18.3818,6.8401,7.2104
2026-07-21T15:57:48.036,18.397,6.6443,7.0734
2026-07-21T15:57:48.063,18.4285,6.7422,7.0929
2026-07-21T15:57:48.063,18.4285,6.6443,6.9754
2026-07-21T15:57:48.063,18.4285,6.6052,7.0342
2026-07-21T15:57:48.063,18.4285,6.5464,6.8775
2026-07-21T15:57:48.094,18.4771,6.6052,7.1713
2026-07-21T15:57:48.094,18.4771,6.6248,7.2496
2026-07-21T15:57:48.109,18.4771,6.7227,7.0538
2026-07-21T15:57:48.109,18.4771,6.6052,7.1321
2026-07-21T15:57:48.125,18.4771,6.6443,7.2887
2026-07-21T15:57:48.137,18.5232,6.801,7.1321
2026-07-21T15:57:48.158,18.5232,6.5269,7.2104
2026-07-21T15:57:48.158,18.5232,6.6443,7.0342
2026-07-21T15:57:48.158,18.5232,6.5464,6.9754
2026-07-21T15:57:48.175,18.5688,6.4094,7.1321
2026-07-21T15:57:48.175,18.5688,6.801,7.0538
2026-07-21T15:57:48.188,18.5706,6.6639,7.2496
2026-07-21T15:57:48.204,18.573,6.8597,7.0538
2026-07-21T15:57:48.215,18.5774,6.7618,6.9754
2026-07-21T15:57:48.235,18.6118,6.8206,7.0146
2026-07-21T15:57:48.235,18.6118,6.5073,6.9559
2026-07-21T15:57:48.235,18.6118,6.5856,6.9559
2026-07-21T15:57:48.258,18.6196,6.5073,7.1908
2026-07-21T15:57:48.269,18.6564,6.6639,7.1713
2026-07-21T15:57:48.284,18.6564,6.7031,7.0146
2026-07-21T15:57:48.284,18.6564,6.6248,7.1517
2026-07-21T15:57:48.293,18.6564,6.6639,7.0538
2026-07-21T15:57:48.300,18.7128,6.6248,7.1517
2026-07-21T15:57:48.330,18.7128,6.5856,7.23
2026-07-21T15:57:48.330,18.7128,6.6248,7.1908
2026-07-21T15:57:48.337,18.7128,6.4485,7.0929
2026-07-21T15:57:48.350,18.7235,6.4681,7.1517
2026-07-21T15:57:48.356,18.7698,6.7814,7.2692
2026-07-21T15:57:48.367,18.7732,6.6052,7.1713
2026-07-21T15:57:48.378,18.7732,6.6835,7.0538
2026-07-21T15:57:48.378,18.7732,6.6639,6.9754
2026-07-21T15:57:48.394,18.7777,6.5856,7.23
2026-07-21T15:57:48.406,18.7777,6.7814,6.8188
2026-07-21T15:57:48.441,18.8216,6.4877,7.2692
2026-07-21T15:57:48.441,18.8233,6.4681,7.1713
2026-07-21T15:57:48.441,18.8233,6.6248,7.1321
2026-07-21T15:57:48.441,18.8233,6.7031,7.3279
2026-07-21T15:57:48.454,18.8287,6.566,7.1517
2026-07-21T15:57:48.459,18.8779,6.7618,7.0538
2026-07-21T15:57:48.478,18.8779,6.566,7.1125
2026-07-21T15:57:48.489,18.8779,6.801,6.9559
2026-07-21T15:57:48.504,18.8779,6.6248,6.9167
2026-07-21T15:57:48.504,18.8872,6.4681,7.1713
2026-07-21T15:57:48.510,18.8916,6.5856,7.0342
2026-07-21T15:57:48.536,18.9347,6.801,7.2692
2026-07-21T15:57:48.552,18.9403,6.8206,7.1713
2026-07-21T15:57:48.552,18.9403,6.6443,6.995
2026-07-21T15:57:48.559,18.9446,6.801,7.0538
2026-07-21T15:57:48.568,18.9481,6.5464,7.0146
2026-07-21T15:57:48.572,18.9982,6.5856,6.9363
2026-07-21T15:57:48.595,18.9982,6.3702,7.1321
2026-07-21T15:57:48.609,18.9982,6.6248,7.1517
2026-07-21T15:57:48.609,18.9982,6.7031,7.0342
2026-07-21T15:57:48.616,18.9982,6.7814,7.1321
2026-07-21T15:57:48.632,19.0139,6.7031,7.0146
2026-07-21T15:57:48.634,19.0454,6.6639,7.2496
2026-07-21T15:57:48.651,19.0612,6.5856,7.1517
2026-07-21T15:57:48.663,19.0612,6.6443,6.9754
2026-07-21T15:57:48.663,19.0612,6.6052,6.9167
2026-07-21T15:57:48.663,19.0612,6.5073,7.0929
2026-07-21T15:57:48.679,19.0712,6.6248,7.1713
2026-07-21T15:57:48.695,19.0816,6.566,7.1713
2026-07-21T15:57:48.711,19.1244,6.9772,7.3279
2026-07-21T15:57:48.726,19.1302,6.7422,6.9754
2026-07-21T15:57:48.726,19.1302,6.6835,7.1713
2026-07-21T15:57:48.726,19.1302,6.5856,6.995
2026-07-21T15:57:48.742,19.1335,6.5464,7.0146
2026-07-21T15:57:48.758,19.1401,6.5269,7.0734
2026-07-21T15:57:48.762,19.178,6.5073,7.0342
2026-07-21T15:57:48.777,19.1873,6.7227,7.4258
2026-07-21T15:57:48.797,19.1899,6.5464,7.1713
2026-07-21T15:57:48.797,19.1899,6.6639,7.1321
2026-07-21T15:57:48.805,19.1899,6.5856,7.1321
2026-07-21T15:57:48.814,19.1899,6.6443,7.1125
2026-07-21T15:57:48.821,19.2406,6.6835,6.8384
2026-07-21T15:57:48.859,19.2508,6.5269,7.0538
2026-07-21T15:57:48.859,19.2508,6.5269,7.2887
2026-07-21T15:57:48.859,19.2508,6.5856,7.5041
2026-07-21T15:57:48.859,19.2508,6.6639,7.2496
2026-07-21T15:57:48.871,19.2582,6.7227,6.9559
2026-07-21T15:57:48.884,19.2666,6.7814,7.1125
2026-07-21T15:57:48.900,19.3062,6.5856,7.1125
2026-07-21T15:57:48.904,19.3062,6.8793,6.9363
2026-07-21T15:57:48.921,19.3062,6.7814,7.0929
2026-07-21T15:57:48.921,19.3062,6.5269,7.1321
2026-07-21T15:57:48.939,19.3193,6.6835,6.9559
2026-07-21T15:57:48.939,19.3193,6.6052,7.23
2026-07-21T15:57:48.959,19.3614,6.8989,7.0146
2026-07-21T15:57:48.979,19.3706,6.6052,7.3083
2026-07-21T15:57:48.979,19.3726,6.7031,7.0929
2026-07-21T15:57:48.987,19.3771,6.6052,6.9754
2026-07-21T15:57:48.995,19.3786,6.7227,6.9559
2026-07-21T15:57:49.000,19.3875,6.331,7.0929
2026-07-21T15:57:49.042,19.4245,6.4681,7.1125
2026-07-21T15:57:49.042,19.4245,6.5464,7.23
2026-07-21T15:57:49.042,19.4245,6.7227,7.1713
2026-07-21T15:57:49.042,19.4245,6.8597,6.995
2026-07-21T15:57:49.058,19.4376,6.5269,7.0929
2026-07-21T15:57:49.059,19.4413,6.7618,7.0929
2026-07-21T15:57:49.105,19.488,6.5856,7.0342
2026-07-21T15:57:49.105,19.488,6.6052,7.0929
2026-07-21T15:57:49.105,19.488,6.4877,7.0538
2026-07-21T15:57:49.105,19.488,6.801,7.1908
2026-07-21T15:57:49.122,19.4936,6.5464,7.1713
2026-07-21T15:57:49.122,19.4936,6.7227,7.0342
2026-07-21T15:57:49.137,19.5354,6.6639,7.0929
2026-07-21T15:57:49.154,19.5354,6.6248,7.0929
2026-07-21T15:57:49.154,19.5354,6.6443,7.1125
2026-07-21T15:57:49.169,19.5354,6.7422,7.0538
2026-07-21T15:57:49.174,19.5354,6.5269,7.1908
2026-07-21T15:57:49.191,19.5827,6.429,7.2496
2026-07-21T15:57:49.201,19.5827,6.9185,7.1908
2026-07-21T15:57:49.201,19.5827,6.6248,7.0146
2026-07-21T15:57:49.216,19.5827,6.7814,7.0734
2026-07-21T15:57:49.216,19.6023,6.5269,7.0734
2026-07-21T15:57:49.241,19.6463,6.6052,6.995
2026-07-21T15:57:49.263,19.6463,6.5269,6.9363
2026-07-21T15:57:49.263,19.6463,6.8989,7.1321
2026-07-21T15:57:49.263,19.6463,6.566,7.0146
2026-07-21T15:57:49.263,19.6612,6.5073,7.1713
2026-07-21T15:57:49.286,19.6612,6.7031,7.0734
2026-07-21T15:57:49.303,19.708,6.6248,7.0929
2026-07-21T15:57:49.327,19.708,6.6443,7.23
2026-07-21T15:57:49.327,19.708,6.6248,7.1908
2026-07-21T15:57:49.327,19.708,6.566,6.9754
2026-07-21T15:57:49.327,19.708,6.566,6.9559
2026-07-21T15:57:49.342,19.708,6.4681,7.1713
2026-07-21T15:57:49.373,19.7639,6.5856,7.1321
2026-07-21T15:57:49.373,19.7711,6.7227,7.1125
2026-07-21T15:57:49.373,19.7711,6.7422,7.1321
2026-07-21T15:57:49.385,19.7711,6.5856,7.1321
2026-07-21T15:57:49.389,19.7787,6.6443,7.0929
2026-07-21T15:57:49.405,19.7787,6.5464,7.1321
2026-07-21T15:57:49.436,19.8183,6.6443,7.0538
2026-07-21T15:57:49.436,19.8183,6.6443,7.23
2026-07-21T15:57:49.436,19.8183,6.429,7.1713
2026-07-21T15:57:49.445,19.8183,6.8597,6.9363
2026-07-21T15:57:49.455,19.8341,6.6639,7.2104
2026-07-21T15:57:49.460,19.8811,6.6835,7.2887
2026-07-21T15:57:49.481,19.885,6.7227,6.9363
2026-07-21T15:57:49.499,19.887,6.6052,6.995
2026-07-21T15:57:49.499,19.887,6.4681,6.9559
2026-07-21T15:57:49.499,19.8901,6.5073,7.0929
2026-07-21T15:57:49.515,19.897,6.4485,7.23
2026-07-21T15:57:49.522,19.9287,6.7422,7.1125
2026-07-21T15:57:49.560,19.9287,6.7031,7.1517
2026-07-21T15:57:49.560,19.9448,6.5269,7.1125
2026-07-21T15:57:49.560,19.9448,7.1143,7.0146
2026-07-21T15:57:49.568,19.9487,6.5856,7.0342
2026-07-21T15:57:49.578,19.9558,6.7814,7.0538
2026-07-21T15:57:49.581,19.9641,6.5856,7.1908
2026-07-21T15:57:49.598,20.0043,6.4681,7.2104
2026-07-21T15:57:49.610,20.0081,6.6248,7.0342
2026-07-21T15:57:49.610,20.0081,6.7618,7.1908
2026-07-21T15:57:49.626,20.013,6.7618,7.0538
2026-07-21T15:57:49.637,20.013,6.6443,7.1125
2026-07-21T15:57:49.645,20.0238,6.5269,7.0538
2026-07-21T15:57:49.660,20.0677,6.5464,6.995
2026-07-21T15:57:49.678,20.0677,6.6248,6.9754
2026-07-21T15:57:49.678,20.0709,6.429,7.2887
2026-07-21T15:57:49.689,20.0756,6.5856,7.1125
2026-07-21T15:57:49.694,20.0789,6.6443,7.3083
2026-07-21T15:57:49.705,20.0867,6.5073,7.1517
2026-07-21T15:57:49.736,20.1368,6.7422,6.9363
2026-07-21T15:57:49.736,20.1368,6.8206,7.1125
2026-07-21T15:57:49.736,20.1388,6.6443,7.0734
2026-07-21T15:57:49.736,20.1388,6.6052,6.8188
2026-07-21T15:57:49.760,20.1457,6.5464,7.1713
2026-07-21T15:57:49.767,20.1495,6.4485,7.2496
2026-07-21T15:57:49.812,20.1974,6.7031,7.1713
2026-07-21T15:57:49.814,20.1995,6.6248,7.1713
2026-07-21T15:57:49.814,20.1995,6.6443,7.1908
2026-07-21T15:57:49.814,20.1995,6.9185,7.0538
2026-07-21T15:57:49.820,20.1995,6.4485,6.995
2026-07-21T15:57:49.830,20.1995,6.566,7.0146
2026-07-21T15:57:49.834,20.2129,6.429,7.1125
2026-07-21T15:57:49.873,20.2578,6.566,7.1713
2026-07-21T15:57:49.873,20.2578,6.6248,7.0146
2026-07-21T15:57:49.873,20.2598,6.566,7.2104
2026-07-21T15:57:49.876,20.2598,6.6835,7.0146
2026-07-21T15:57:49.880,20.2681,6.6639,7.1713
2026-07-21T15:57:49.894,20.2769,6.7031,7.0734
2026-07-21T15:57:49.925,20.3168,6.5856,6.7992
2026-07-21T15:57:49.926,20.3209,6.5856,7.1321
2026-07-21T15:57:49.926,20.3236,6.3506,7.1125
2026-07-21T15:57:49.939,20.3236,6.6052,7.1908
2026-07-21T15:57:49.941,20.3236,6.566,7.1517
2026-07-21T15:57:49.958,20.3312,6.7031,7.0538
2026-07-21T15:57:49.969,20.3789,6.9381,6.9363
2026-07-21T15:57:49.988,20.3828,6.5073,7.1321
2026-07-21T15:57:49.988,20.3828,6.6443,6.9559
2026-07-21T15:57:49.998,20.3828,6.5269,7.0146
2026-07-21T15:57:50.012,20.3889,6.5269,7.3671
2026-07-21T15:57:50.012,20.3889,6.5269,7.0146
2026-07-21T15:57:50.052,20.4344,6.5856,7.1908
2026-07-21T15:57:50.052,20.4344,6.6248,7.0342
2026-07-21T15:57:50.052,20.4398,6.7227,7.1125
2026-07-21T15:57:50.052,20.4398,6.6443,7.1321
2026-07-21T15:57:50.068,20.4453,6.6443,6.9167
2026-07-21T15:57:50.070,20.4503,6.6052,7.0342
2026-07-21T15:57:50.094,20.5007,6.5269,7.1321
2026-07-21T15:57:50.101,20.5007,6.6443,7.1125
2026-07-21T15:57:50.101,20.5007,6.6052,7.1517
2026-07-21T15:57:50.115,20.5007,6.8206,7.1517
2026-07-21T15:57:50.126,20.5007,7.0164,6.858
2026-07-21T15:57:50.137,20.5137,6.5464,7.2104
