4.1290283 4.1290283 4.1290283 4.1290283 4.1290283 4.1290283 4.1290283 4.1290283 4.1290283 4.1290283 4.1290283 4.1290283 4.1290283 4.1290283 4.1290283 4.1290283 4.1290283 4.1290283 4.1290283 4.1290283 15.609741 15.911865 21.148682 19.23523 15.911865 15.005493 19.134521 16.012573 -9.667969 -16.616821 -13.796997 -6.8481445 1.3092041 12.084961 21.75293 21.24939 18.530273 4.9346924 -16.516113 -26.486206 -18.933105 -25.479126 -38.772583 -31.723022 -5.6396484 10.473633 7.8552246 18.429565 31.018066 24.472046 15.408325 19.839478 33.032227 33.9386 20.947266 7.2509766 3.0212402 -4.7332764 -34.94568 -67.07153 -81.87561 -91.744995 -86.91101 -85.29968 -82.681274 -50.958252 0.9063721 43.90869 56.69861 51.159668 36.758423 22.055054 15.811157 14.401245 10.977173 0.70495605 -13.796997 -30.010986 -37.46338 -36.95984 -34.44214 -15.811157 11.178589 24.572754 21.652222 12.789917 11.782837 25.881958 20.343018 9.667969 11.782837 16.21399 11.279297 19.839478 25.479126 25.177002 21.148682 8.358765 -11.682129 -7.1502686 2.7191162 5.1361084 2.7191162 0.30212402 19.033813 17.019653 13.696289 12.789917 24.472046 8.560181 -16.71753 -31.018066 -23.565674 -17.22107 0.60424805 11.782837 33.43506 33.737183 11.883545 -4.9346924 -12.991333 -36.758423 -46.42639 -55.490112 -69.992065 -61.73401 -25.78125 33.636475 49.95117 57.403564 77.74658 82.681274 59.921265 21.954346 2.4169922 -7.5531006 -7.7545166 -0.50354004 9.466553 5.5389404 -1.6113281 -16.21399 -8.660889 -4.1290283 8.963013 26.486206 28.097534 20.947266 9.970093 -12.387085 -30.31311 -42.39807 -50.857544 -44.51294 -36.95984 -31.219482 -24.572754 -21.24939 -5.0354004 -10.977173 -7.6538086 -7.0495605 -16.113281 -13.494873 -7.3516846 -1.6113281 -2.4169922 -3.3233643 -4.4311523 -4.6325684 0.60424805 2.3162842 2.7191162 5.7403564 5.7403564 0.50354004 5.5389404 0.9063721 -3.6254883 -13.696289 -9.970093 -5.1361084 -8.157349 -10.473633 -11.581421 -5.0354004 -0.9063721 1.2084961 -6.0424805 0.20141602 8.862305 6.9488525 9.365845 14.904785 18.22815 15.206909 -5.6396484 -11.279297 -19.436646 -23.162842 
3.0212402 4.4311523 1.2084961 2.5177002 0.10070801 -0.40283203 3.7261963 0.50354004 3.5247803 1.5106201 1.0070801 -7.4523926 -10.272217 -5.5389404 -3.5247803 -0.80566406 0.40283203 -2.0141602 -1.7120361 7.0495605 7.5531006 9.164429 9.265137 8.358765 4.9346924 15.408325 12.588501 6.7474365 4.5318604 5.5389404 1.8127441 1.9134521 -1.4099121 2.4169922 14.099121 27.79541 38.36975 30.715942 29.910278 11.581421 -6.3446045 -13.897705 -11.984253 0.60424805 8.761597 17.321777 13.394165 -9.869385 -27.191162 -23.464966 -9.667969 -3.2226562 -1.2084961 2.8198242 -1.9134521 -6.7474365 6.0424805 4.9346924 -3.0212402 -18.328857 -29.003906 -12.387085 -2.3162842 5.1361084 8.560181 12.286377 13.998413 15.509033 9.567261 2.2155762 0 -7.7545166 -20.645142 -19.23523 -10.070801 -8.157349 -5.4382324 -10.977173 -15.509033 -14.501953 -13.696289 -7.5531006 0.80566406 7.5531006 3.9276123 -7.9559326 -6.8481445 -13.696289 -9.869385 -7.7545166 -10.171509 -10.876465 -6.5460205 -2.7191162 2.4169922 2.4169922 7.5531006 -0.40283203 -15.005493 -8.761597 2.9205322 6.0424805 17.523193 13.998413 2.6184082 3.9276123 12.588501 15.408325 8.963013 9.466553 2.2155762 2.8198242 3.3233643 3.6254883 6.8481445 10.272217 17.422485 20.645142 23.162842 20.040894 7.3516846 -6.2438965 -8.761597 -6.4453125 -6.1431885 -8.660889 -2.0141602 7.6538086 8.660889 6.7474365 4.9346924 1.7120361 -4.0283203 -10.977173 -24.77417 -19.134521 -12.991333 -8.459473 -5.9417725 -2.9205322 -7.6538086 -7.7545166 -8.056641 -5.2368164 -9.869385 -2.5177002 -8.963013 -1.7120361 -3.2226562 0.80566406 4.5318604 1.7120361 8.761597 10.272217 10.473633 5.8410645 7.0495605 3.7261963 -0.80566406 0.9063721 -5.2368164 -4.1290283 -5.4382324 -0.70495605 5.0354004 2.7191162 2.5177002 -1.4099121 -9.365845 -10.574341 -3.6254883 5.5389404 4.1290283 11.178589 6.8481445 4.1290283 3.4240723 -6.3446045 -8.358765 -12.487793 -14.602661 -11.380005 -2.5177002 4.6325684 7.0495605 4.1290283 -0.60424805 -6.1431885 3.0212402 5.3375244 7.6538086 11.380005 8.459473 5.4382324 4.3304443 3.3233643 9.667969 13.696289 13.696289 3.0212402 
2747.113 3299.8992 3299.8992 3299.8992 3299.8992 3299.8992 3299.8992 3299.8992 3299.8992 3299.8992 3299.8992 3299.8992 3299.8992 3299.8992 3299.8992 3299.8992 3299.8992 3285.498 3268.6797 3271.1975 3288.1165 3299.8992 -3278.3477 -3262.5366 -3246.3225 -3230.0078 -3214.096 -3198.3855 -3182.776 -3167.3674 -3152.1606 -3136.9536 -3121.9482 -3107.144 -3092.4407 -3077.8381 -3063.4368 -3049.0356 -3032.4187 -629.62646 2603.5034 3299.8992 3299.8992 3299.8992 3299.8992 3299.8992 3299.8992 3299.8992 3299.8992 3299.8992 3299.8992 3299.8992 3299.8992 3299.8992 3299.8992 3299.8992 3299.8992 3286.908 3270.0896 3271.4995 3288.6199 3299.8992 -3278.549 -3261.8315 -3245.6177 -3229.8064 -3214.096 -3198.3855 -3182.8765 -3167.3674 -3152.1606 -3136.9536 -3122.0488 -3107.2449 -3092.4407 -3077.8381 -3063.3362 -3049.1362 -3020.1323 -476.4496 2580.4412 3299.8992 3299.8992 3299.8992 3299.8992 3299.8992 3299.8992 3299.8992 3299.8992 3299.8992 3299.8992 3299.8992 3299.8992 3299.8992 3299.8992 3299.8992 3299.8992 3286.1023 3269.3848 3269.8882 3287.0085 3299.8992 -3279.4556 -3263.4429 -3247.229 -3231.015 -3215.103 -3199.292 -3183.6821 -3168.274 -3152.9663 -3137.86 -3122.8545 -3108.1511 -3093.2463 -3078.7444 -3064.2424 -3049.8413 -3033.728 -665.2771 2501.486 3299.8992 3299.8992 3299.8992 3299.8992 3299.8992 3299.8992 3299.8992 3299.8992 3299.8992 3299.8992 3299.8992 3299.8992 3299.8992 3299.8992 3299.8992 3299.8992 3286.6057 3269.8882 3269.989 3287.1094 3299.8992 -3279.5562 -3263.5437 -3247.4304 -3231.2163 -3215.2039 -3199.4934 -3183.8835 -3168.3745 -3153.1677 -3138.0615 -3123.1567 -3108.1511 -3093.5486 -3078.8452 -3064.3433 -3050.1433 -3035.8428 -733.95996 2510.5498 3299.8992 3299.8992 3299.8992 3299.8992 3299.8992 3299.8992 3299.8992 3299.8992 3299.8992 3299.8992 3299.8992 3299.8992 3299.8992 3299.8992 3299.8992 3299.8992 3286.6057 3269.989 3268.579 3285.8 3299.8992 -3281.1675 -3264.2485 -3248.1353 -3232.3242 -3216.513 -3200.8025 -3185.092 -3169.7844 -3154.4768 -3139.3706 -3124.2644 -3109.4604 -3094.6562 -3080.1543 -3065.6523 -3051.2512 -3036.8499 -775.0488 
3110.568 3299.8992 3299.8992 3299.8992 3299.8992 3299.8992 3299.8992 3299.8992 3299.8992 3299.8992 3299.8992 3299.8992 3299.8992 3299.8992 3298.2878 3283.383 3268.579 3253.6743 3234.6404 3240.8843 3256.7961 3272.3052 3288.1165 3299.8992 -3281.2683 -3266.0613 -3251.2573 -3236.4531 -3221.7498 -3207.3486 -3192.8467 -3178.4453 -3164.2456 -3150.0457 -3136.148 -3122.2502 -3108.4534 -3094.8577 -2087.8784 749.1669 3247.6318 3299.8992 3299.8992 3299.8992 3299.8992 3299.8992 3299.8992 3299.8992 3299.8992 3299.8992 3299.8992 3299.8992 3299.8992 3299.8992 3294.8638 3280.0598 3265.155 3250.2502 3234.5398 3236.9568 3253.07 3268.4783 3284.5916 3299.5972 -3285.0952 -3269.7876 -3254.9834 -3240.1794 -3225.5767 -3210.974 -3196.3713 -3182.0708 -3167.871 -3153.772 -3139.6729 -3125.8757 -3112.0789 -3098.3826 -2639.859 -5.3375244 2612.1643 3299.8992 3299.8992 3299.8992 3299.8992 3299.8992 3299.8992 3299.8992 3299.8992 3299.8992 3299.8992 3299.8992 3299.8992 3299.8992 3298.892 3283.8867 3268.982 3254.2786 3238.4673 3239.0715 3255.0842 3270.4924 3286.5051 3299.8992 -3282.9802 -3267.7734 -3252.8687 -3238.1653 -3223.462 -3208.96 -3194.458 -3180.0566 -3165.857 -3151.7578 -3137.7593 -3123.8616 -3110.0647 -3096.469 -2421.0205 311.8927 2807.2356 3299.8992 3299.8992 3299.8992 3299.8992 3299.8992 3299.8992 3299.8992 3299.8992 3299.8992 3299.8992 3299.8992 3299.8992 3299.8992 3297.7844 3282.8796 3268.0754 3253.1707 3237.3596 3238.6687 3254.782 3270.1904 3286.0015 3299.8992 -3283.383 -3268.0754 -3253.2715 -3238.568 -3223.8647 -3209.3628 -3194.8608 -3180.4595 -3166.2598 -3152.1606 -3138.0615 -3124.2644 -3110.4675 -3096.7712 -2590.512 67.67578 2620.8252 3299.8992 3299.8992 3299.8992 3299.8992 3299.8992 3299.8992 3299.8992 3299.8992 3299.8992 3299.8992 3299.8992 3299.8992 3299.8992 3299.5972 3284.6924 3269.8882 3254.9834 3239.4744 3239.0715 3255.0842 3270.5933 3286.5051 3299.8992 -3282.7788 -3268.0754 -3252.7678 -3238.0645 -3223.361 -3208.7585 -3194.3572 -3179.956 -3165.6555 -3151.5564 -3137.6587 -3123.761 -3109.9639 -3096.2676 -2624.2493 -149.6521 
-2313.9678 3135.1409 3151.4556 3167.0654 3182.4736 3197.7812 3213.5925 3228.7993 3243.6035 3258.609 3273.715 3288.6199 3299.8992 -3281.8726 -3267.3706 -3252.9692 -3238.4673 -3224.2676 -3019.931 3299.8992 3299.8992 3299.8992 3299.8992 3299.8992 3299.8992 3298.1873 3283.6853 3268.0754 3253.2715 3238.4673 3223.6633 3208.96 3194.1558 3179.6538 3165.0513 3150.7507 3136.3494 2959.4055 1266.3025 -664.57214 -2237.732 3135.3423 3151.4556 3167.3674 3182.5745 3197.9827 3213.693 3228.9001 3243.704 3258.8103 3273.715 3288.7207 3299.8992 -3281.8726 -3267.2698 -3252.7678 -3238.3667 -3224.1667 -3110.4675 3299.8992 3299.8992 3299.8992 3299.8992 3299.8992 3299.8992 3299.5972 3284.3901 3269.0825 3254.6814 3239.978 3225.1738 3210.5713 3195.767 3181.0637 3166.5618 3152.0598 3137.9607 3010.0615 1391.1804 -499.2096 -1971.46 -3250.3508 3149.1394 3164.9504 3180.1575 3195.6665 3211.4775 3226.4832 3241.4885 3256.5947 3271.6003 3286.4043 3299.8992 -3283.9873 -3269.3848 -3254.9834 -3240.4814 -3226.181 -3118.927 3299.8992 3299.8992 3299.8992 3299.8992 3299.8992 3299.8992 3297.1802 3282.6782 3267.1692 3252.2644 3237.561 3222.7568 3207.953 3193.451 3178.7476 3164.2456 3149.8442 3135.443 2955.5786 1193.9941 -800.62866 -2367.041 3136.2488 3152.362 3167.9717 3183.4807 3198.8892 3214.1968 3229.7058 3244.9126 3260.0188 3275.0244 3289.8284 3299.8992 -3280.664 -3266.162 -3251.5593 -3237.1582 -3222.9583 -3163.2385 3299.8992 3299.8992 3299.8992 3299.8992 3299.8992 3299.8992 3299.8992 3285.8 3270.4924 3255.9905 3241.287 3226.5837 3211.7798 3197.0764 3182.4736 3167.871 3153.4697 3139.1692 3092.5415 1556.7444 -462.9547 -2019.4977 3257.0984 3149.6428 3165.5547 3180.7617 3196.2708 3211.9812 3227.188 3241.9922 3256.9976 3272.0032 3286.908 3299.8992 -3283.5845 -3268.982 -3254.5806 -3239.978 -3225.6775 -3209.8662 3042.691 3299.8992 3299.8992 3299.8992 3299.8992 3299.8992 3299.3958 3284.9944 3269.3848 3254.48 3239.6758 3224.9724 3210.269 3195.465 3180.9631 3166.3604 3151.9592 3137.5579 3018.4204 1236.9965 -720.4651 
-194.9707 1349.2859 2651.9438 3299.8992 3299.8992 3299.8992 3299.8992 3299.8992 3299.8992 3299.8992 3299.8992 3299.8992 3299.8992 3299.8992 3299.8992 3299.8992 3299.8992 3299.8992 3299.8992 -958.3374 -3182.8765 -3167.3674 -3152.1606 -3136.6516 -3121.646 -3106.7412 -3092.0378 -3077.3345 -3062.9333 -3048.532 -3034.2314 -3020.1323 -3006.134 -2992.2363 -2978.4392 -2964.8438 -2951.248 -2937.7532 -2884.378 -1525.2228 -7.8552246 1450.296 2650.9368 3299.8992 3299.8992 3299.8992 3299.8992 3299.8992 3299.8992 3299.8992 3299.8992 3299.8992 3299.8992 3299.8992 3299.8992 3299.8992 3299.8992 3299.8992 3299.8992 -344.92493 -3186.7034 -3170.993 -3155.8867 -3140.4785 -3125.2715 -3110.3667 -3095.6633 -3080.96 -3066.458 -3051.956 -3037.857 -3023.7578 -3009.558 -2995.6604 -2981.964 -2968.2678 -2954.672 -2941.1772 -2925.8696 -1745.3705 -317.43164 1097.7173 2403.7993 3299.8992 3299.8992 3299.8992 3299.8992 3299.8992 3299.8992 3299.8992 3299.8992 3299.8992 3299.8992 3299.8992 3299.8992 3299.8992 3299.8992 3299.8992 3299.8992 -545.4346 -3183.5815 -3167.871 -3152.2612 -3137.2559 -3122.351 -3107.4463 -3092.743 -3078.0396 -3063.5376 -3049.1362 -3034.9365 -3020.8374 -3006.9397 -2992.9412 -2979.1443 -2965.448 -2951.8523 -2938.4583 -2925.064 -1979.5166 -347.74475 1127.0233 2530.3894 3299.8992 3299.8992 3299.8992 3299.8992 3299.8992 3299.8992 3299.8992 3299.8992 3299.8992 3299.8992 3299.8992 3299.8992 3299.8992 3299.8992 3299.8992 3299.8992 -234.85107 -3182.0708 -3166.3604 -3150.7507 -3135.6445 -3120.7397 -3105.835 -3091.1316 -3076.5288 -3062.1277 -3047.7263 -3033.4258 -3019.3267 -3005.3284 -2991.4307 -2977.6335 -2963.9373 -2950.4424 -2937.0483 -2923.654 -1878.1036 -302.52686 1255.2246 2747.3145 3299.8992 3299.8992 3299.8992 3299.8992 3299.8992 3299.8992 3299.8992 3299.8992 3299.8992 3299.8992 3299.8992 3299.8992 3299.8992 3299.8992 3299.8992 3299.8992 -235.1532 -3183.078 -3167.3674 -3151.7578 -3136.6516 -3121.7468 -3106.842 -3092.0378 -3077.536 -3063.034 -3048.7334 -3034.3323 -3020.3337 -3006.3354 -2992.4377 -2978.54 -2964.8438 -2951.3489 -2937.9546 -2924.4597 -1963.7054 
-1366.4062 -2289.6973 -3201.2053 3114.093 3130.8105 3147.3267 3163.742 3180.1575 3196.17 3212.2832 3228.296 3244.107 3260.1196 3275.9307 3291.4397 3299.8992 -3277.542 -3262.2344 -2842.1814 2536.8347 3299.8992 3299.8992 3299.8992 3288.6199 3273.5137 3258.206 3242.8984 3227.2888 3211.8804 3195.767 3180.4595 3165.3533 3149.945 3134.9395 3119.934 3105.0293 3087.909 2751.5442 1283.725 -187.82043 -1349.3866 -2293.927 -3195.5657 3110.568 3127.185 3143.7012 3160.2173 3176.532 3192.6453 3208.7585 3224.8718 3240.8843 3256.5947 3272.406 3288.1165 3299.8992 -3280.966 -3265.6584 -2873.5015 2493.4294 3299.8992 3299.8992 3299.8992 3285.901 3270.7947 3255.2856 3239.978 3224.5696 3209.0605 3192.7458 3177.6396 3162.332 3147.2258 3132.321 3117.1143 3102.2095 3086.2976 2680.0415 1245.6573 -138.3728 -1244.9524 -2124.234 -2976.123 3105.4321 3122.1497 3138.9678 3155.3833 3171.698 3188.0127 3204.0251 3220.0378 3236.0503 3251.8616 3267.6726 3283.2825 3298.892 -3285.498 -3270.291 -3004.724 2216.3818 3299.8992 3299.8992 3297.7844 3282.7788 3267.4712 3252.2644 3236.856 3221.347 3206.0393 3189.8254 3174.8198 3159.5122 3144.3054 3129.1992 3114.1936 3099.3896 3081.4636 2590.6128 1207.0862 -229.41284 -1313.736 -2190.3992 -3041.8853 3104.727 3121.4446 3138.162 3154.5776 3170.7915 3187.207 3203.2195 3219.3328 3235.2446 3250.955 3266.7664 3282.376 3298.1873 -3286.4043 -3271.0967 -3042.691 2236.5234 3299.8992 3299.8992 3297.0793 3282.074 3266.7664 3251.5593 3236.2517 3220.7427 3205.3345 3189.2212 3174.0142 3158.8074 3143.6003 3128.4941 3113.5894 3098.6846 3081.0608 2537.741 1054.8157 -402.3285 -1456.5399 -2438.4429 3234.0361 3109.1582 3125.7751 3142.4927 3158.908 3175.122 3191.336 3207.4492 3223.462 3239.4744 3255.3862 3270.7947 3286.7065 3299.8992 -3282.2754 -3266.9678 -3080.0537 1984.3506 3299.8992 3299.8992 3299.8992 3287.1094 3271.8018 3256.3933 3241.0857 3225.5767 3210.0676 3193.8538 3178.7476 3163.44 3148.3337 3133.1267 3118.1213 3103.2166 3085.492 2548.3154 1099.4293 -346.0327 
-563.7634 -193.96362 108.66394 411.1908 1003.8574 2391.211 3230.1086 3299.8992 3299.8992 3299.8992 3299.8992 3299.8992 3299.8992 3299.8992 3299.8992 3299.8992 3299.8992 3299.8992 2869.574 308.56934 -1608.2062 -3011.27 -3076.3274 -3061.624 -3046.9207 -3032.721 -3018.521 -3004.6233 -2990.625 -2977.1301 -2963.5344 -2950.0396 -2936.5447 -2923.0498 -2554.8613 -2124.1333 -1831.778 -1389.7705 -901.7395 -524.3866 -194.36646 81.7749 221.96045 374.23096 927.62146 2302.3865 3049.539 3299.8992 3299.8992 3299.8992 3299.8992 3299.8992 3299.8992 3299.8992 3299.8992 3299.8992 3299.8992 3299.8992 2846.0083 420.55664 -1438.7146 -2883.7737 -3078.3416 -3063.6382 -3049.1362 -3034.9365 -3020.7366 -3006.7383 -2992.9412 -2979.0435 -2965.5486 -2951.9531 -2938.5588 -2687.393 -2326.1536 -2079.016 -1737.3138 -1306.0822 -806.67114 -547.75085 -248.04382 -13.394165 110.27527 293.96667 957.3303 2448.413 3299.8992 3299.8992 3299.8992 3299.8992 3299.8992 3299.8992 3299.8992 3299.8992 3299.8992 3299.8992 3299.8992 3299.8992 2898.7793 437.37488 -1500.3479 -3074.1118 -3083.9812 -3069.3787 -3054.776 -3040.5762 -3026.3762 -3012.277 -2998.3794 -2984.4817 -2970.8862 -2957.492 -2943.997 -2845.0012 -2511.0535 -2097.2441 -1888.3759 -1678.7018 -1405.0781 -1216.8549 -915.5365 -561.2457 -293.36243 54.986572 743.6279 2175.8972 3166.0583 3299.8992 3299.8992 3299.8992 3299.8992 3299.8992 3299.8992 3299.8992 3299.8992 3299.8992 3299.8992 3299.8992 3081.4636 624.0875 -1171.4355 -2584.5703 -3073.2056 -3058.8042 -3044.3022 -3030.1025 -3015.9026 -3002.005 -2988.1072 -2974.3103 -2960.7146 -2947.3206 -2934.027 -2919.1223 -2568.0542 -2142.9656 -1734.8969 -1250.3906 -643.32275 -324.68262 -118.33191 105.03845 268.18542 462.9547 1121.3837 2380.7373 3166.0583 3299.8992 3299.8992 3299.8992 3299.8992 3299.8992 3299.8992 3299.8992 3299.8992 3299.8992 3299.8992 3299.8992 3079.4495 694.5831 -1294.1986 -2749.0264 -3084.6863 -3070.1843 -3055.5815 -3041.281 -3027.0813 -3013.0828 -2999.0845 -2985.1868 -2971.591 -2958.0962 -2944.6013 -2834.1248 -2441.2627 -2202.2827 -1906.7047 -1688.7726 -1165.091 -715.4297 

10.473633 18.933105 50.354004 39.175415 33.535767 56.19507 69.488525 64.55383 52.770996 52.56958 40.38391 13.998413 -41.290283 -65.56091 -50.55542 -23.364258 -21.75293 -21.75293 -21.75293 -21.75293 -21.75293 -21.75293 -21.75293 -21.75293 -21.75293 -21.75293 -21.75293 -21.75293 -21.75293 -21.75293 -21.75293 -21.75293 -21.75293 -21.75293 -21.75293 -21.75293 -21.75293 -42.095947 -47.131348 -43.606567 -36.95984 -29.910278 -11.984253 5.8410645 5.3375244 4.2297363 5.3375244 -13.394165 -15.005493 -18.73169 -15.509033 0.40283203 9.265137 7.8552246 22.457886 43.304443 41.290283 17.623901 3.4240723 3.9276123 18.026733 29.608154 23.565674 12.588501 -14.904785 -31.723022 -1.0070801 29.003906 36.758423 31.622314 24.371338 25.479126 21.24939 17.120361 24.975586 15.609741 -18.530273 -36.4563 -48.138428 -55.59082 -51.663208 -41.4917 -19.537354 -2.0141602 -2.3162842 -11.480713 -17.926025 -16.818237 -22.055054 -32.025146 -43.606567 -29.205322 -16.012573 -11.682129 -4.1290283 12.185669 13.595581 11.682129 15.408325 7.4523926 6.3446045 3.0212402 3.4240723 3.4240723 13.394165 18.933105 8.459473 -0.20141602 4.9346924 11.077881 23.565674 25.378418 20.947266 21.551514 10.070801 -1.3092041 -3.9276123 -3.9276123 -3.9276123 -3.9276123 -3.9276123 -3.9276123 -3.9276123 -3.9276123 -3.9276123 -3.9276123 -3.9276123 -3.9276123 -3.9276123 -3.9276123 -3.9276123 -3.9276123 -3.9276123 -3.9276123 -3.9276123 -3.9276123 -3.9276123 1.9134521 8.560181 13.595581 3.6254883 1.8127441 3.1219482 12.185669 28.701782 27.694702 18.832397 20.443726 26.989746 -8.660889 -52.267456 -79.156494 -68.78357 -43.203735 -12.789917 0.40283203 7.5531006 8.258057 11.682129 14.602661 23.464966 12.286377 -8.459473 -12.789917 -3.2226562 -3.3233643 -14.904785 9.365845 23.062134 7.4523926 13.696289 39.678955 42.599487 60.827637 54.68445 38.671875 3.5247803 -34.643555 -37.36267 -20.443726 -15.609741 -14.703369 -13.696289 -15.206909 -13.494873 -4.2297363 5.1361084 0 -5.9417725 -11.380005 -2.8198242 7.7545166 -1.7120361 -4.2297363 -9.365845 -25.076294 -15.206909 
12.789917 2.8198242 -1.5106201 2.8198242 7.4523926 13.998413 22.76001 13.897705 6.5460205 -3.0212402 0.9063721 6.5460205 -7.7545166 -27.593994 -23.867798 -6.3446045 4.7332764 10.372925 4.5318604 3.7261963 -0.9063721 -3.9276123 -6.5460205 -11.682129 -18.328857 -22.155762 -30.010986 -30.413818 -14.300537 -8.258057 -8.358765 -6.2438965 -1.4099121 0.9063721 4.0283203 4.9346924 -3.2226562 -0.20141602 -11.984253 -21.853638 -14.501953 -13.595581 1.1077881 9.567261 2.3162842 4.9346924 3.8269043 6.6467285 12.286377 12.991333 6.1431885 10.171509 13.696289 2.9205322 15.005493 10.171509 2.2155762 -0.40283203 -0.70495605 -9.970093 -9.970093 -9.164429 -4.5318604 -7.3516846 -12.789917 -17.019653 -8.862305 -5.0354004 1.0070801 -3.1219482 2.4169922 -5.3375244 3.3233643 6.5460205 9.667969 11.178589 5.8410645 -4.4311523 -4.3304443 -6.5460205 -7.1502686 3.2226562 14.501953 19.839478 11.279297 -3.0212402 0.40283203 -0.20141602 2.1148682 -2.0141602 -0.10070801 -1.1077881 4.6325684 -1.2084961 3.0212402 11.279297 12.991333 6.2438965 11.380005 6.7474365 2.0141602 -2.0141602 -3.2226562 2.0141602 9.365845 7.3516846 1.3092041 -6.8481445 -7.9559326 -7.5531006 -5.1361084 -9.164429 -10.876465 -5.7403564 -7.2509766 -8.056641 -5.0354004 -4.3304443 -1.0070801 6.5460205 9.164429 3.9276123 12.689209 14.804077 18.630981 15.509033 18.22815 9.970093 -1.5106201 5.1361084 5.7403564 10.372925 1.3092041 7.1502686 1.8127441 8.157349 11.279297 5.8410645 8.358765 2.8198242 -3.2226562 -11.178589 -8.459473 -2.3162842 0.60424805 -8.660889 -8.056641 -15.408325 -5.2368164 0.20141602 -3.3233643 -11.380005 -17.120361 -14.199829 -10.171509 0.20141602 6.9488525 8.157349 7.4523926 18.429565 24.472046 29.406738 21.350098 6.0424805 9.567261 10.070801 4.4311523 6.3446045 26.28479 41.088867 37.86621 24.874878 17.22107 8.459473 4.1290283 -6.2438965 -29.507446 -42.297363 -42.39807 -38.571167 -35.147095 -32.125854 -22.659302 -19.23523 -16.21399 -7.8552246 -9.063721 -20.141602 -24.27063 -20.74585 -14.904785 -6.5460205 -7.8552246 -6.8481445 -1.6113281 -7.2509766 -12.185669 
-3265.457 -3249.3438 -3233.13 -3217.1172 -3201.4067 -3185.6963 -3170.288 -3154.9805 -3139.8743 -3124.8687 -3109.9639 -3095.2605 -3080.5571 -3066.156 -3051.7546 -3037.454 -881.4972 2288.388 3299.8992 3299.8992 3299.8992 3299.8992 3299.8992 3299.8992 3299.8992 3299.8992 3299.8992 3299.8992 3299.8992 3299.8992 3299.8992 3299.8992 3299.8992 3299.8992 3286.8071 3270.291 3267.7734 3284.8938 3299.8992 -3282.1746 -3265.3564 -3249.1423 -3233.2305 -3217.4194 -3201.9104 -3186.2 -3170.7915 -3155.484 -3140.3777 -3125.2715 -3110.3667 -3095.6633 -3081.0608 -3066.5588 -3052.2583 -3037.9578 -847.15576 2215.6768 3299.8992 3299.8992 3299.8992 3299.8992 3299.8992 3299.8992 3299.8992 3299.8992 3299.8992 3299.8992 3299.8992 3299.8992 3299.8992 3299.8992 3299.8992 3299.8992 3286.7065 3270.0896 3267.2698 3284.3901 3299.8992 -3282.376 -3265.457 -3249.4446 -3233.432 -3217.7214 -3202.011 -3186.4014 -3170.8923 -3155.5847 -3140.3777 -3125.5737 -3110.7695 -3095.8647 -3081.2622 -3066.6594 -3052.4597 -3038.0583 -862.3627 2257.2693 3299.8992 3299.8992 3299.8992 3299.8992 3299.8992 3299.8992 3299.8992 3299.8992 3299.8992 3299.8992 3299.8992 3299.8992 3299.8992 3299.8992 3299.8992 3299.8992 3286.7065 3270.1904 3266.464 3283.6853 3299.8992 -3282.8796 -3266.9678 -3250.653 -3234.5398 -3218.527 -3202.8167 -3187.1062 -3171.698 -3156.3904 -3141.1833 -3126.178 -3111.2732 -3096.469 -3081.8665 -3067.465 -3053.064 -3038.864 -995.0958 2080.728 3299.8992 3299.8992 3299.8992 3299.8992 3299.8992 3299.8992 3299.8992 3299.8992 3299.8992 3299.8992 3299.8992 3299.8992 3299.8992 3299.8992 3299.8992 3299.8992 3286.8071 3270.3918 3265.9607 3283.081 3299.8992 -3283.5845 -3266.867 -3250.5522 -3234.6404 -3218.93 -3203.119 -3187.509 -3172.2014 -3156.7932 -3141.687 -3126.6814 -3111.7766 -3097.0732 -3082.3699 -3067.9688 -3053.4668 -3039.2668 -855.5145 2296.7468 3299.8992 3299.8992 3299.8992 3299.8992 3299.8992 3299.8992 3299.8992 3299.8992 3299.8992 3299.8992 3299.8992 3299.8992 3299.8992 3299.8992 3299.8992 3299.8992 3285.0952 3268.881 3263.5437 
3299.8992 -3281.1675 -3266.3635 -3251.1565 -3236.2517 -3221.6492 -3207.0464 -3192.5444 -3178.3447 -3164.0442 -3150.0457 -3135.9465 -3122.1497 -3108.3525 -3094.6562 -2407.1228 443.51807 2925.5676 3299.8992 3299.8992 3299.8992 3299.8992 3299.8992 3299.8992 3299.8992 3299.8992 3299.8992 3299.8992 3299.8992 3299.8992 3299.8992 3298.3887 3283.484 3268.579 3253.775 3238.3667 3237.1582 3253.1707 3269.1833 3284.491 3299.8992 -3284.8938 -3269.989 -3254.782 -3239.8772 -3225.1738 -3210.6719 -3196.2708 -3181.7688 -3167.6697 -3153.5706 -3139.4714 -3125.6743 -3111.7766 -3098.1812 -2848.526 -376.84937 2292.3157 3299.8992 3299.8992 3299.8992 3299.8992 3299.8992 3299.8992 3299.8992 3299.8992 3299.8992 3299.8992 3299.8992 3299.8992 3299.8992 3299.8992 3287.8142 3272.9094 3258.0046 3242.5964 3240.1794 3256.2927 3272.2046 3287.5122 3299.8992 -3281.8726 -3266.9678 -3251.7607 -3236.9568 -3222.2534 -3207.6506 -3193.1487 -3178.8481 -3164.6484 -3150.5493 -3136.5508 -3122.754 -3108.8562 -3095.2605 -2543.8843 305.14526 2854.9712 3299.8992 3299.8992 3299.8992 3299.8992 3299.8992 3299.8992 3299.8992 3299.8992 3299.8992 3299.8992 3299.8992 3299.8992 3299.8992 3299.1943 3284.2896 3269.4854 3254.5806 3239.0715 3236.3525 3252.4658 3268.4783 3283.786 3299.295 -3285.498 -3270.6938 -3255.5876 -3240.5823 -3225.879 -3211.2761 -3196.875 -3182.5745 -3168.173 -3154.074 -3140.0757 -3126.178 -3112.3809 -3098.6846 -2742.682 29.406738 2613.1714 3299.8992 3299.8992 3299.8992 3299.8992 3299.8992 3299.8992 3299.8992 3299.8992 3299.8992 3299.8992 3299.8992 3299.8992 3299.8992 3298.59 3283.786 3268.7805 3253.9763 3238.568 3235.5469 3251.6602 3267.2698 3282.9802 3298.3887 -3286.3037 -3270.996 -3256.192 -3241.287 -3226.6846 -3211.9812 -3197.4792 -3183.1787 -3168.9788 -3154.779 -3140.8813 -3126.8828 -3113.1865 -3099.4902 -2819.4214 -268.68896 2339.6484 3299.8992 3299.8992 3299.8992 3299.8992 3299.8992 3299.8992 3299.8992 3299.8992 3299.8992 3299.8992 3299.8992 3299.8992 3299.8992 3299.8992 3285.6995 3270.6938 3255.89 3240.6829 3236.2517 
3299.8992 3299.8992 3299.8992 3287.8142 3272.5066 3258.0046 3243.3013 3228.4973 3213.693 3198.9897 3184.2864 3169.7844 3155.2825 3140.8813 3024.1606 1352.5085 -591.3574 -2137.7288 3271.399 3153.8726 3169.583 3184.79 3200.299 3216.0095 3231.2163 3246.121 3261.026 3276.0315 3290.9363 3299.8992 -3279.5562 -3264.9536 -3250.4517 -3236.1511 -3221.9512 -3207.7515 2896.06 3299.8992 3299.8992 3299.8992 3299.8992 3299.8992 3299.8992 3289.4255 3273.9165 3258.9111 3244.2078 3229.303 3214.5996 3199.8962 3185.1929 3170.691 3156.189 3141.687 3076.0254 1437.3047 -551.37634 -2061.795 -3275.3264 3153.5706 3169.281 3185.092 3200.5005 3215.5059 3231.015 3246.222 3261.3281 3276.3335 3291.2383 3299.8992 -3279.3547 -3264.7522 -3250.2502 -3235.8489 -3221.6492 -3207.55 2879.242 3299.8992 3299.8992 3299.8992 3299.8992 3299.8992 3299.8992 3289.224 3273.816 3259.314 3244.7112 3229.8064 3215.0024 3200.299 3185.6963 3171.0938 3156.5918 3142.0898 3107.0435 1600.4517 -407.06177 -2082.3394 3206.543 3152.5635 3168.3745 3183.5815 3199.0906 3214.7002 3230.0078 3244.9126 3260.0188 3274.9236 3289.8284 3299.8992 -3280.7646 -3266.162 -3251.5593 -3237.1582 -3222.9583 -3208.8591 2512.1611 3299.8992 3299.8992 3299.8992 3299.8992 3299.8992 3299.8992 3289.7278 3274.0173 3259.1125 3244.4092 3229.605 3214.801 3200.1982 3185.4949 3170.8923 3156.3904 3142.0898 3120.5383 1764.2029 -388.4308 -1895.4254 -3069.58 3150.0457 3165.5547 3181.5674 3197.0764 3211.9812 3227.5908 3242.7979 3257.904 3272.9094 3287.8142 3299.8992 -3282.6782 -3268.0754 -3253.473 -3239.1724 -3224.8718 -3210.8733 2229.5745 3299.8992 3299.8992 3299.8992 3299.8992 3299.8992 3299.8992 3288.217 3272.708 3258.307 3243.6035 3228.7993 3213.9954 3199.3926 3184.6892 3169.9858 3155.6853 3141.1833 3060.7178 1447.6776 -600.72327 -2194.931 3138.7664 3154.1748 3169.6838 3185.6963 3201.1047 3216.0095 3231.5186 3246.8262 3261.8315 3276.8372 3291.742 3299.8992 -3278.8513 -3264.2485 -3249.7466 -3235.3455 -3221.347 -3207.2478 2413.3667 
-3135.6445 -3120.5383 -3105.6335 -3090.9302 -3076.3274 -3061.9263 -3047.4243 -3033.1238 -3019.0247 -3005.127 -2991.1284 -2977.3315 -2963.7358 -2950.1404 -2936.6455 -2920.5322 -1647.9858 -23.867798 1519.8853 2938.9617 3299.8992 3299.8992 3299.8992 3299.8992 3299.8992 3299.8992 3299.8992 3299.8992 3299.8992 3299.8992 3299.8992 3299.8992 3299.8992 3299.8992 3299.8992 3299.8992 269.0918 -3189.5232 -3173.8127 -3158.2031 -3142.996 -3128.0913 -3113.086 -3098.3826 -3083.7798 -3069.1772 -3054.776 -3040.5762 -3026.3762 -3012.277 -2998.3794 -2984.5825 -2970.9868 -2957.19 -2943.695 -2930.4016 -2109.5305 -621.97266 821.97876 2140.0452 3299.8992 3299.8992 3299.8992 3299.8992 3299.8992 3299.8992 3299.8992 3299.8992 3299.8992 3299.8992 3299.8992 3299.8992 3299.8992 3299.8992 3299.8992 3299.8992 439.9933 -3184.3872 -3168.576 -3152.9663 -3137.9607 -3122.9553 -3108.0505 -3093.2463 -3078.7444 -3064.2424 -3049.8413 -3035.5408 -3021.4417 -3007.443 -2993.5454 -2979.6477 -2966.0522 -2952.5574 -2938.9617 -2925.6682 -1762.6923 -168.5852 1389.5691 2676.5166 3299.8992 3299.8992 3299.8992 3299.8992 3299.8992 3299.8992 3299.8992 3299.8992 3299.8992 3299.8992 3299.8992 3299.8992 3299.8992 3299.8992 3299.8992 3299.8992 420.0531 -3189.2212 -3173.5107 -3158.3037 -3142.7947 -3127.6885 -3112.7837 -3097.9797 -3083.377 -3068.875 -3054.373 -3040.0725 -3025.9734 -3011.975 -2997.9766 -2984.0789 -2970.4834 -2956.8877 -2943.2922 -2929.898 -2006.9092 -328.61023 1306.5857 2643.1824 3299.8992 3299.8992 3299.8992 3299.8992 3299.8992 3299.8992 3299.8992 3299.8992 3299.8992 3299.8992 3299.8992 3299.8992 3299.8992 3299.8992 3299.8992 3299.8992 630.4321 -3191.7388 -3175.9277 -3160.922 -3145.3125 -3130.2063 -3115.3015 -3100.296 -3085.794 -3071.3928 -3056.79 -3042.5903 -3028.4912 -3014.392 -3000.3936 -2986.5967 -2972.7996 -2959.204 -2945.8098 -2932.2144 -1967.633 -490.85083 1092.0776 2436.3281 3299.8992 3299.8992 3299.8992 3299.8992 3299.8992 3299.8992 3299.8992 3299.8992 3299.8992 3299.8992 3299.8992 3299.8992 3299.8992 3299.8992 3299.8992 3299.8992 940.31067 
3290.0298 3274.6216 3259.314 3243.9055 3228.3965 3212.8875 3196.5728 3181.4666 3166.159 3150.9521 3135.846 3120.8403 3105.9355 3087.909 2545.0928 1070.8282 -389.23645 -1471.6461 -2307.8247 -3060.214 3114.1936 3130.7097 3147.3267 3163.8428 3180.0566 3196.2708 3212.384 3228.296 3244.2078 3260.1196 3275.9307 3291.4397 3299.8992 -3277.542 -3262.2344 -3163.2385 1891.2964 3299.8992 3299.8992 3299.8992 3292.4468 3277.1392 3261.731 3246.4233 3230.9143 3215.5059 3199.1912 3183.9844 3168.576 3153.5706 3138.263 3123.2573 3108.554 3092.4407 2807.5378 1496.1182 -19.537354 -1167.7094 -2031.9855 -2944.7021 3108.1511 3124.8687 3141.5862 3157.901 3174.417 3190.5303 3206.6436 3222.7568 3238.6687 3254.3792 3270.291 3285.901 3299.8992 -3282.8796 -3267.4712 -3176.3306 1880.722 3299.8992 3299.8992 3299.8992 3287.5122 3271.9023 3256.5947 3241.287 3225.778 3210.3699 3194.1558 3178.8481 3163.6414 3148.4343 3133.3281 3118.3228 3103.3171 3085.1897 2598.5686 1116.7511 -433.54797 -1462.4817 -2369.6594 -3203.8237 3112.5823 3129.1992 3145.7153 3162.1306 3178.5461 3194.76 3210.8733 3226.7852 3242.8984 3258.5083 3274.4202 3290.0298 3299.8992 -3279.0527 -3263.5437 -3248.3367 1411.0199 3299.8992 3299.8992 3299.8992 3293.3533 3278.1462 3262.738 3247.4304 3231.9214 3216.4124 3200.1982 3184.8906 3169.6838 3154.4768 3139.4714 3124.2644 3109.3596 3092.2393 2721.6338 1369.4275 -38.87329 -1112.32 -2064.0105 -2967.16 3110.0647 3126.8828 3143.6003 3160.0159 3176.3306 3192.5444 3208.5571 3224.6704 3240.4814 3256.4941 3272.1038 3287.8142 3299.8992 -3281.067 -3265.7593 -3250.653 1323.8068 3299.8992 3299.8992 3299.8992 3291.742 3276.6357 3261.2273 3245.9197 3230.31 3214.9016 3198.587 3183.3801 3168.0725 3152.8655 3137.9607 3122.754 3107.7483 3090.7288 2795.1506 1405.9845 -36.254883 -1109.8022 -2067.7368 -3006.134 3108.6548 3125.3723 3141.8884 3158.606 3174.9207 3191.034 3207.0464 3223.1597 3239.0715 3254.782 3270.8953 3286.4043 3299.8992 -3282.6782 -3267.3706 -3252.063 1269.6259 
-3074.0112 -3059.5093 -3045.2087 -3030.9082 -3016.809 -3003.012 -2989.215 -2975.418 -2961.8225 -2948.4282 -2935.0342 -2735.8337 -2232.9985 -1857.4585 -1410.9192 -1053.6072 -687.735 -454.79736 -199.50256 20.544434 313.2019 878.8788 2288.5894 3265.6584 3299.8992 3299.8992 3299.8992 3299.8992 3299.8992 3299.8992 3299.8992 3299.8992 3299.8992 3299.8992 3299.8992 2969.7783 580.0781 -1250.0885 -2665.8416 -3087.2039 -3072.299 -3057.6965 -3043.2952 -3029.0955 -3015.097 -3001.1992 -2987.4023 -2973.706 -2960.0098 -2946.6155 -2864.5386 -2463.6199 -2087.4756 -1738.8245 -1405.2795 -1024.4019 -739.3982 -423.7793 -58.71277 127.89917 337.0697 915.13367 2271.3684 3299.8992 3299.8992 3299.8992 3299.8992 3299.8992 3299.8992 3299.8992 3299.8992 3299.8992 3299.8992 3299.8992 3299.8992 3214.096 813.62 -1140.5182 -2659.3962 -3091.8364 -3077.133 -3062.631 -3048.1292 -3033.9294 -3019.931 -3005.8318 -2992.1355 -2978.3386 -2964.743 -2951.248 -2937.7532 -2596.7559 -2257.4707 -1968.8416 -1606.4941 -1041.925 -576.85547 -313.80615 -19.033813 192.453 321.35925 847.76 2231.5886 3204.3274 3299.8992 3299.8992 3299.8992 3299.8992 3299.8992 3299.8992 3299.8992 3299.8992 3299.8992 3299.8992 3299.8992 3272.6074 985.22644 -979.6875 -2539.2517 -3095.3613 -3080.658 -3066.0552 -3051.654 -3037.454 -3023.355 -3009.3567 -2995.459 -2981.6619 -2968.0664 -2954.672 -2924.9634 -2564.9321 -2358.078 -1962.0941 -1409.2072 -1013.12256 -837.8906 -501.7273 -193.05725 17.321777 299.60632 926.01013 2124.3347 3049.0356 3299.8992 3299.8992 3299.8992 3299.8992 3299.8992 3299.8992 3299.8992 3299.8992 3299.8992 3299.8992 3299.8992 3103.6194 655.2063 -1268.6188 -2685.5803 -3091.1316 -3076.3274 -3061.9263 -3047.525 -3033.3252 -3019.226 -3005.3284 -2991.4307 -2977.7344 -2964.1387 -2950.6438 -2811.0625 -2394.4336 -2068.643 -1890.8936 -1410.7178 -1076.0651 -628.9215 -280.4718 33.43506 167.67883 345.12634 864.1754 2130.4778 3218.0237 3299.8992 3299.8992 3299.8992 3299.8992 3299.8992 3299.8992 3299.8992 3299.8992 3299.8992 3299.8992 3299.8992 3221.8506 939.4043 

11.380005 18.630981 10.171509 12.789917 28.198242 45.721436 54.18091 40.48462 10.171509 -8.660889 -26.385498 -25.78125 -28.701782 -25.177002 -34.542847 -20.443726 -13.897705 -30.31311 -42.297363 -33.233643 -24.371338 -16.012573 -4.4311523 -11.480713 -20.645142 -12.789917 -6.0424805 0.30212402 28.198242 38.671875 49.749756 46.627808 42.297363 35.95276 47.332764 53.57666 29.104614 2.0141602 -16.113281 -32.42798 -32.42798 -32.42798 -32.42798 -32.42798 -32.42798 -32.42798 -32.42798 -32.42798 -32.42798 -32.42798 -32.42798 -32.42798 -32.42798 -32.42798 -32.42798 -32.42798 -32.42798 -32.42798 -32.42798 -32.42798 0.60424805 12.689209 10.675049 1.8127441 22.961426 23.26355 9.869385 7.9559326 8.056641 2.0141602 7.9559326 13.192749 13.796997 14.300537 27.896118 43.304443 41.592407 43.90869 48.138428 39.37683 37.86621 51.965332 63.043213 55.993652 37.261963 19.23523 15.509033 -3.4240723 -19.134521 -20.74585 2.2155762 15.911865 18.22815 7.8552246 -6.6467285 -27.191162 -39.98108 -62.13684 -65.86304 -79.156494 -84.39331 -67.27295 -44.41223 -21.148682 -19.436646 -16.918945 -28.80249 -19.134521 -19.033813 -23.76709 -30.413818 -37.060547 -40.786743 -39.37683 -41.693115 -39.37683 -45.721436 -31.924438 -27.996826 -37.261963 -24.069214 -1.7120361 38.571167 57.60498 55.18799 39.678955 33.33435 35.95276 45.620728 42.599487 35.247803 35.650635 32.42798 24.77417 9.869385 4.3304443 5.1361084 9.970093 11.380005 15.005493 -1.5106201 -3.4240723 3.4240723 13.897705 22.860718 24.673462 24.975586 21.047974 35.85205 64.35242 77.24304 56.396484 31.420898 15.206909 2.2155762 -35.34851 -47.53418 -52.56958 -59.014893 -50.454712 -39.678955 -40.182495 -36.95984 -33.33435 -32.730103 -25.076294 -8.056641 1.8127441 14.804077 14.300537 8.963013 1.7120361 -4.6325684 8.560181 16.21399 8.560181 11.077881 18.630981 13.092041 -2.1148682 -2.1148682 -2.1148682 -2.1148682 -2.1148682 -2.1148682 -2.1148682 -2.1148682 -2.1148682 -2.1148682 -2.1148682 -2.1148682 -2.1148682 -2.1148682 -2.1148682 -2.1148682 -2.1148682 -2.1148682 -2.1148682 -2.1148682 -2.1148682 
-0.50354004 -0.70495605 6.5460205 -3.0212402 2.9205322 9.265137 15.005493 18.026733 19.73877 18.127441 11.077881 -3.2226562 -7.1502686 -9.869385 3.0212402 13.494873 12.890625 13.796997 15.005493 3.9276123 -7.0495605 -7.2509766 -8.660889 -2.6184082 -0.10070801 4.9346924 4.4311523 4.3304443 13.998413 3.7261963 -6.3446045 -8.258057 -5.3375244 -11.984253 -10.675049 0.40283203 -1.1077881 -12.487793 -14.804077 -13.494873 -15.005493 -13.595581 -20.645142 -15.811157 -8.761597 -1.7120361 10.876465 18.73169 18.328857 20.24231 15.005493 11.883545 10.272217 15.609741 19.335938 11.480713 6.0424805 2.3162842 10.675049 -0.80566406 -2.4169922 -2.5177002 -6.4453125 -5.5389404 -10.876465 -9.970093 -12.084961 -0.9063721 2.6184082 -0.20141602 -0.10070801 2.1148682 1.8127441 -3.7261963 -5.7403564 6.3446045 8.258057 10.372925 -4.7332764 -12.991333 -2.0141602 4.4311523 -4.4311523 -3.3233643 6.4453125 10.574341 17.926025 14.501953 9.164429 11.782837 13.796997 5.8410645 4.9346924 -3.6254883 -3.5247803 3.9276123 10.675049 -1.6113281 -14.703369 -23.26355 -27.996826 -9.768677 -2.6184082 6.9488525 8.862305 9.667969 -0.40283203 -3.6254883 -10.070801 -21.350098 -14.401245 -8.157349 -12.789917 -7.6538086 -5.2368164 0.50354004 7.8552246 16.71753 5.0354004 1.9134521 -0.60424805 -1.4099121 -0.60424805 5.6396484 3.9276123 -2.3162842 -10.876465 -4.0283203 0 4.2297363 9.869385 6.8481445 5.3375244 6.3446045 6.7474365 4.5318604 -2.9205322 1.1077881 0.30212402 6.1431885 8.761597 -0.50354004 -1.8127441 14.099121 22.457886 30.31311 10.171509 2.8198242 1.9134521 5.3375244 18.328857 22.25647 7.7545166 -2.3162842 -9.970093 -16.818237 -9.365845 -0.70495605 -5.3375244 -16.012573 -22.961426 -19.839478 -14.703369 -15.206909 -3.8269043 9.869385 10.574341 16.314697 27.493286 29.104614 12.789917 4.0283203 1.5106201 -3.1219482 -4.8339844 -10.473633 -16.918945 -8.963013 -4.4311523 -3.3233643 -3.0212402 0.20141602 1.4099121 -9.063721 -5.8410645 -9.970093 -15.206909 -15.609741 -9.466553 2.3162842 1.6113281 4.2297363 -5.8410645 -16.415405 -16.516113 -12.991333 -2.8198242 -2.7191162 -8.963013 -10.473633 
3280.5632 3297.7844 -3285.5986 -3269.5862 -3253.372 -3237.2588 -3221.1455 -3205.3345 -3189.7246 -3174.2156 -3158.908 -3143.8018 -3128.6956 -3113.7908 -3099.0874 -3084.384 -3069.882 -3055.481 -3041.281 -1286.4441 1883.6426 3299.8992 3299.8992 3299.8992 3299.8992 3299.8992 3299.8992 3299.8992 3299.8992 3299.8992 3299.8992 3299.8992 3299.8992 3299.8992 3299.8992 3299.8992 3299.8992 3287.21 3270.7947 3265.457 3282.6782 3299.1943 -3284.3901 -3267.572 -3251.358 -3235.5469 -3219.635 -3203.9246 -3188.4155 -3172.9065 -3157.5989 -3142.4927 -3127.3865 -3112.4817 -3097.7783 -3083.075 -3068.6736 -3054.1716 -3039.972 -1114.4348 2111.9475 3299.8992 3299.8992 3299.8992 3299.8992 3299.8992 3299.8992 3299.8992 3299.8992 3299.8992 3299.8992 3299.8992 3299.8992 3299.8992 3299.8992 3299.8992 3299.8992 3286.4043 3270.0896 3263.5437 3280.5632 3297.6836 -3285.5986 -3269.5862 -3253.372 -3237.0574 -3221.1455 -3205.2336 -3189.7246 -3174.2156 -3158.908 -3143.6003 -3128.595 -3113.7908 -3099.0874 -3084.384 -3069.7815 -3055.481 -3041.1804 -1346.5668 1710.2234 3299.8992 3299.8992 3299.8992 3299.8992 3299.8992 3299.8992 3299.8992 3299.8992 3299.8992 3299.8992 3299.8992 3299.8992 3299.8992 3299.8992 3299.8992 3299.8992 3288.4185 3272.1038 3279.3547 3281.9731 3298.4893 -3284.491 -3268.579 -3252.365 -3236.0503 -3220.0378 -3204.126 -3188.617 -3173.2085 -3157.901 -3142.694 -3127.6885 -3112.7837 -3097.9797 -3083.377 -3068.875 -3054.4739 -3040.1733 -1496.7224 1552.2125 3299.8992 3299.8992 3299.8992 3299.8992 3299.8992 3299.8992 3299.8992 3299.8992 3299.8992 3299.8992 3299.8992 3299.8992 3299.8992 3299.8992 3299.8992 3299.8992 3290.5334 3274.2188 -2980.6548 3283.2825 3299.8992 -3283.484 -3266.6655 -3250.4517 -3234.439 -3218.7285 -3202.9175 -3187.3076 -3171.7986 -3156.5918 -3141.4856 -3126.5808 -3111.5752 -3096.7712 -3082.1685 -3067.6665 -3053.2654 -3039.0654 -1411.6241 1746.1761 3299.8992 3299.8992 3299.8992 3299.8992 3299.8992 3299.8992 3299.8992 3299.8992 3299.8992 3299.8992 3299.8992 3299.8992 3299.8992 3299.8992 3299.8992 3299.8992 3290.5334 3274.3193 -2647.0093 
3252.365 3268.3777 3283.786 3299.0935 -3285.5986 -3270.3918 -3255.487 -3240.7837 -3226.0803 -3211.2761 -3196.875 -3182.5745 -3168.274 -3154.1748 -3140.1763 -3126.2786 -3112.4817 -3098.886 -2671.3806 -85.29968 2402.2888 3299.8992 3299.8992 3299.8992 3299.8992 3299.8992 3299.8992 3299.8992 3299.8992 3299.8992 3299.8992 3299.8992 3299.8992 3299.8992 3299.7986 3284.8938 3269.989 3255.1848 3239.8772 3235.144 3251.1565 3266.6655 3282.6782 3297.9858 -3286.8071 -3271.4995 -3256.6956 -3241.7908 -3227.0874 -3212.4846 -3197.9827 -3183.6821 -3169.3816 -3155.2825 -3141.1833 -3127.2856 -3113.4888 -3099.893 -2846.814 -328.71094 2313.263 3299.8992 3299.8992 3299.8992 3299.8992 3299.8992 3299.8992 3299.8992 3299.8992 3299.8992 3299.8992 3299.8992 3299.8992 3299.8992 3299.8992 3285.5986 3270.7947 3255.89 3240.6829 3236.0503 3251.8616 3267.2698 3283.1816 3298.59 -3286.1023 -3270.8953 -3256.0913 -3241.287 -3226.5837 -3211.9812 -3197.5798 -3182.9773 -3168.8782 -3154.779 -3140.68 -3126.7822 -3112.8845 -3099.2888 -2936.9475 -250.3601 2395.8435 3299.8992 3299.8992 3299.8992 3299.8992 3299.8992 3299.8992 3299.8992 3299.8992 3299.8992 3299.8992 3299.8992 3299.8992 3299.8992 3299.8992 3285.6995 3270.996 3256.0913 3240.8843 -2832.5134 3250.5522 3265.9607 3281.9731 3297.2808 -3287.5122 -3272.1038 -3257.2998 -3242.4956 -3227.6917 -3213.0889 -3198.587 -3184.2864 -3169.9858 -3155.8867 -3141.8884 -3127.9907 -3114.1936 -3100.4973 -2874.6094 -215.21301 2218.8994 3299.8992 3299.8992 3299.8992 3299.8992 3299.8992 3299.8992 3299.8992 3299.8992 3299.8992 3299.8992 3299.8992 3299.8992 3299.8992 3299.8992 3284.9944 3270.1904 3255.3862 3240.1794 -3009.6587 3249.948 3265.5579 3281.369 3296.7773 -3287.915 -3272.6074 -3257.7026 -3242.8984 -3228.195 -3213.5925 -3199.0906 -3184.6892 -3170.3887 -3156.2896 -3142.2913 -3128.3936 -3114.6973 -3100.9001 -2933.8257 -501.02234 2087.979 3299.8992 3299.8992 3299.8992 3299.8992 3299.8992 3299.8992 3299.8992 3299.8992 3299.8992 3299.8992 3299.8992 3299.8992 3299.8992 3299.8992 3286.908 3271.9023 3257.0984 3241.9922 -2270.9656 
3299.8992 3299.8992 3299.8992 3299.8992 3299.8992 3299.8992 3291.5405 3275.9307 3261.026 3246.222 3231.4177 3216.513 3201.8096 3187.207 3172.705 3158.1023 3143.6003 3063.2354 1572.2534 -531.33545 -2054.8462 3268.0754 3155.081 3170.4895 3186.502 3202.011 3216.9158 3232.4248 3247.7324 3262.8386 3277.8442 3292.5476 -3292.8496 -3277.9448 -3263.3423 -3248.8403 -3234.439 -3220.1384 -3206.1401 2096.237 3299.8992 3299.8992 3299.8992 3299.8992 3299.8992 3299.8992 3293.2524 3277.8442 3263.3423 3248.639 3233.8347 3219.0308 3204.3274 3189.5232 3174.9207 3160.5193 3146.1182 3124.9695 1740.5365 -219.03992 -1913.6536 3171.7986 3154.1748 3170.0867 3185.3943 3200.9033 3215.9087 3231.5186 3246.7253 3261.8315 3276.8372 3291.742 3299.8992 -3278.8513 -3264.2485 -3249.7466 -3235.446 -3221.1455 -3206.9458 2060.8887 3299.8992 3299.8992 3299.8992 3299.8992 3299.8992 3299.8992 3292.749 3277.24 3262.2344 3247.4304 3232.6262 3217.9229 3203.018 3188.4155 3173.8127 3159.3108 3145.0103 3123.056 1661.1786 -349.4568 -1895.929 -3241.287 3153.6711 3169.583 3184.79 3200.1982 3215.9087 3231.2163 3246.0205 3261.026 3276.0315 3291.0369 3299.8992 -3279.657 -3264.9536 -3250.4517 -3236.0503 -3221.8506 -3207.7515 1772.6624 3299.8992 3299.8992 3299.8992 3299.8992 3299.8992 3299.8992 3293.051 3277.542 3263.2415 3248.4375 3233.6333 3218.7285 3204.0251 3189.5232 3174.6184 3160.0159 3145.7153 3122.0488 1747.3846 -180.16663 -1864.1052 -3208.1543 3152.8655 3168.3745 3184.2864 3199.8962 3214.7002 3230.31 3245.7183 3260.7239 3275.6287 3290.634 3299.8992 -3279.959 -3265.3564 -3250.7537 -3236.4531 -3222.2534 -3208.0535 1620.0897 3299.8992 3299.8992 3299.8992 3299.8992 3299.8992 3299.8992 3293.2524 3277.6428 3262.8386 3247.9338 3233.13 3218.3257 3203.6223 3189.0198 3174.3164 3159.915 3145.413 3122.1497 1770.1447 -228.40576 -1870.2484 -3266.3635 3153.1677 3168.9788 3184.2864 3199.6948 3215.5059 3230.612 3245.5168 3260.7239 3275.7292 3290.4326 3299.8992 -3280.0598 -3265.457 -3251.056 -3236.554 -3222.354 -3208.255 1255.8289 
-3192.8467 -3177.1362 -3161.5264 -3146.4202 -3131.4148 -3116.4092 -3101.6052 -3087.0024 -3072.4 -3057.9985 -3043.698 -3029.4983 -3015.4998 -3001.5015 -2987.6038 -2973.9075 -2960.3118 -2946.7163 -2933.4229 -2267.2393 -818.8568 616.83655 2016.1743 3149.0386 3299.8992 3299.8992 3299.8992 3299.8992 3299.8992 3299.8992 3299.8992 3299.8992 3299.8992 3299.8992 3299.8992 3299.8992 3299.8992 3299.8992 3299.8992 789.9536 -3185.2935 -3169.6838 -3154.074 -3138.8672 -3124.063 -3108.9568 -3094.2534 -3079.651 -3065.149 -3050.7476 -3036.447 -3022.348 -3008.2488 -2994.351 -2980.5542 -2966.9585 -2953.363 -2939.8682 -2926.4739 -2021.3104 -593.8751 814.32495 2276.303 3299.8992 3299.8992 3299.8992 3299.8992 3299.8992 3299.8992 3299.8992 3299.8992 3299.8992 3299.8992 3299.8992 3299.8992 3299.8992 3299.8992 3299.8992 3299.8992 964.4806 -3184.5886 -3168.8782 -3153.6711 -3138.263 -3123.056 -3108.0505 -3093.3472 -3078.6438 -3064.2424 -3049.8413 -3035.6414 -3021.4417 -3007.443 -2993.4448 -2979.7485 -2966.0522 -2952.4565 -2939.0625 -2925.769 -2385.8733 -924.6002 515.7257 1924.2279 3081.1614 3299.8992 3299.8992 3299.8992 3299.8992 3299.8992 3299.8992 3299.8992 3299.8992 3299.8992 3299.8992 3299.8992 3299.8992 3299.8992 3299.8992 3299.8992 1188.5559 -3177.942 -3162.2314 -3147.2258 -3131.7168 -3116.6106 -3101.8066 -3087.0024 -3072.4 -3057.898 -3043.4966 -3029.3975 -3015.1978 -3001.3 -2987.4023 -2973.706 -2960.0098 -2946.414 -2933.1206 -2919.7266 -2096.9421 -552.182 966.49475 2384.967 3299.8992 3299.8992 3299.8992 3299.8992 3299.8992 3299.8992 3299.8992 3299.8992 3299.8992 3299.8992 3299.8992 3299.8992 3299.8992 3299.8992 3299.8992 3299.8992 1260.1593 -3180.9631 -3165.1519 -3149.5422 -3134.436 -3119.5312 -3104.6265 -3089.8223 -3075.2197 -3060.8184 -3046.4172 -3032.1167 -3018.0176 -3004.019 -2990.1213 -2976.425 -2962.7288 -2949.1333 -2935.739 -2922.345 -2107.5164 -543.4204 1118.2617 2528.8787 3299.8992 3299.8992 3299.8992 3299.8992 3299.8992 3299.8992 3299.8992 3299.8992 3299.8992 3299.8992 3299.8992 3299.8992 3299.8992 3299.8992 3299.8992 3299.8992 1275.8698 
3299.8992 3299.8992 3299.8992 3290.8354 3275.3264 3260.1196 3244.6106 3229.2021 3213.693 3197.4792 3182.2722 3167.0654 3151.8584 3136.5508 3121.646 3106.7412 3090.4265 2851.648 1533.078 -36.557007 -1200.8423 -2188.7878 -3137.4573 3108.4534 3125.07 3141.5862 3158.1023 3174.417 3190.631 3206.7444 3222.7568 3238.7695 3254.5806 3270.3918 3286.0015 3299.8992 -3282.8796 -3267.572 -3252.2644 1256.9366 3299.8992 3299.8992 3299.8992 3290.7349 3275.2258 3259.9182 3244.6106 3229.1016 3213.693 3197.3784 3182.2722 3166.9646 3151.7578 3136.5508 3121.646 3106.6406 3090.4265 2906.3323 1562.4847 -104.13208 -1415.7532 -2417.9993 3198.184 3111.4746 3128.1921 3144.7083 3161.2244 3177.539 3193.6523 3209.7656 3225.879 3241.69 3257.5012 3273.3123 3289.0227 3299.8992 -3280.0598 -3264.7522 -3249.4446 1128.5339 3299.8992 3299.8992 3299.8992 3293.8567 3278.65 3263.2415 3247.9338 3232.3242 3216.9158 3200.601 3185.3943 3170.1873 3154.8796 3139.7734 3124.6672 3109.8633 3093.4478 2826.773 1431.5643 -62.23755 -1203.5614 -2143.0664 -2931.7107 3110.669 3127.3865 3144.104 3160.62 3176.834 3193.048 3209.1614 3225.0732 3241.1865 3256.9976 3272.708 3288.3179 3299.8992 -3280.5632 -3265.155 -3250.0488 1033.4656 3299.8992 3299.8992 3299.8992 3293.756 3278.65 3263.2415 3247.7324 3232.2234 3216.8152 3200.601 3185.3943 3170.1873 3154.8796 3139.7734 3124.6672 3109.7625 3094.4548 2923.0498 1631.4697 104.13208 -1081.5033 -2104.2937 -2976.526 3108.1511 3124.8687 3141.3848 3157.901 3174.2156 3190.5303 3206.543 3222.5554 3238.568 3254.3792 3270.291 3285.901 3299.8992 -3283.081 -3267.6726 -3252.4658 939.2029 3299.8992 3299.8992 3299.8992 3291.8425 3276.6357 3261.3281 3245.819 3230.5115 3215.0024 3198.6877 3183.5815 3168.3745 3153.067 3137.86 3122.8545 3108.1511 3092.743 2973.8066 1704.0802 40.182495 -1201.648 -2129.9744 -3029.2969 3107.3455 3123.9624 3140.579 3157.0952 3173.41 3189.7246 3205.7373 3221.7498 3237.7625 3253.6743 3269.3848 3285.0952 3299.8992 -3283.786 -3268.579 -3253.1707 588.739 
-1010.0006 -2502.1912 -3097.7783 -3083.075 -3068.573 -3054.1716 -3039.871 -3025.772 -3011.7737 -2997.876 -2984.0789 -2970.4834 -2956.787 -2943.4937 -2815.0908 -2392.4194 -2074.0813 -1742.8528 -1256.7352 -896.6034 -524.3866 -241.59851 -24.069214 238.8794 782.2998 2117.1843 3107.6477 3299.8992 3299.8992 3299.8992 3299.8992 3299.8992 3299.8992 3299.8992 3299.8992 3299.8992 3299.8992 3299.8992 3299.8992 1312.2253 -649.66736 -2229.6753 -3096.9727 -3082.1685 -3067.3645 -3053.064 -3038.7634 -3024.6643 -3010.5652 -2996.869 -2983.0718 -2969.3755 -2955.8806 -2942.4866 -2774.2034 -2574.4995 -2225.647 -1772.8638 -1300.7446 -1122.1893 -842.12036 -542.61475 -142.80396 177.85034 793.6798 2104.0923 3041.0796 3299.8992 3299.8992 3299.8992 3299.8992 3299.8992 3299.8992 3299.8992 3299.8992 3299.8992 3299.8992 3299.8992 3275.6287 977.3712 -1092.7826 -2584.369 -3083.4778 -3068.7744 -3054.2725 -3039.871 -3025.772 -3011.7737 -2997.7751 -2983.9783 -2970.282 -2956.787 -2943.3928 -2930.0994 -2778.0303 -2596.353 -2329.779 -1734.1919 -1192.8864 -644.53125 -372.01538 -85.40039 252.97852 349.25537 904.66003 2245.285 3299.8992 3299.8992 3299.8992 3299.8992 3299.8992 3299.8992 3299.8992 3299.8992 3299.8992 3299.8992 3299.8992 3299.8992 3299.8992 1062.3688 -943.63403 -2479.9346 -3084.5854 -3069.983 -3055.481 -3041.0796 -3026.779 -3012.7808 -2998.883 -2985.086 -2971.289 -2957.7942 -2944.4 -2910.0586 -2577.118 -2328.4697 -1948.5992 -1512.735 -1116.2476 -682.6996 -350.66528 -16.113281 232.03125 592.4652 916.9464 2199.362 3299.8992 3299.8992 3299.8992 3299.8992 3299.8992 3299.8992 3299.8992 3299.8992 3299.8992 3299.8992 3299.8992 3299.8992 3298.0864 998.822 -1030.1422 -2501.7883 -3090.8293 -3076.2268 -3061.624 -3047.223 -3033.023 -3018.9238 -3005.0261 -2991.1284 -2977.3315 -2963.8367 -2950.3418 -2937.0483 -2653.5552 -2325.348 -1849.6033 -1640.0299 -1202.0508 -581.3873 -219.64417 49.246216 227.39868 457.51648 863.7726 2078.2104 3094.6562 3299.8992 3299.8992 3299.8992 3299.8992 3299.8992 3299.8992 3299.8992 3299.8992 3299.8992 3299.8992 3299.8992 3255.6885 851.3855 

-10.473633 11.178589 23.062134 22.860718 17.72461 5.8410645 -9.768677 -13.192749 -3.8269043 2.0141602 10.775757 29.30603 29.910278 21.24939 12.890625 19.033813 21.450806 39.678955 46.92993 47.332764 45.92285 32.93152 5.7403564 -26.586914 -32.83081 -27.996826 -38.772583 -43.40515 -47.93701 -46.124268 -27.29187 -11.380005 -6.1431885 -5.0354004 4.9346924 4.2297363 -12.689209 -16.516113 -11.380005 -4.7332764 2.7191162 6.8481445 9.768677 7.1502686 4.8339844 5.7403564 6.4453125 -0.10070801 -7.4523926 -2.2155762 -10.574341 -16.918945 -3.4240723 6.0424805 16.21399 6.7474365 5.2368164 1.6113281 4.1290283 2.3162842 2.3162842 2.3162842 2.3162842 2.3162842 2.3162842 2.3162842 2.3162842 2.3162842 2.3162842 2.3162842 2.3162842 2.3162842 2.3162842 2.3162842 2.3162842 2.3162842 2.3162842 2.3162842 2.3162842 2.3162842 -26.989746 -27.896118 -30.413818 -11.279297 9.768677 20.040894 5.8410645 -17.926025 -22.659302 -20.141602 -3.7261963 -2.4169922 -15.005493 -29.406738 -28.701782 -13.595581 -11.782837 -6.4453125 4.0283203 11.581421 20.040894 25.579834 23.062134 20.141602 22.25647 33.33435 24.472046 5.5389404 -1.3092041 -13.998413 -15.106201 -20.846558 -14.703369 -2.7191162 3.0212402 -2.4169922 -13.595581 -17.523193 -28.29895 -22.357178 -7.1502686 27.29187 50.253296 38.571167 4.1290283 -8.258057 9.667969 13.494873 30.715942 26.083374 17.422485 5.1361084 -7.1502686 -1.8127441 7.4523926 12.789917 9.164429 -8.157349 -8.660889 -16.616821 -13.192749 -17.019653 -6.4453125 -15.005493 -14.904785 7.4523926 26.78833 11.984253 4.0283203 10.473633 21.450806 24.874878 21.450806 3.9276123 -9.768677 -11.077881 -3.8269043 -3.0212402 -3.9276123 -16.516113 -2.5177002 7.2509766 6.3446045 4.1290283 -9.768677 -41.89453 -68.78357 -65.86304 -50.354004 -34.039307 -14.602661 -18.429565 -24.27063 -34.240723 -41.4917 -48.641968 -46.728516 -39.37683 -31.521606 -6.0424805 23.364258 26.889038 20.141602 14.703369 20.544434 12.890625 -2.2155762 -4.5318604 -1.4099121 1.1077881 10.675049 30.514526 33.636475 21.75293 4.9346924 -7.4523926 4.0283203 5.8410645 -2.7191162 6.9488525 
4.7332764 16.71753 11.380005 4.6325684 3.1219482 -5.4382324 -12.588501 -16.012573 -11.480713 4.3304443 1.3092041 10.171509 11.782837 -0.10070801 2.0141602 7.6538086 19.940186 17.019653 16.516113 6.3446045 0.60424805 -1.7120361 4.5318604 -2.7191162 -1.8127441 5.3375244 -0.20141602 -10.070801 -1.0070801 -0.80566406 3.1219482 3.3233643 3.3233643 -4.2297363 -2.5177002 -1.8127441 -7.8552246 -12.487793 -18.127441 -14.300537 -13.998413 -17.523193 -14.501953 -10.272217 -6.6467285 -1.6113281 5.6396484 8.560181 8.560181 12.185669 5.9417725 3.1219482 11.782837 20.141602 18.429565 10.272217 7.4523926 -9.567261 -9.869385 -6.9488525 -2.3162842 -2.8198242 2.5177002 12.286377 18.73169 16.71753 10.775757 0.60424805 3.8269043 -12.084961 -18.429565 -16.113281 -7.2509766 -0.50354004 -3.2226562 -0.10070801 5.0354004 3.2226562 -1.7120361 -14.401245 -23.76709 -23.364258 0.20141602 8.459473 9.567261 1.2084961 0.30212402 -3.9276123 -8.056641 -4.4311523 -0.40283203 6.1431885 3.8269043 2.3162842 5.1361084 8.358765 6.2438965 0.60424805 -7.1502686 -1.3092041 1.8127441 7.3516846 10.372925 5.7403564 4.8339844 5.0354004 -5.9417725 -4.6325684 -7.7545166 -9.667969 -7.1502686 -6.4453125 -7.9559326 -0.60424805 1.4099121 3.9276123 15.206909 11.178589 7.7545166 -1.4099121 3.3233643 -1.0070801 4.7332764 4.8339844 3.0212402 0.10070801 8.862305 19.23523 19.033813 16.21399 19.134521 13.394165 15.206909 21.24939 19.537354 11.682129 0.20141602 2.4169922 -5.0354004 -11.279297 3.6254883 8.358765 -2.0141602 -11.682129 -3.4240723 7.1502686 1.7120361 -14.602661 -18.429565 -12.588501 0.10070801 0.40283203 1.1077881 -2.0141602 -10.977173 -17.120361 -25.27771 -17.523193 -2.0141602 -4.9346924 -11.883545 -15.408325 -4.0283203 3.0212402 14.401245 22.76001 22.76001 11.077881 5.5389404 -7.2509766 -10.775757 -4.7332764 5.2368164 4.1290283 -7.7545166 -12.487793 0.10070801 12.689209 12.991333 14.401245 22.25647 18.73169 10.272217 -3.6254883 -11.380005 -21.853638 -26.28479 -28.399658 -20.74585 -12.689209 -3.9276123 -3.9276123 -3.2226562 -6.7474365 -10.372925 -5.4382324 2.5177002 2.8198242 -3.6254883 2.1148682 
3282.6782 3299.6978 -3283.6853 -3267.572 -3251.358 -3235.144 -3219.1313 -3203.3203 -3187.7104 -3172.3022 -3156.9946 -3141.7876 -3126.8828 -3111.8774 -3097.0732 -3082.4707 -3067.9688 -3053.5674 -3039.2668 -1555.0323 1510.5194 3299.8992 3299.8992 3299.8992 3299.8992 3299.8992 3299.8992 3299.8992 3299.8992 3299.8992 3299.8992 3299.8992 3299.8992 3299.8992 3299.8992 3299.8992 3299.8992 3292.1448 3276.0315 -2253.1401 3283.484 3299.8992 -3283.484 -3266.7664 -3250.4517 -3234.5398 -3218.7285 -3203.018 -3187.509 -3171.8994 -3156.5918 -3141.5862 -3126.48 -3111.5752 -3096.8718 -3082.1685 -3067.6665 -3053.2654 -3039.0654 -1388.2599 1673.8678 3299.8992 3299.8992 3299.8992 3299.8992 3299.8992 3299.8992 3299.8992 3299.8992 3299.8992 3299.8992 3299.8992 3299.8992 3299.8992 3299.8992 3299.8992 3299.8992 3290.8354 3274.5208 -2166.632 3281.6711 3298.892 -3284.9944 -3268.0754 -3251.8616 -3235.9497 -3220.2393 -3204.5288 -3188.8184 -3173.3093 -3158.0017 -3142.8955 -3127.89 -3112.8845 -3098.1812 -3083.5784 -3068.9758 -3054.5745 -3040.3748 -1469.5312 1726.9409 3299.8992 3299.8992 3299.8992 3299.8992 3299.8992 3299.8992 3299.8992 3299.8992 3299.8992 3299.8992 3299.8992 3299.8992 3299.8992 3299.8992 3299.8992 3299.8992 3289.9292 3273.715 -1680.1117 3279.959 3296.576 -3286.5051 -3270.4924 -3254.2786 -3237.9639 -3221.8506 -3206.1401 -3190.4297 -3175.0212 -3159.613 -3144.5068 -3129.5012 -3114.4958 -3099.6917 -3085.089 -3070.5872 -3056.1858 -3041.8853 -1830.2673 1218.6676 3299.8992 3299.8992 3299.8992 3299.8992 3299.8992 3299.8992 3299.8992 3299.8992 3299.8992 3299.8992 3299.8992 3299.8992 3299.8992 3299.8992 3299.8992 3299.8992 3291.8425 3275.7292 -1574.469 3281.5703 3298.6907 -3285.1958 -3268.2769 -3252.063 -3236.1511 -3220.3398 -3204.6294 -3189.0198 -3173.6113 -3158.2031 -3142.996 -3127.9907 -3113.086 -3098.3826 -3083.7798 -3069.0764 -3054.776 -3040.4753 -1916.4734 1257.4402 3299.8992 3299.8992 3299.8992 3299.8992 3299.8992 3299.8992 3299.8992 3299.8992 3299.8992 3299.8992 3299.8992 3299.8992 3299.8992 3299.8992 3299.8992 3299.8992 3293.8567 3277.542 -1190.4694 
3250.0488 3265.5579 3281.369 3296.878 -3287.8142 -3273.0103 -3257.8032 -3242.7979 -3228.0945 -3213.4917 -3199.0906 -3184.6892 -3170.3887 -3156.189 -3142.1904 -3128.2927 -3114.4958 -3100.9001 -3012.4785 -459.93347 2134.506 3299.8992 3299.8992 3299.8992 3299.8992 3299.8992 3299.8992 3299.8992 3299.8992 3299.8992 3299.8992 3299.8992 3299.8992 3299.8992 3299.8992 3286.8071 3272.0032 3257.0984 3241.9922 -2303.897 3250.1494 3266.162 3281.5703 3297.2808 -3287.7136 -3272.406 -3257.7026 -3242.7979 -3227.9937 -3213.794 -3198.8892 -3184.79 -3170.288 -3156.3904 -3142.0898 -3128.4941 -3020.2332 -2791.7266 -2207.9224 103.62854 2662.317 3299.8992 3299.8992 3299.8992 3299.8992 3299.8992 3299.8992 3299.8992 3299.8992 3299.8992 3299.8992 3299.8992 3299.8992 3299.8992 3296.475 3281.369 3266.565 3251.9622 3236.7554 -2694.0398 3246.222 3261.6301 3277.24 3292.9504 3299.8992 -3276.3335 -3261.6301 -3246.9268 -3231.9214 -3217.3186 -3203.018 -3188.4155 -3174.115 -3160.1165 -3145.9167 -3131.9182 -3118.4233 -3104.425 -3016.809 -1758.0597 634.25903 3145.0103 3299.8992 3299.8992 3299.8992 3299.8992 3299.8992 3299.8992 3299.8992 3299.8992 3299.8992 3299.8992 3299.8992 3299.8992 3299.8992 3298.1873 3283.2825 3268.3777 3253.1707 -1164.2853 3258.206 3274.3193 3289.7278 3299.8992 -3279.7576 -3264.8528 -3249.646 -3234.7412 -3220.1384 -3205.536 -3191.1345 -3176.7334 -3162.5334 -3148.4343 -3134.436 -3120.7397 -3106.9426 -3093.2463 -2863.632 -335.45837 2365.631 3299.8992 3299.8992 3299.8992 3299.8992 3299.8992 3299.8992 3299.8992 3299.8992 3299.8992 3299.8992 3299.8992 3299.8992 3299.8992 3299.8992 3291.8425 3276.9377 3262.1338 3247.0276 -1246.463 3252.4658 3268.4783 3283.8867 3299.295 -3285.498 -3270.5933 -3255.2856 -3240.4814 -3225.6775 -3211.1755 -3196.6736 -3182.2722 -3168.0725 -3153.8726 -3139.9749 -3126.0771 -3112.1794 -3098.4832 -3080.5571 -727.41394 1939.032 3299.8992 3299.8992 3299.8992 3299.8992 3299.8992 3299.8992 3299.8992 3299.8992 3299.8992 3299.8992 3299.8992 3299.8992 3299.8992 3299.8992 3291.1377 3276.233 3261.3281 3246.222 -1148.2727 
3299.8992 3299.8992 3299.8992 3299.8992 3299.8992 3299.8992 3294.7632 3279.2542 3264.3494 3249.5452 3234.8418 3219.937 3205.133 3190.5303 3175.827 3161.4258 3147.0244 3127.6885 1806.1981 -175.83618 -1867.3279 -3207.0464 3153.9734 3169.4824 3185.4949 3200.9033 3215.9087 3231.4177 3246.7253 3261.6301 3276.6357 3291.641 3299.8992 -3278.952 -3264.3494 -3249.8474 -3235.5469 -3221.1455 -3207.1472 1150.589 3299.8992 3299.8992 3299.8992 3299.8992 3299.8992 3299.8992 3295.468 3280.1604 3265.7593 3250.955 3236.1511 3221.2463 3206.543 3191.8396 3177.2368 3162.8357 3148.3337 3130.6091 2067.5354 -30.917358 -1695.4193 -3114.395 3151.7578 3167.5688 3182.8765 3198.3855 3214.1968 3229.4036 3244.2078 3259.314 3274.3193 3289.224 3299.8992 -3281.2683 -3266.6655 -3252.1636 -3237.7625 -3223.5625 -3209.3628 1018.4601 3299.8992 3299.8992 3299.8992 3299.8992 3299.8992 3299.8992 3294.5618 3278.952 3264.047 3249.3438 3234.439 3219.5342 3204.9316 3190.3289 3175.6255 3161.325 3146.7224 3129.2998 2162.7043 105.6427 -1606.0913 -2973.9075 3148.6357 3164.3462 3180.258 3195.6665 3210.6719 3226.181 3241.4885 3256.6956 3271.701 3286.5051 3299.8992 -3283.8867 -3269.3848 -3254.782 -3240.3809 -3226.0803 -3211.9812 1023.8983 3299.8992 3299.8992 3299.8992 3299.8992 3299.8992 3299.8992 3291.339 3276.0315 3261.6301 3246.7253 3232.022 3217.218 3202.4138 3187.8113 3173.2085 3158.7065 3144.3054 3124.768 1840.5396 -249.45374 -1913.2507 -3225.9795 3151.4556 3167.3674 3182.4736 3197.9827 3213.693 3228.9001 3243.805 3258.8103 3273.9165 3288.7207 3299.8992 -3281.7717 -3267.1692 -3252.6672 -3238.1653 -3223.9653 -3209.8662 856.92444 3299.8992 3299.8992 3299.8992 3299.8992 3299.8992 3299.8992 3294.2595 3278.952 3264.5508 3249.7466 3234.9426 3220.0378 3205.3345 3190.7317 3176.0283 3161.6272 3147.3267 3129.602 2224.3376 317.33093 -1273.6542 -2604.5105 3144.2046 3159.915 3175.6255 3191.2354 3206.3416 3221.9512 3237.2588 3252.365 3267.3706 3282.376 3297.0793 -3288.0156 -3273.5137 -3258.9111 -3244.4092 -3230.2092 -3215.9087 574.33777 
-3184.8906 -3169.0796 -3153.8726 -3138.4644 -3123.1567 -3108.3525 -3093.6492 -3078.8452 -3064.4438 -3050.0427 -3035.7422 -3021.643 -3007.6445 -2993.7468 -2979.95 -2966.2537 -2952.658 -2939.163 -2925.8696 -1961.5906 -367.78564 1101.6449 2545.999 3299.8992 3299.8992 3299.8992 3299.8992 3299.8992 3299.8992 3299.8992 3299.8992 3299.8992 3299.8992 3299.8992 3299.8992 3299.8992 3299.8992 3299.8992 3299.8992 1473.8617 -3190.4297 -3174.6184 -3159.5122 -3144.0032 -3128.897 -3113.8916 -3098.9868 -3084.384 -3069.983 -3055.481 -3041.281 -3026.9805 -3012.9822 -2998.9836 -2985.1868 -2971.4905 -2957.7942 -2944.4 -2930.905 -2314.27 -796.1975 782.0984 2234.8113 3299.8992 3299.8992 3299.8992 3299.8992 3299.8992 3299.8992 3299.8992 3299.8992 3299.8992 3299.8992 3299.8992 3299.8992 3299.8992 3299.8992 3299.8992 3299.8992 1560.672 -3189.3218 -3173.5107 -3158.5051 -3142.8955 -3127.588 -3112.683 -3098.0803 -3083.2764 -3068.7744 -3054.5745 -3040.0725 -3025.8728 -3011.8743 -2997.9766 -2984.1797 -2970.4834 -2956.787 -2943.2922 -2929.898 -2202.4841 -683.0017 778.5736 2245.285 3299.8992 3299.8992 3299.8992 3299.8992 3299.8992 3299.8992 3299.8992 3299.8992 3299.8992 3299.8992 3299.8992 3299.8992 3299.8992 3299.8992 3299.8992 3299.8992 1939.7369 -3191.7388 -3175.827 -3160.2173 -3145.0103 -3130.005 -3114.9993 -3100.1953 -3085.492 -3071.1914 -3056.5886 -3042.288 -3028.189 -3014.0898 -3000.0916 -2986.2944 -2972.4976 -2958.9019 -2945.5078 -2931.912 -2222.8271 -713.71765 775.6531 2146.4905 3171.5972 3299.8992 3299.8992 3299.8992 3299.8992 3299.8992 3299.8992 3299.8992 3299.8992 3299.8992 3299.8992 3299.8992 3299.8992 3299.8992 3299.8992 3299.8992 1897.0367 -3190.933 -3175.122 -3160.0159 -3144.406 -3129.2998 -3114.2944 -3099.3896 -3084.8877 -3070.285 -3055.8838 -3041.4824 -3027.3833 -3013.2842 -2999.286 -2985.4888 -2971.7925 -2958.197 -2944.7021 -2931.3079 -2258.8806 -661.1481 957.0282 2385.269 3299.8992 3299.8992 3299.8992 3299.8992 3299.8992 3299.8992 3299.8992 3299.8992 3299.8992 3299.8992 3299.8992 3299.8992 3299.8992 3299.8992 3299.8992 3299.8992 1918.2861 
3299.8992 3299.8992 3299.8992 3292.9504 3277.542 3262.4358 3246.9268 3231.3171 3215.9087 3199.6948 3184.4878 3169.281 3153.9734 3138.8672 3123.8616 3108.9568 3094.052 2985.9924 1765.5121 174.02344 -1027.9266 -1997.9462 -2902.7068 3104.828 3121.7468 3138.263 3154.779 3171.0938 3187.3076 3203.5217 3219.5342 3235.446 3251.4587 3267.1692 3282.7788 3298.4893 -3286.0015 -3270.6938 -3255.3862 606.86646 3299.8992 3299.8992 3299.8992 3290.8354 3275.4272 3260.0188 3244.6106 3229.2021 3213.794 3197.5798 3182.2722 3167.166 3151.9592 3136.853 3121.7468 3106.842 3091.0308 2860.1074 1596.1212 116.519165 -1020.8771 -2033.194 -3059.912 3105.5327 3122.1497 3138.8672 3155.3833 3171.698 3187.9119 3204.0251 3220.0378 3236.0503 3251.8616 3267.572 3283.383 3298.892 -3285.5986 -3270.1904 -3254.9834 421.86584 3299.8992 3299.8992 3299.8992 3292.1448 3276.7363 3261.4287 3246.0205 3230.612 3215.2039 3199.0906 3183.783 3168.4753 3153.2683 3138.162 3123.056 3108.252 3093.2463 2988.9128 1808.5144 266.4734 -929.93774 -1839.8346 -2777.8289 3148.8372 3118.0205 3134.738 3151.2542 3167.5688 3183.8835 3199.9968 3216.11 3232.022 3248.0347 3263.6443 3279.3547 3295.0652 -3289.4255 -3274.118 -3258.8103 494.97986 3299.8992 3299.8992 3299.8992 3288.0156 3272.8088 3257.4004 3242.0928 3226.5837 3211.1755 3195.0623 3179.8552 3164.5476 3149.3408 3134.2346 3119.229 3104.3242 3088.4124 3009.558 1861.5875 339.18457 -889.3524 -1884.6497 -2868.7683 3099.0874 3114.1936 3130.9111 3147.528 3163.8428 3180.1575 3196.2708 3212.384 3228.296 3244.2078 3260.0188 3275.83 3291.339 3299.8992 -3277.7434 -3262.3352 143.3075 3299.8992 3299.8992 3299.8992 3286.203 3270.7947 3255.5876 3240.1794 3224.9724 3209.5642 3193.2495 3178.1433 3162.8357 3147.7295 3132.6233 3117.7185 3102.713 3087.506 3020.2332 1951.117 374.02954 -873.9441 -1808.2123 -2710.9587 3150.247 3110.8704 3127.487 3144.0032 3160.2173 3176.7334 3192.7458 3208.96 3224.9724 3240.6829 3256.5947 3272.406 3288.1165 3299.8992 -3280.966 -3265.7593 -39.88037 
-1195.2026 -2714.5842 -3091.8364 -3077.133 -3062.631 -3048.23 -3033.9294 -3019.931 -3005.8318 -2992.035 -2978.3386 -2964.8438 -2951.4495 -2937.9546 -2743.3867 -2455.5632 -2069.9524 -1648.0865 -1193.9941 -842.4225 -565.47546 -356.80847 -77.041626 263.45215 772.1283 1964.8132 3120.8403 3299.8992 3299.8992 3299.8992 3299.8992 3299.8992 3299.8992 3299.8992 3299.8992 3299.8992 3299.8992 3299.8992 3299.8992 1140.921 -948.2666 -2443.6797 -3087.7075 -3073.0042 -3058.4014 -3044.1008 -3029.9011 -3015.802 -3001.9043 -2988.0066 -2974.3103 -2960.7146 -2947.3206 -2934.1277 -2662.7197 -2275.1953 -1969.8486 -1588.8702 -1173.7518 -659.63745 -222.26257 69.38782 293.36243 463.25684 872.23206 2010.6354 3075.6226 3299.8992 3299.8992 3299.8992 3299.8992 3299.8992 3299.8992 3299.8992 3299.8992 3299.8992 3299.8992 3299.8992 3299.8992 1382.8217 -664.47144 -2151.2236 -3097.2747 -3082.2693 -3067.6665 -3053.1646 -3038.864 -3024.765 -3010.8672 -2996.869 -2983.1726 -2969.4763 -2955.9814 -2942.4866 -2630.4932 -2251.126 -2021.6125 -1884.549 -1454.0222 -857.9315 -458.32214 57.000732 203.93372 280.5725 677.8656 1861.5875 3137.0544 3299.8992 3299.8992 3299.8992 3299.8992 3299.8992 3299.8992 3299.8992 3299.8992 3299.8992 3299.8992 3299.8992 3299.8992 1130.246 -1031.4514 -2481.3445 -3093.6492 -3078.7444 -3064.2424 -3049.942 -3035.6414 -3021.5422 -3007.544 -2993.6462 -2979.849 -2966.3542 -2952.8594 -2939.4653 -2620.523 -2275.6987 -1923.1201 -1533.783 -1163.3789 -791.76636 -508.0719 -147.73865 204.03442 401.52283 712.1063 1907.8125 2990.2222 3299.8992 3299.8992 3299.8992 3299.8992 3299.8992 3299.8992 3299.8992 3299.8992 3299.8992 3299.8992 3299.8992 3299.8992 1238.205 -970.22095 -2491.1133 -3093.8506 -3079.1472 -3064.6453 -3050.2441 -3035.8428 -3021.7437 -3007.9468 -2993.8477 -2980.1514 -2966.6565 -2953.0608 -2937.4512 -2531.598 -2231.5886 -1963.3026 -1700.9583 -1224.1058 -799.01733 -473.73047 -124.17297 160.9314 447.24426 793.4784 1937.0178 3112.5823 3299.8992 3299.8992 3299.8992 3299.8992 3299.8992 3299.8992 3299.8992 3299.8992 3299.8992 3299.8992 3299.8992 3299.8992 1701.059 

17.825317 -3.5247803 -30.212402 -49.850464 -53.17383 -52.166748 -41.088867 -28.903198 -3.4240723 14.401245 5.2368164 -3.3233643 -8.459473 -13.696289 -23.968506 -15.408325 5.5389404 5.4382324 11.883545 39.98108 48.03772 29.80957 13.092041 7.3516846 18.933105 33.737183 42.297363 26.586914 7.0495605 -3.0212402 3.7261963 8.660889 8.056641 4.8339844 8.459473 6.0424805 -6.6467285 -22.558594 -23.464966 -16.918945 -11.883545 -6.5460205 12.991333 19.134521 31.118774 32.025146 21.954346 21.047974 11.178589 13.796997 18.127441 21.24939 22.860718 27.191162 38.36975 31.82373 -1.7120361 -41.088867 -67.57507 -66.26587 -45.318604 -18.22815 -9.063721 -6.8481445 -15.811157 -39.37683 -50.05188 -31.018066 -12.487793 -3.6254883 -5.2368164 0.30212402 13.192749 9.567261 -1.5106201 7.6538086 17.825317 39.47754 39.37683 29.708862 22.76001 16.516113 7.2509766 10.171509 9.365845 -12.588501 -31.82373 -39.88037 -22.25647 -18.832397 -21.853638 -19.033813 -7.4523926 -6.5460205 -6.7474365 -10.372925 -17.422485 -12.588501 3.2226562 2.9205322 11.984253 17.926025 11.682129 6.6467285 -11.984253 8.761597 29.507446 22.659302 11.178589 4.9346924 15.710449 18.630981 13.696289 9.164429 20.846558 18.530273 15.509033 21.450806 17.72461 15.710449 13.192749 2.4169922 -1.5106201 -15.005493 -24.77417 -36.557007 -37.664795 -32.42798 -44.613647 -54.986572 -66.6687 -79.660034 -102.52075 -114.20288 -109.87244 -78.75366 -43.103027 1.9134521 31.521606 65.963745 86.60889 95.47119 82.07703 71.80481 57.302856 35.549927 10.272217 3.6254883 5.9417725 19.839478 22.457886 15.206909 2.9205322 0.40283203 1.7120361 7.6538086 9.768677 3.8269043 -7.0495605 -9.164429 -8.761597 -8.761597 -11.984253 -2.6184082 1.1077881 2.1148682 3.5247803 5.1361084 8.660889 -3.9276123 -4.3304443 4.0283203 1.2084961 -3.3233643 -7.8552246 2.1148682 4.1290283 -0.20141602 1.3092041 12.084961 25.076294 27.090454 12.084961 -2.0141602 -21.75293 -20.74585 -31.420898 -24.975586 -1.8127441 6.4453125 13.897705 20.24231 27.191162 9.567261 -23.364258 -32.730103 -23.162842 -2.5177002 8.056641 14.501953 34.140015 32.83081 40.686035 50.05188 48.03772 46.5271 32.226562 17.523193 -3.4240723 -19.436646 -30.413818 -57.000732 -69.79065 -65.05737 -68.28003 -72.81189 -68.78357 -58.309937 -48.641968 -23.162842 
8.862305 1.7120361 0 -2.4169922 4.9346924 10.473633 12.789917 11.480713 6.3446045 4.6325684 2.5177002 -1.4099121 0.70495605 9.667969 5.0354004 -2.0141602 -7.4523926 1.4099121 2.2155762 6.9488525 14.401245 5.9417725 -0.50354004 6.7474365 21.047974 22.860718 1.4099121 -0.40283203 -3.2226562 -11.279297 -10.574341 -16.113281 -13.897705 -20.443726 -18.026733 -21.047974 -10.473633 -5.7403564 -5.8410645 -8.358765 -8.560181 -1.5106201 1.9134521 5.2368164 5.0354004 4.4311523 13.897705 22.055054 23.26355 12.084961 1.1077881 2.5177002 4.6325684 7.5531006 12.689209 9.365845 -3.4240723 -3.5247803 -2.0141602 -1.2084961 -13.394165 -6.2438965 4.4311523 10.372925 14.099121 15.609741 12.387085 4.1290283 1.0070801 -10.171509 -18.328857 -12.588501 -6.5460205 -9.970093 -12.084961 -4.8339844 6.1431885 1.8127441 5.1361084 -5.0354004 -13.494873 -10.876465 -11.984253 -3.6254883 10.675049 20.645142 22.76001 10.473633 1.5106201 -3.5247803 -2.5177002 0.9063721 17.019653 30.81665 37.664795 34.34143 18.530273 11.883545 9.466553 6.8481445 -2.0141602 1.2084961 6.0424805 -3.9276123 -5.8410645 -15.206909 -22.357178 -13.595581 -10.070801 -24.371338 -30.81665 -25.881958 -18.127441 -14.099121 -22.659302 -19.436646 -12.286377 -4.9346924 -8.761597 -2.2155762 -1.6113281 8.963013 12.890625 6.2438965 5.5389404 4.7332764 5.7403564 6.7474365 11.178589 4.4311523 -0.60424805 -1.1077881 -8.560181 -5.1361084 -2.4169922 5.1361084 11.178589 13.595581 23.364258 30.31311 32.226562 20.846558 15.408325 4.0283203 -4.4311523 -10.675049 -20.141602 -21.954346 -22.76001 -10.171509 -6.9488525 -9.466553 -13.595581 -16.314697 -18.127441 -8.761597 -6.7474365 -2.9205322 -6.3446045 -9.365845 -1.9134521 -3.6254883 -2.4169922 -7.6538086 -7.0495605 -2.2155762 -3.7261963 7.1502686 11.682129 4.1290283 12.789917 7.9559326 1.5106201 -2.0141602 -9.164429 -1.8127441 6.1431885 7.5531006 10.574341 23.062134 27.493286 14.703369 -3.7261963 -13.897705 -8.157349 -6.8481445 -2.0141602 8.560181 6.4453125 4.7332764 -2.1148682 -3.4240723 -6.7474365 -5.6396484 -5.8410645 -0.40283203 -9.768677 -12.991333 -15.307617 -4.3304443 4.1290283 10.272217 9.265137 7.4523926 4.2297363 1.2084961 3.3233643 1.9134521 2.7191162 3.1219482 3.5247803 4.9346924 7.6538086 -0.20141602 -7.5531006 -1.6113281 -2.6184082 -0.60424805 -1.1077881 3.3233643 
3282.5774 3299.7986 -3283.5845 -3267.6726 -3251.358 -3235.144 -3219.1313 -3203.3203 -3187.6099 -3172.2014 -3156.8938 -3141.687 -3126.6814 -3111.8774 -3096.9727 -3082.2693 -3067.7673 -3053.5674 -3039.2668 -1803.5797 1221.0846 3299.8992 3299.8992 3299.8992 3299.8992 3299.8992 3299.8992 3299.8992 3299.8992 3299.8992 3299.8992 3299.8992 3299.8992 3299.8992 3299.8992 3299.8992 3299.8992 3294.7632 3278.549 -1020.1721 3283.081 3299.6978 -3283.8867 -3266.9678 -3250.7537 -3234.8418 -3219.0308 -3203.3203 -3187.7104 -3172.2014 -3156.8938 -3141.687 -3126.6814 -3111.7766 -3097.174 -3082.4707 -3067.868 -3053.6682 -3039.2668 -1793.9117 1327.3315 3299.8992 3299.8992 3299.8992 3299.8992 3299.8992 3299.8992 3299.8992 3299.8992 3299.8992 3299.8992 3299.8992 3299.8992 3299.8992 3299.8992 3299.8992 3299.8992 3294.058 3277.9448 -588.4369 3281.5703 3298.59 -3285.0952 -3268.2769 -3252.063 -3236.1511 -3220.4407 -3204.6294 -3189.0198 -3173.5107 -3158.1023 -3142.8955 -3127.89 -3113.086 -3098.2817 -3083.5784 -3069.0764 -3054.6753 -3040.4753 -1765.7135 1280.5023 3299.8992 3299.8992 3299.8992 3299.8992 3299.8992 3299.8992 3299.8992 3299.8992 3299.8992 3299.8992 3299.8992 3299.8992 3299.8992 3299.8992 3299.8992 3299.8992 3293.3533 3277.24 -434.85718 3280.4626 3296.9788 -3286.5051 -3269.6868 -3253.372 -3237.4602 -3221.6492 -3205.838 -3190.2283 -3174.8198 -3159.4116 -3144.3054 -3129.1992 -3114.2944 -3099.4902 -3084.8877 -3070.285 -3055.9844 -3041.7847 -1959.9792 1151.6968 3299.8992 3299.8992 3299.8992 3299.8992 3299.8992 3299.8992 3299.8992 3299.8992 3299.8992 3299.8992 3299.8992 3299.8992 3299.8992 3299.8992 3299.8992 3299.8992 3293.6553 3277.6428 -91.8457 3279.8584 3297.0793 -3286.7065 -3269.8882 -3253.6743 -3237.6616 -3221.9512 -3206.1401 -3190.5303 -3175.0212 -3159.613 -3144.5068 -3129.4006 -3114.4958 -3099.6917 -3084.9883 -3070.5872 -3056.1858 -3041.8853 -2195.7366 715.329 3299.8992 3299.8992 3299.8992 3299.8992 3299.8992 3299.8992 3299.8992 3299.8992 3299.8992 3299.8992 3299.8992 3299.8992 3299.8992 3299.8992 3299.8992 3299.8992 3297.1802 3281.067 339.99023 3282.1746 3299.4963 -3283.8867 -3267.874 -3251.6602 -3235.446 -3219.3328 -3203.5217 -3187.8113 -3172.4028 -3157.0952 -3141.989 -3126.8828 -3112.0789 -3097.2747 -3082.5713 -3068.0693 -3053.6682 -3039.4683 -1923.9258 
3251.4587 3266.9678 3282.8796 3298.2878 -3286.3037 -3271.0967 -3256.3933 -3241.388 -3226.6846 -3212.1826 -3197.5798 -3183.1787 -3168.8782 -3154.779 -3140.7805 -3126.8828 -3113.086 -3099.3896 -3085.6934 -934.3689 1722.409 3299.8992 3299.8992 3299.8992 3299.8992 3299.8992 3299.8992 3299.8992 3299.8992 3299.8992 3299.8992 3299.8992 3299.8992 3299.8992 3299.8992 3292.5476 3277.6428 3262.8386 3247.6318 -1250.1892 3253.07 3268.7805 3284.491 3299.8992 -3284.793 -3269.3848 -3254.6814 -3239.7766 -3225.0732 -3210.5713 -3195.9685 -3181.668 -3167.3674 -3153.2683 -3139.27 -3125.2715 -3111.5752 -3097.9797 -2997.9766 -506.25916 2080.8289 3299.8992 3299.8992 3299.8992 3299.8992 3299.8992 3299.8992 3299.8992 3299.8992 3299.8992 3299.8992 3299.8992 3299.8992 3299.8992 3299.8992 3289.9292 3275.0244 3260.1196 3245.114 -535.5652 3248.639 3264.2485 3280.5632 3295.5688 -3289.0227 -3273.6145 -3258.9111 -3244.0063 -3229.2021 -3214.5996 -3200.1982 -3185.6963 -3171.4966 -3157.196 -3143.1975 -3129.4006 -3115.503 -3101.8066 -3071.997 -856.1188 1709.7198 3299.8992 3299.8992 3299.8992 3299.8992 3299.8992 3299.8992 3299.8992 3299.8992 3299.8992 3299.8992 3299.8992 3299.8992 3299.8992 3299.8992 3290.0298 3275.0244 3260.2202 3245.2148 -466.98303 3248.639 3264.2485 3280.1604 3295.6694 -3289.224 -3273.816 -3258.9111 -3244.107 -3229.4036 -3214.7002 -3200.0977 -3185.797 -3171.5972 -3157.3975 -3143.399 -3129.5012 -3115.6035 -3101.9072 -3085.8948 -872.7356 1735.9039 3299.8992 3299.8992 3299.8992 3299.8992 3299.8992 3299.8992 3299.8992 3299.8992 3299.8992 3299.8992 3299.8992 3299.8992 3299.8992 3299.8992 3289.8284 3275.0244 3260.2202 3245.0134 -165.56396 3247.8333 3263.4429 3279.2542 3294.7632 -3290.1306 -3275.125 -3259.8174 -3245.0134 -3230.2092 -3215.6067 -3201.004 -3186.6028 -3172.3022 -3158.2031 -3144.104 -3130.2063 -3116.3086 -3102.713 -3089.1174 -1165.3931 1477.7893 3299.8992 3299.8992 3299.8992 3299.8992 3299.8992 3299.8992 3299.8992 3299.8992 3299.8992 3299.8992 3299.8992 3299.8992 3299.8992 3299.8992 3291.742 3276.9377 3262.033 3247.0276 5.9417725 3249.1423 3265.2556 3280.664 3296.0723 -3288.6199 -3273.715 -3258.4075 -3243.6035 -3228.7993 -3214.1968 -3199.6948 -3185.3943 -3171.0938 -3156.8938 -3142.7947 -3128.9978 -3115.2007 -3101.4038 -3087.909 -970.9259 
3299.8992 3299.8992 3299.8992 3299.8992 3299.8992 3299.8992 3289.1235 3273.715 3259.4146 3244.6106 3229.605 3214.801 3200.0977 3185.6963 3170.993 3156.5918 3142.2913 3122.9553 1903.0792 -170.09583 -1815.0604 -3062.732 3147.6287 3163.5405 3179.251 3194.76 3209.6648 3225.1738 3240.4814 3255.5876 3270.7947 3285.5986 3299.8992 -3284.8938 -3270.291 -3255.789 -3241.287 -3226.9866 -3212.8875 506.9641 3299.8992 3299.8992 3299.8992 3299.8992 3299.8992 3299.8992 3292.6482 3277.0386 3262.1338 3247.4304 3232.6262 3217.8223 3203.119 3188.4155 3173.8127 3159.4116 3145.0103 3127.89 2269.8577 80.76782 -1616.7664 -3045.3093 3146.6216 3162.332 3178.3447 3193.8538 3208.8591 3224.3682 3239.6758 3254.6814 3269.7876 3284.6924 3299.4963 -3285.8 -3271.1975 -3256.5947 -3242.0928 -3227.9937 -3213.693 289.3341 3299.8992 3299.8992 3299.8992 3299.8992 3299.8992 3299.8992 3292.2454 3276.9377 3262.5366 3247.7324 3233.029 3218.1243 3203.421 3188.919 3174.0142 3159.613 3145.413 3129.1992 2283.9568 192.3523 -1505.0812 -2900.6926 3145.2117 3161.023 3176.4312 3191.7388 3207.6506 3222.7568 3237.7625 3252.9692 3267.874 3282.7788 3297.583 -3287.6128 -3273.0103 -3258.5083 -3244.0063 -3229.7058 -3215.5059 97.08252 3299.8992 3299.8992 3299.8992 3299.8992 3299.8992 3299.8992 3291.9434 3276.3335 3261.5295 3246.7253 3232.022 3217.1172 3202.3132 3187.8113 3173.108 3158.7065 3144.3054 3126.7822 2263.1104 238.47656 -1516.864 -2941.0767 3144.5068 3160.4187 3175.827 3191.336 3206.9458 3222.2534 3237.1582 3252.2644 3267.2698 3282.1746 3296.9788 -3288.1165 -3273.6145 -3259.0117 -3244.5098 -3230.2092 -3215.9087 48.138428 3299.8992 3299.8992 3299.8992 3299.8992 3299.8992 3299.8992 3291.2383 3275.83 3261.5295 3246.7253 3231.9214 3217.218 3202.4138 3187.7104 3173.108 3158.606 3144.3054 3125.9766 2080.3252 -51.159668 -1798.9471 -3240.1794 3148.7366 3164.2456 3180.1575 3195.6665 3210.6719 3226.0803 3241.4885 3256.4941 3271.6003 3286.5051 3299.8992 -3283.9873 -3269.4854 -3255.0842 -3240.4814 -3226.2817 -3211.9812 -177.04468 3299.8992 3299.8992 3299.8992 3299.8992 3299.8992 3299.8992 3296.0723 3280.3618 3265.457 3250.7537 3235.8489 3221.1455 3206.3416 3191.7388 3177.0354 3162.5334 3148.1323 3130.2063 2204.2969 213.8031 
-3193.8538 -3178.1433 -3162.9363 -3147.3267 -3132.1196 -3117.2148 -3102.31 -3087.7075 -3073.1047 -3058.7036 -3044.5037 -3030.2031 -3016.2048 -3002.1057 -2988.3086 -2974.5117 -2961.0168 -2947.4211 -2934.027 -2346.5972 -787.93945 837.08496 2395.4407 3299.8992 3299.8992 3299.8992 3299.8992 3299.8992 3299.8992 3299.8992 3299.8992 3299.8992 3299.8992 3299.8992 3299.8992 3299.8992 3299.8992 3299.8992 3299.8992 2120.105 -3196.0693 -3180.1575 -3164.447 -3149.3408 -3134.3352 -3119.4304 -3104.5256 -3089.923 -3075.3203 -3060.8184 -3046.5178 -3032.318 -3018.219 -3004.3213 -2990.4236 -2976.7273 -2962.9302 -2949.4353 -2936.0413 -2436.4287 -1071.8353 241.3971 1684.7443 3010.4644 3299.8992 3299.8992 3299.8992 3299.8992 3299.8992 3299.8992 3299.8992 3299.8992 3299.8992 3299.8992 3299.8992 3299.8992 3299.8992 3299.8992 3299.8992 2255.4565 -3189.4226 -3173.7122 -3158.0017 -3142.7947 -3127.89 -3112.8845 -3098.0803 -3083.4778 -3068.9758 -3054.373 -3040.1733 -3025.9734 -3011.975 -2998.0774 -2984.1797 -2970.4834 -2956.8877 -2943.3928 -2929.9988 -2568.0542 -1139.5111 339.18457 1806.1981 3111.8774 3299.8992 3299.8992 3299.8992 3299.8992 3299.8992 3299.8992 3299.8992 3299.8992 3299.8992 3299.8992 3299.8992 3299.8992 3299.8992 3299.8992 3299.8992 2561.508 -3186.6028 -3170.691 -3155.5847 -3139.9749 -3124.8687 -3109.8633 -3095.16 -3080.3557 -3065.8538 -3051.5532 -3037.2527 -3023.053 -3009.0544 -2995.1567 -2981.1584 -2967.5627 -2953.9673 -2940.4724 -2927.179 -2125.6438 -597.3999 958.84094 2388.4917 3299.8992 3299.8992 3299.8992 3299.8992 3299.8992 3299.8992 3299.8992 3299.8992 3299.8992 3299.8992 3299.8992 3299.8992 3299.8992 3299.8992 3299.8992 3299.8992 2304.2998 -3191.8396 -3176.1292 -3160.922 -3145.413 -3130.1055 -3115.3015 -3100.3967 -3085.794 -3071.1914 -3056.79 -3042.4895 -3028.189 -3014.1907 -3000.1921 -2986.3953 -2972.699 -2959.1033 -2945.5078 -2932.013 -2485.1714 -1003.15247 564.4684 2020.7062 3258.609 3299.8992 3299.8992 3299.8992 3299.8992 3299.8992 3299.8992 3299.8992 3299.8992 3299.8992 3299.8992 3299.8992 3299.8992 3299.8992 3299.8992 3299.8992 2555.0627 -3191.7388 -3175.9277 -3160.3179 -3145.111 -3130.005 -3115.1 -3100.296 -3085.5925 -3070.99 -3056.5886 -3042.389 -3028.0884 -3014.0898 -3000.0916 -2986.1938 -2972.4976 -2958.9019 -2945.407 -2932.013 -2197.4487 
3299.8992 3299.8992 3298.6907 3283.8867 3268.7805 3253.372 3238.1653 3222.6562 3207.3486 3191.2354 3176.1292 3160.8215 3145.514 3130.5083 3115.503 3100.5981 3085.794 2953.8665 1674.0692 35.046387 -1164.9902 -2149.6123 -3000.8972 3099.893 3116.4092 3133.0261 3149.5422 3166.0583 3182.2722 3198.3855 3214.3982 3230.31 3246.222 3262.033 3277.7434 3293.5547 -3291.0369 -3275.83 -3260.4216 91.8457 3299.8992 3299.8992 3299.8992 3288.4185 3273.2117 3257.904 3242.5964 3227.0874 3211.679 3195.465 3180.359 3165.0513 3149.945 3134.8389 3119.6318 3104.9285 3089.218 2918.921 1710.6262 187.82043 -1071.1304 -2094.8271 -3013.385 3102.411 3119.1284 3135.846 3152.1606 3168.6768 3184.9915 3201.004 3217.0166 3233.029 3248.941 3264.6514 3280.3618 3296.173 -3288.5193 -3273.0103 -3257.904 -218.23425 3299.8992 3299.8992 3299.8992 3292.5476 3277.24 3262.033 3246.6248 3231.1157 3215.808 3199.4934 3184.3872 3168.9788 3153.772 3138.6658 3123.5596 3108.7554 3093.75 2970.9868 1741.745 176.54114 -986.9385 -1925.3357 -2899.1821 3104.2236 3120.8403 3137.5579 3153.9734 3170.3887 3186.7034 3202.9175 3218.8293 3234.8418 3250.653 3266.464 3282.1746 3297.6836 -3286.7065 -3271.399 -3256.0913 -288.42773 3299.8992 3299.8992 3299.8992 3294.6624 3279.2542 3263.9465 3248.639 3233.13 3217.6208 3201.5076 3186.3005 3171.0938 3155.6853 3140.579 3125.473 3110.568 3094.8577 2914.389 1673.3643 110.37598 -1113.327 -2126.1475 -3020.0317 3109.1582 3125.9766 3142.4927 3159.0088 3175.2227 3191.5374 3207.6506 3223.6633 3239.6758 3255.3862 3271.0967 3286.8071 3299.8992 -3281.9731 -3266.7664 -3251.5593 -255.69763 3299.8992 3299.8992 3299.8992 3298.892 3283.5845 3268.0754 3252.8687 3237.3596 3221.7498 3205.536 3190.3289 3175.122 3159.7136 3144.6074 3129.4006 3114.4958 3099.4902 2972.4976 1782.3303 134.94873 -1140.1154 -2110.3362 -3134.738 3112.985 3129.602 3146.2188 3162.6343 3179.0496 3195.1628 3211.2761 3227.188 3243.2007 3259.2131 3274.7222 3290.5334 3299.8992 -3278.549 -3263.1409 -3247.9338 -521.8689 3299.8992 3299.8992 3299.8992 3299.8992 3288.5193 3273.1108 3257.7026 3242.1936 3226.6846 3210.269 3195.0623 3179.7546 3164.5476 3149.3408 3134.0332 3119.1284 3104.2236 3063.5376 1996.3348 355.09644 
-577.66113 -2283.8562 -3100.4973 -3085.6934 -3070.99 -3056.5886 -3042.1875 -3028.189 -3014.1907 -3000.1921 -2986.3953 -2972.7996 -2959.204 -2945.8098 -2867.2576 -2572.183 -2181.6375 -1873.169 -1544.9615 -1181.3049 -926.6144 -504.3457 -228.10364 -145.32166 260.53162 1512.4329 2622.3357 3299.8992 3299.8992 3299.8992 3299.8992 3299.8992 3299.8992 3299.8992 3299.8992 3299.8992 3299.8992 3299.8992 3299.8992 1484.3353 -663.26294 -2237.5305 -3082.5713 -3067.7673 -3053.2654 -3038.7634 -3024.6643 -3010.5652 -2996.6675 -2983.0718 -2969.275 -2955.6792 -2942.2852 -2928.9917 -2867.6604 -2421.222 -1991.9037 -1765.3107 -1465.3015 -930.13916 -494.57703 -83.58765 216.2201 557.82166 926.6144 1986.264 3295.8708 3299.8992 3299.8992 3299.8992 3299.8992 3299.8992 3299.8992 3299.8992 3299.8992 3299.8992 3299.8992 3299.8992 3299.8992 1472.049 -802.24 -2368.753 -3085.5925 -3070.8892 -3056.3872 -3041.986 -3027.7861 -3013.7878 -2999.6887 -2986.093 -2972.1953 -2958.7004 -2945.3064 -2932.1135 -2734.5244 -2388.0889 -2077.6062 -1898.8495 -1477.185 -1170.0256 -790.155 -390.74707 -178.5553 42.800903 499.61243 1660.7758 2966.0522 3299.8992 3299.8992 3299.8992 3299.8992 3299.8992 3299.8992 3299.8992 3299.8992 3299.8992 3299.8992 3299.8992 3299.8992 1638.62 -447.7478 -2025.3387 -3080.2551 -3065.5518 -3051.1504 -3036.6484 -3022.4487 -3008.551 -2994.5525 -2980.6548 -2967.0593 -2953.5645 -2940.1702 -2926.8767 -2863.0278 -2452.8442 -2050.3142 -1655.8411 -1215.2435 -805.46265 -453.891 -197.3877 62.13684 22.961426 253.17993 1384.3323 2550.0273 3299.8992 3299.8992 3299.8992 3299.8992 3299.8992 3299.8992 3299.8992 3299.8992 3299.8992 3299.8992 3299.8992 3299.8992 1703.2745 -503.54004 -2024.5331 -3076.126 -3061.5234 -3047.0215 -3032.62 -3018.521 -3004.4219 -2990.625 -2976.828 -2963.1316 -2949.6367 -2936.3433 -2921.64 -2639.3555 -2066.4275 -1693.103 -1292.7887 -822.3816 -616.93726 -410.88867 -70.69702 214.60876 449.057 783.4076 1807.1045 3116.2078 3299.8992 3299.8992 3299.8992 3299.8992 3299.8992 3299.8992 3299.8992 3299.8992 3299.8992 3299.8992 3299.8992 3299.8992 1750.9094 -501.42517 -2161.5967 -3091.2322 -3076.4282 -3061.9263 -3047.4243 -3033.2244 -3019.1252 -3005.2275 -2991.2292 -2977.533 -2964.038 -2950.6438 -2937.0483 -2846.6125 -2422.9338 -2066.4275 -1852.0203 -1558.7585 -1082.309 

2.4169922 7.3516846 5.6396484 2.6184082 7.2509766 5.4382324 6.7474365 6.9488525 -8.963013 -15.106201 -18.127441 -17.22107 -7.3516846 -1.5106201 10.775757 11.480713 11.581421 20.040894 30.615234 23.565674 30.413818 25.27771 46.728516 65.15808 67.07153 45.117188 36.657715 44.714355 53.475952 58.71277 63.74817 72.40906 49.145508 16.818237 -8.358765 -32.32727 -53.778076 -59.71985 -55.59082 -53.375244 -66.6687 -73.516846 -58.914185 -40.182495 -24.169922 -14.602661 -21.24939 -28.701782 -29.406738 -34.643555 -36.557007 -32.83081 -27.29187 -27.593994 -18.73169 -1.9134521 16.113281 22.457886 10.372925 -8.459473 -6.0424805 -5.0354004 -3.6254883 -13.595581 -4.7332764 9.667969 25.982666 18.530273 23.565674 23.666382 7.1502686 -1.3092041 -2.5177002 4.7332764 10.272217 9.869385 13.897705 12.487793 7.4523926 6.7474365 -0.70495605 -12.991333 -18.73169 -15.106201 -11.279297 5.1361084 6.5460205 6.3446045 -0.10070801 -13.494873 -22.558594 -18.328857 -14.099121 -6.6467285 5.2368164 17.926025 10.876465 2.9205322 -14.401245 -16.818237 -17.523193 -28.097534 -25.680542 -15.911865 -1.0070801 0.80566406 -5.9417725 -7.1502686 -20.645142 -30.615234 -25.982666 -4.6325684 -1.4099121 -10.473633 -11.178589 11.178589 32.42798 28.701782 20.040894 13.394165 16.71753 19.839478 27.896118 26.28479 27.79541 10.876465 9.164429 27.191162 39.37683 28.399658 2.8198242 -16.21399 -40.88745 -49.54834 -45.52002 -35.34851 -18.832397 -2.5177002 -10.272217 -10.070801 -10.070801 -10.070801 -10.070801 -10.070801 -10.070801 -10.070801 -10.070801 -10.070801 -10.070801 -10.070801 -10.070801 -10.070801 -10.070801 -10.070801 -10.070801 -10.070801 -10.070801 -10.070801 -10.070801 -10.070801 4.5318604 -35.95276 -48.03772 -44.41223 -25.479126 8.358765 21.75293 22.155762 19.839478 15.206909 11.077881 1.0070801 -19.73877 -19.73877 -18.026733 -11.581421 -15.206909 -29.80957 -37.564087 -32.32727 -19.940186 -18.832397 -11.682129 -4.5318604 -17.72461 -25.177002 -16.616821 -11.782837 -3.3233643 -3.7261963 -6.6467285 -21.652222 -23.968506 -11.480713 -0.40283203 -1.8127441 4.3304443 9.265137 5.6396484 -2.1148682 
5.8410645 8.056641 1.4099121 -2.4169922 -7.0495605 -7.1502686 -3.1219482 -4.6325684 -1.3092041 -1.8127441 -2.9205322 -4.1290283 -5.8410645 -6.5460205 -5.5389404 7.1502686 6.7474365 10.070801 11.380005 9.970093 6.5460205 1.7120361 5.5389404 4.1290283 5.9417725 -1.6113281 1.7120361 14.099121 24.069214 36.154175 38.36975 24.572754 2.8198242 -8.761597 -20.343018 -10.171509 -7.1502686 -8.459473 -5.9417725 -12.789917 -23.062134 -21.652222 -16.516113 -11.480713 -2.8198242 -7.6538086 4.8339844 5.0354004 10.977173 9.164429 1.4099121 -5.7403564 -13.092041 -8.157349 -0.60424805 -4.0283203 2.9205322 22.25647 16.012573 -2.4169922 -14.401245 -8.660889 -4.0283203 -10.876465 -3.6254883 13.092041 27.996826 18.127441 0.70495605 -18.530273 -18.530273 -15.609741 -11.782837 -5.8410645 -2.6184082 -6.3446045 -3.6254883 0.60424805 0.50354004 7.4523926 6.7474365 2.7191162 -1.4099121 -7.4523926 -4.8339844 5.5389404 4.3304443 8.660889 18.933105 13.394165 11.178589 8.157349 10.473633 9.567261 14.099121 19.134521 19.23523 8.660889 3.7261963 0.40283203 -5.8410645 -17.825317 -20.443726 -27.694702 -32.629395 -33.83789 -23.867798 -9.063721 12.286377 11.984253 7.4523926 1.8127441 3.2226562 15.609741 23.968506 24.874878 26.78833 18.630981 11.883545 0.60424805 8.358765 11.581421 17.623901 17.72461 12.084961 -9.063721 -17.72461 -21.047974 -29.30603 -33.132935 -30.31311 -34.542847 -34.44214 -29.406738 -22.961426 -6.0424805 -5.7403564 -1.3092041 -4.9346924 -11.682129 -12.689209 -4.3304443 1.7120361 10.977173 12.991333 2.8198242 -3.0212402 0.50354004 -3.6254883 -4.2297363 -0.50354004 7.7545166 16.415405 0.50354004 -2.1148682 -4.3304443 -4.7332764 -4.1290283 -1.0070801 7.7545166 7.0495605 5.5389404 -8.157349 -13.998413 -5.6396484 -6.1431885 -6.2438965 -3.7261963 -5.7403564 -10.675049 -8.056641 -13.494873 -12.286377 -6.6467285 -1.9134521 1.4099121 0 2.6184082 3.0212402 7.2509766 -2.0141602 -3.6254883 -2.6184082 -0.40283203 4.2297363 2.3162842 4.3304443 -3.4240723 5.8410645 10.574341 4.0283203 -4.3304443 -1.5106201 2.8198242 2.3162842 -0.80566406 2.3162842 -1.6113281 -1.9134521 1.1077881 
1230.5511 3299.8992 3299.8992 3299.8992 3299.8992 3299.8992 3299.8992 3299.8992 3299.8992 3299.8992 3299.8992 3299.8992 3299.8992 3299.8992 3299.8992 3299.8992 3299.8992 3295.0652 3278.952 508.87756 3279.7576 3296.3745 -3287.21 -3270.1904 -3254.0771 -3238.0645 -3222.2534 -3206.543 -3190.8325 -3175.3235 -3160.0159 -3144.8088 -3129.8035 -3114.8987 -3100.0945 -3085.492 -3070.99 -3056.488 -3042.1875 -2158.374 767.4957 3299.8992 3299.8992 3299.8992 3299.8992 3299.8992 3299.8992 3299.8992 3299.8992 3299.8992 3299.8992 3299.8992 3299.8992 3299.8992 3299.8992 3299.8992 3299.8992 3296.173 3280.0598 743.82935 3280.2612 3297.4822 -3285.901 -3269.8882 -3253.5735 -3237.2588 -3221.2463 -3205.435 -3189.7246 -3174.3164 -3159.0088 -3143.8018 -3128.7964 -3113.7908 -3099.0874 -3084.384 -3069.882 -3055.481 -3041.281 -2219.2017 746.0449 3299.8992 3299.8992 3299.8992 3299.8992 3299.8992 3299.8992 3299.8992 3299.8992 3299.8992 3299.8992 3299.8992 3299.8992 3299.8992 3299.8992 3299.8992 3299.8992 3297.583 3281.4697 1060.1532 3280.664 3297.2808 -3285.6995 -3269.6868 -3253.473 -3237.1582 -3221.045 -3205.2336 -3189.7246 -3174.115 -3158.8074 -3143.7012 -3128.595 -3113.5894 -3098.886 -3084.2834 -3069.6807 -3055.2795 -3041.0796 -2117.4866 858.8379 3299.8992 3299.8992 3299.8992 3299.8992 3299.8992 3299.8992 3299.8992 3299.8992 3299.8992 3299.8992 3299.8992 3299.8992 3299.8992 3299.8992 3299.8992 3299.8992 3296.2737 3280.2612 1202.8564 3279.0527 3296.2737 -3287.5122 -3270.6938 -3254.3792 -3238.4673 -3222.5554 -3206.845 -3191.2354 -3175.7263 -3160.3179 -3145.111 -3130.1055 -3115.3015 -3100.3967 -3085.794 -3071.1914 -3056.79 -3042.5903 -2399.2676 572.0215 3299.8992 3299.8992 3299.8992 3299.8992 3299.8992 3299.8992 3299.8992 3299.8992 3299.8992 3299.8992 3299.8992 3299.8992 3299.8992 3299.8992 3299.8992 3299.8992 3298.3887 3282.376 1400.1434 3280.5632 3297.1802 -3286.0015 -3269.8882 -3253.473 -3237.2588 -3221.2463 -3205.435 -3189.7246 -3174.2156 -3158.908 -3143.7012 -3128.6956 -3113.6902 -3098.886 -3084.2834 -3069.7815 -3055.2795 -3041.0796 -2206.2102 
1882.7362 3299.8992 3299.8992 3299.8992 3299.8992 3299.8992 3299.8992 3299.8992 3299.8992 3299.8992 3299.8992 3299.8992 3299.8992 3299.8992 3299.8992 3290.0298 3275.125 3260.321 3245.2148 -6.8481445 3247.4304 3263.4429 3278.65 3294.3604 3299.8992 -3275.4272 -3260.1196 -3245.4163 -3230.5115 -3215.9087 -3201.4067 -3187.0056 -3172.6042 -3158.606 -3144.5068 -3130.5083 -3116.812 -3103.0151 -3089.218 -1273.7549 1249.585 3299.8992 3299.8992 3299.8992 3299.8992 3299.8992 3299.8992 3299.8992 3299.8992 3299.8992 3299.8992 3299.8992 3299.8992 3299.8992 3299.8992 3292.8496 3278.0457 3263.1409 3248.1353 218.63708 3249.5452 3265.6584 3281.067 3296.6765 -3288.1165 -3273.2117 -3258.0046 -3243.0999 -3228.3965 -3213.794 -3199.292 -3184.8906 -3170.691 -3156.3904 -3142.3918 -3128.4941 -3114.6973 -3101.001 -3087.4053 -1164.4867 1470.4376 3299.8992 3299.8992 3299.8992 3299.8992 3299.8992 3299.8992 3299.8992 3299.8992 3299.8992 3299.8992 3299.8992 3299.8992 3299.8992 3299.8992 3293.4539 3278.65 3263.745 3248.639 296.48438 3249.948 3266.162 3281.5703 3296.878 -3287.8142 -3272.8088 -3257.5012 -3242.697 -3227.893 -3213.2903 -3198.7883 -3184.3872 -3170.0867 -3155.9875 -3141.989 -3128.0913 -3114.2944 -3100.5981 -3082.0679 -658.12683 1989.4867 3299.8992 3299.8992 3299.8992 3299.8992 3299.8992 3299.8992 3299.8992 3299.8992 3299.8992 3299.8992 3299.8992 3299.8992 3299.8992 3299.8992 3288.922 3274.118 3259.314 3244.2078 759.03625 3244.4092 3260.4216 3275.9307 3291.339 3299.8992 -3278.4485 -3263.2415 -3248.236 -3233.432 -3218.8293 -3204.2266 -3189.926 -3175.6255 -3161.4258 -3147.2258 -3133.2275 -3119.5312 -3105.835 -3092.1387 -1227.3285 1314.2395 3299.8992 3299.8992 3299.8992 3299.8992 3299.8992 3299.8992 3299.8992 3299.8992 3299.8992 3299.8992 3299.8992 3299.8992 3299.8992 3299.8992 3290.0298 3275.2258 3260.321 3245.4163 1121.8872 3244.2078 3259.8174 3275.7292 3291.2383 3299.8992 -3278.1462 -3263.2415 -3248.3367 -3233.5327 -3218.93 -3204.3274 -3189.926 -3175.7263 -3161.6272 -3147.4272 -3133.429 -3119.6318 -3105.9355 -3092.2393 -1204.065 
-1508.0017 -2986.093 3148.8372 3164.6484 3180.359 3195.868 3210.8733 3226.4832 3241.69 3256.7961 3271.8018 3286.6057 3299.8992 -3283.6853 -3269.0825 -3254.5806 -3240.1794 -3225.879 -3211.7798 -252.27356 3299.8992 3299.8992 3299.8992 3299.8992 3299.8992 3299.8992 3296.2737 3280.8655 3266.3635 3251.7607 3236.9568 3221.9512 3207.3486 3192.6453 3178.0425 3163.5405 3149.1394 3132.5225 2358.1787 253.58276 -1506.3904 -2909.152 3148.233 3163.9434 3179.5532 3195.1628 3210.269 3225.778 3241.0857 3256.192 3271.1975 3286.1023 3299.8992 -3284.2896 -3269.7876 -3255.1848 -3240.7837 -3226.4832 -3212.2832 -446.03577 3299.8992 3299.8992 3299.8992 3299.8992 3299.8992 3299.8992 3296.6765 3281.067 3266.2627 3251.4587 3236.6545 3221.8506 3207.0464 3192.343 3177.7405 3163.2385 3148.8372 3133.0261 2430.6885 340.59448 -1385.9436 -2780.85 3146.4202 3162.332 3177.7405 3193.1487 3208.96 3224.0662 3239.1724 3254.1777 3269.284 3284.1887 3298.993 -3286.203 -3271.6003 -3257.0984 -3242.697 -3228.3965 -3214.1968 -602.536 3299.8992 3299.8992 3299.8992 3299.8992 3299.8992 3299.8992 3295.5688 3280.1604 3265.8599 3250.955 3236.1511 3221.347 3206.543 3191.8396 3177.1362 3162.8357 3148.4343 3131.314 2332.2966 213.29956 -1581.1157 -3041.4824 3148.6357 3164.2456 3179.956 3195.465 3210.6719 3226.2817 3241.5894 3256.6956 3271.701 3286.6057 3299.8992 -3283.8867 -3269.284 -3254.782 -3240.28 -3226.0803 -3211.8804 -826.4099 3299.8992 3299.8992 3299.8992 3299.8992 3299.8992 3299.8992 3298.6907 3283.081 3268.0754 3253.2715 3238.568 3223.6633 3209.0605 3194.1558 3179.6538 3165.0513 3150.65 3134.9395 2553.1494 652.7893 -1153.006 -2653.1523 3144.6074 3160.62 3176.3306 3191.6382 3207.3486 3222.6562 3237.561 3252.5664 3267.6726 3282.5774 3297.4822 -3287.8142 -3273.2117 -3258.609 -3244.107 -3229.5044 -3215.6067 -912.21313 3299.8992 3299.8992 3299.8992 3299.8992 3299.8992 3299.8992 3295.7703 3280.1604 3265.155 3250.5522 3235.6475 3220.944 3206.1401 3191.4368 3176.834 3162.332 3147.83 3131.8176 2522.3328 529.5227 
-600.72327 848.5657 2309.6375 3299.8992 3299.8992 3299.8992 3299.8992 3299.8992 3299.8992 3299.8992 3299.8992 3299.8992 3299.8992 3299.8992 3299.8992 3299.8992 3299.8992 3299.8992 3299.8992 2599.2737 -3198.6877 -3182.776 -3167.0654 -3151.7578 -3136.6516 -3121.646 -3106.842 -3092.2393 -3077.6367 -3063.034 -3048.8342 -3034.6343 -3020.5352 -3006.436 -2992.5383 -2978.842 -2965.1458 -2951.651 -2938.156 -2289.093 -786.9324 638.38806 1975.1862 2891.7297 3299.8992 3299.8992 3299.8992 3299.8992 3299.8992 3299.8992 3299.8992 3299.8992 3299.8992 3299.8992 3299.8992 3299.8992 3299.8992 3299.8992 3299.8992 2666.5466 -3198.0835 -3182.2722 -3167.0654 -3151.5564 -3136.2488 -3121.344 -3106.4392 -3091.7358 -3077.133 -3062.5305 -3048.3306 -3034.03 -3019.931 -3006.0332 -2992.1355 -2978.3386 -2964.743 -2951.1475 -2937.7532 -2704.1106 -1314.5416 393.6676 1904.5898 3094.757 3299.8992 3299.8992 3299.8992 3299.8992 3299.8992 3299.8992 3299.8992 3299.8992 3299.8992 3299.8992 3299.8992 3299.8992 3299.8992 3299.8992 3299.8992 2826.37 -3194.6594 -3178.6467 -3163.6414 -3148.1323 -3132.8247 -3117.819 -3102.9143 -3088.4124 -3073.8098 -3059.207 -3045.0073 -3030.8074 -3016.7083 -3002.8105 -2988.9128 -2975.116 -2961.5203 -2947.9248 -2934.43 -2352.539 -711.30066 752.89307 2062.0972 3299.8992 3299.8992 3299.8992 3299.8992 3299.8992 3299.8992 3299.8992 3299.8992 3299.8992 3299.8992 3299.8992 3299.8992 3299.8992 3299.8992 3299.8992 3299.8992 2790.921 -3198.285 -3182.373 -3166.7632 -3151.5564 -3136.4502 -3121.4446 -3106.6406 -3092.0378 -3077.3345 -3062.8325 -3048.532 -3034.2314 -3020.1323 -3006.2346 -2992.337 -2978.54 -2964.8438 -2951.3489 -2937.854 -2680.142 -1365.2985 202.02026 1711.734 3006.0332 3299.8992 3299.8992 3299.8992 3299.8992 3299.8992 3299.8992 3299.8992 3299.8992 3299.8992 3299.8992 3299.8992 3299.8992 3299.8992 3299.8992 3299.8992 3011.3708 -3194.458 -3178.6467 -3163.44 -3147.83 -3132.5225 -3117.6177 -3102.8137 -3088.1104 -3073.6084 -3059.0056 -3044.806 -3030.606 -3016.5068 -3002.6091 -2988.6108 -2974.9146 -2961.3188 -2947.7234 -2934.329 -2573.1902 
-965.4877 -1994.7235 -3008.551 3112.8845 3129.8035 3146.4202 3162.8357 3179.1504 3195.3643 3211.377 3227.2888 3243.402 3259.314 3274.9236 3290.5334 3299.8992 -3278.4485 -3262.9395 -3247.9338 -562.55493 3299.8992 3299.8992 3299.8992 3299.8992 3288.8213 3273.413 3258.0046 3242.4956 3226.9866 3210.6719 3195.3643 3180.1575 3164.8499 3149.6428 3134.436 3119.4304 3104.425 3032.721 1886.8652 365.06653 -898.819 -1964.5111 -2849.9358 3112.683 3129.2998 3145.7153 3162.332 3178.7476 3194.9614 3210.974 3227.188 3242.9993 3258.8103 3274.5208 3290.332 3299.8992 -3278.8513 -3263.5437 -3248.1353 -588.03406 3299.8992 3299.8992 3299.8992 3299.8992 3288.6199 3273.2117 3257.7026 3242.2942 3226.886 3210.5713 3195.1628 3179.8552 3164.749 3149.4414 3134.3352 3119.229 3104.425 3083.377 2185.3638 526.7029 -892.17224 -1937.1185 -2852.8564 3109.7625 3126.48 3143.097 3159.8145 3176.1292 3192.343 3208.255 3224.5696 3240.3809 3256.192 3272.1038 3287.7136 3299.8992 -3281.1675 -3265.9607 -3250.7537 -885.92834 3299.8992 3299.8992 3299.8992 3299.8992 3287.7136 3272.3052 3256.897 3241.388 3225.879 3209.6648 3194.2566 3179.0496 3163.8428 3148.5352 3133.3281 3118.4233 3103.418 3059.912 2055.7524 466.37878 -819.56177 -1750.5066 -2629.486 3278.3477 3123.6602 3140.277 3156.8938 3173.2085 3189.5232 3205.6365 3221.6492 3237.6616 3253.473 3269.284 3284.9944 3299.8992 -3283.8867 -3268.579 -3253.372 -995.9015 3299.8992 3299.8992 3299.8992 3299.8992 3285.901 3270.3918 3255.0842 3239.5752 3223.9653 3207.852 3192.6453 3177.2368 3161.9292 3146.7224 3131.7168 3116.7114 3101.7058 3076.6296 2117.688 593.8751 -657.724 -1629.657 -2684.4727 3105.13 3120.236 3137.155 3153.5706 3169.8853 3186.3005 3202.3132 3218.527 3234.6404 3250.1494 3266.162 3281.8726 3297.3816 -3287.1094 -3271.6003 -3256.4941 -1035.9833 3299.8992 3299.8992 3299.8992 3298.3887 3282.9802 3267.6726 3252.2644 3236.856 3221.347 3205.2336 3189.926 3174.6184 3159.4116 3144.3054 3128.9978 3114.093 3099.0874 3042.1875 2025.0366 456.6101 
-672.22595 -445.2301 -211.38611 160.42786 628.6194 1639.0228 3069.1772 3299.8992 3299.8992 3299.8992 3299.8992 3299.8992 3299.8992 3299.8992 3299.8992 3299.8992 3299.8992 3299.8992 3299.8992 1886.0596 -285.91003 -1813.4491 -3089.8223 -3075.0183 -3060.5164 -3045.9136 -3031.8145 -3017.6147 -3003.6162 -2989.92 -2976.123 -2962.5273 -2949.0325 -2935.6384 -2710.0525 -2358.4807 -2125.7446 -1803.6804 -1423.5077 -1076.0651 -707.6752 -291.14685 -87.716675 65.05737 410.58655 1461.1725 2744.696 3299.8992 3299.8992 3299.8992 3299.8992 3299.8992 3299.8992 3299.8992 3299.8992 3299.8992 3299.8992 3299.8992 3299.8992 1810.8307 -489.1388 -2029.5685 -3084.082 -3069.3787 -3054.776 -3040.3748 -3026.0742 -3012.1765 -2998.178 -2984.4817 -2970.6848 -2957.089 -2943.5942 -2930.2002 -2788.504 -2452.0386 -2188.1836 -1891.9006 -1607.1991 -958.6395 -470.91064 -188.12256 -6.5460205 109.469604 453.9917 1464.4958 2785.1807 3299.8992 3299.8992 3299.8992 3299.8992 3299.8992 3299.8992 3299.8992 3299.8992 3299.8992 3299.8992 3299.8992 3299.8992 2014.9658 -285.4065 -2007.6141 -3081.4636 -3066.6594 -3052.1575 -3037.7563 -3023.5564 -3009.558 -2995.5596 -2981.8633 -2968.167 -2954.4707 -2941.0767 -2927.8838 -2889.7156 -2471.475 -1955.5481 -1605.6885 -1152.0996 -810.29663 -497.29614 -271.91162 -75.73242 125.582886 466.07666 1443.1458 2880.249 3299.8992 3299.8992 3299.8992 3299.8992 3299.8992 3299.8992 3299.8992 3299.8992 3299.8992 3299.8992 3299.8992 3299.8992 2074.0813 -272.41516 -1921.2067 -3084.2834 -3069.4792 -3055.0781 -3040.5762 -3026.3762 -3012.277 -2998.3794 -2984.4817 -2970.8862 -2957.3914 -2943.8965 -2930.5022 -2396.9512 -2047.7966 -1803.479 -1590.8844 -1317.3615 -986.3342 -695.6909 -398.6023 -149.7528 83.08411 366.37573 1326.4252 2765.5425 3299.8992 3299.8992 3299.8992 3299.8992 3299.8992 3299.8992 3299.8992 3299.8992 3299.8992 3299.8992 3299.8992 3299.8992 1894.519 -464.66675 -2057.8674 -3084.8877 -3070.1843 -3055.5815 -3041.1804 -3026.9805 -3012.8813 -2998.9836 -2985.086 -2971.3896 -2957.7942 -2944.5007 -2931.1064 -2856.8848 -2456.369 -2170.459 -1822.2107 -1453.0151 -1055.9235 

0.20141602 2.0141602 -2.2155762 -10.574341 -18.22815 -22.558594 -22.961426 -15.106201 -8.862305 -5.2368164 6.6467285 17.22107 26.586914 9.365845 2.1148682 10.272217 6.4453125 -6.0424805 -3.9276123 10.070801 11.581421 5.0354004 1.6113281 12.588501 26.889038 32.226562 25.076294 31.521606 27.392578 7.6538086 -18.832397 -45.01648 -47.836304 -23.364258 -13.998413 -3.6254883 3.0212402 10.775757 9.063721 4.1290283 -12.588501 -20.645142 -29.708862 -36.053467 -23.867798 -6.0424805 11.581421 16.616821 8.258057 -20.74585 -16.71753 -10.574341 2.9205322 3.0212402 2.6184082 -11.480713 -23.867798 -24.874878 -14.904785 -7.7545166 1.0070801 6.9488525 11.984253 12.991333 17.019653 7.6538086 -12.487793 -0.60424805 0.50354004 -8.862305 -1.9134521 2.4169922 10.171509 13.595581 10.675049 15.609741 11.380005 34.039307 56.295776 68.78357 51.159668 37.564087 34.542847 13.796997 -9.768677 -25.982666 -33.33435 -43.103027 -40.38391 -32.93152 -24.572754 -24.169922 -18.73169 -12.286377 -21.954346 -28.29895 -66.56799 -90.234375 -89.12659 -75.83313 -26.687622 22.25647 37.96692 48.641968 66.36658 65.25879 47.93701 44.311523 34.240723 20.74585 12.890625 4.7332764 5.0354004 -4.8339844 -2.0141602 0.9063721 1.0070801 2.5177002 -11.682129 -13.998413 -16.818237 -20.141602 -12.789917 12.689209 39.578247 51.663208 55.18799 45.620728 50.152588 43.103027 35.44922 29.80957 22.357178 18.328857 18.328857 10.372925 7.9559326 4.7332764 5.6396484 9.265137 -1.4099121 -22.659302 -29.30603 -30.615234 -38.168335 -53.878784 -61.23047 -56.19507 -39.779663 -19.537354 -2.1148682 2.5177002 -4.1290283 -7.7545166 -6.4453125 -20.24231 -40.686035 -51.5625 -49.95117 -26.586914 -15.307617 -18.127441 -19.033813 -18.328857 2.2155762 16.21399 29.910278 36.053467 36.35559 30.514526 26.083374 29.910278 39.175415 39.175415 21.75293 6.7474365 -8.660889 -3.2226562 0.9063721 3.1219482 -1.4099121 -17.422485 -24.069214 -25.479126 -7.5531006 -4.3304443 9.667969 0.10070801 -13.998413 -17.523193 -12.387085 1.0070801 -5.5389404 -6.4453125 -4.2297363 -2.1148682 -2.6184082 -0.30212402 -1.8127441 3.8269043 9.970093 6.0424805 7.6538086 7.0495605 5.5389404 11.178589 7.6538086 9.667969 12.890625 10.272217 5.7403564 4.8339844 3.1219482 11.581421 23.26355 15.911865 21.551514 39.175415 43.40515 39.37683 
7.7545166 8.056641 11.480713 7.6538086 12.286377 2.3162842 -3.4240723 -9.567261 -13.595581 -12.991333 -10.675049 -9.667969 -2.6184082 -6.4453125 -3.8269043 6.9488525 10.775757 6.8481445 4.2297363 2.6184082 -1.6113281 -6.3446045 -5.1361084 2.1148682 12.789917 8.157349 11.077881 5.3375244 8.963013 6.3446045 -0.10070801 -3.6254883 -0.20141602 3.4240723 15.811157 19.23523 7.7545166 2.1148682 4.2297363 8.056641 3.2226562 -3.3233643 -4.4311523 -7.8552246 5.5389404 20.645142 26.989746 34.140015 18.22815 5.7403564 -5.8410645 -6.1431885 -28.097534 -49.246216 -49.749756 -39.578247 -29.910278 -10.675049 -9.466553 -9.265137 -0.40283203 -5.8410645 -10.070801 -8.459473 -2.7191162 -4.2297363 -0.40283203 5.7403564 3.4240723 6.4453125 13.696289 24.169922 34.84497 28.198242 23.062134 27.79541 29.507446 30.010986 24.975586 10.574341 -6.3446045 -24.572754 -28.29895 -33.33435 -25.479126 -19.839478 -15.408325 -12.387085 -17.422485 -14.602661 -15.005493 -14.401245 -13.192749 -9.265137 -8.157349 2.8198242 5.5389404 -0.10070801 -5.9417725 -2.0141602 4.7332764 5.1361084 3.2226562 6.1431885 7.9559326 14.099121 11.682129 11.380005 4.3304443 -7.6538086 -22.25647 -28.097534 -17.72461 -9.768677 -5.0354004 1.0070801 0.20141602 3.9276123 1.9134521 1.7120361 -0.70495605 -3.8269043 3.3233643 2.8198242 0.60424805 5.3375244 -7.8552246 -9.567261 -5.9417725 -1.9134521 2.7191162 -2.6184082 0.70495605 -2.5177002 -5.5389404 2.5177002 1.9134521 -3.9276123 0 1.4099121 5.1361084 3.2226562 3.0212402 7.8552246 2.3162842 -10.876465 -15.307617 -10.171509 -10.272217 3.3233643 15.206909 13.092041 11.984253 0.10070801 5.9417725 3.0212402 6.9488525 25.982666 38.974 16.616821 -0.20141602 -12.185669 -21.954346 -24.572754 -14.501953 -4.9346924 -4.2297363 2.5177002 -5.3375244 -14.401245 -17.623901 -11.883545 -5.7403564 0.50354004 7.3516846 6.2438965 -2.9205322 -9.365845 -2.7191162 -3.4240723 -2.7191162 3.7261963 -8.459473 -10.070801 -8.056641 -1.2084961 7.8552246 3.3233643 0.10070801 3.7261963 2.8198242 4.7332764 6.8481445 -1.1077881 -3.0212402 -2.7191162 -4.9346924 -6.5460205 -1.1077881 1.6113281 -4.9346924 3.4240723 -0.20141602 -4.3304443 2.6184082 -0.50354004 -0.9063721 -3.7261963 0.10070801 -3.8269043 -4.4311523 0 1.5106201 6.0424805 6.9488525 8.761597 10.372925 3.2226562 2.6184082 5.2368164 
830.53894 3299.8992 3299.8992 3299.8992 3299.8992 3299.8992 3299.8992 3299.8992 3299.8992 3299.8992 3299.8992 3299.8992 3299.8992 3299.8992 3299.8992 3299.8992 3299.8992 3296.9788 3280.8655 1625.0244 3278.4485 3295.0652 -3288.4185 -3271.399 -3255.2856 -3239.1724 -3223.462 -3207.6506 -3192.041 -3176.532 -3161.1235 -3145.9167 -3130.8105 -3115.9058 -3101.1016 -3086.499 -3071.8962 -3057.495 -3043.1946 -2398.8647 545.23315 3299.8992 3299.8992 3299.8992 3299.8992 3299.8992 3299.8992 3299.8992 3299.8992 3299.8992 3299.8992 3299.8992 3299.8992 3299.8992 3299.8992 3299.8992 3299.8992 3297.4822 3281.369 1723.0133 3278.549 3295.6694 -3288.0156 -3271.0967 -3254.8828 -3238.87 -3223.059 -3207.3486 -3191.7388 -3176.1292 -3160.8215 -3145.6145 -3130.6091 -3115.6035 -3100.9001 -3086.1968 -3071.5942 -3057.1929 -3042.9932 -2460.0952 501.7273 3299.8992 3299.8992 3299.8992 3299.8992 3299.8992 3299.8992 3299.8992 3299.8992 3299.8992 3299.8992 3299.8992 3299.8992 3299.8992 3299.8992 3299.8992 3299.8992 3298.4893 3282.5774 2033.5968 3278.8513 3295.2666 -3287.6128 -3271.4995 -3255.1848 -3238.971 -3222.8577 -3207.0464 -3191.4368 -3175.9277 -3160.5193 -3145.413 -3130.2063 -3115.402 -3100.5981 -3085.9954 -3071.292 -3056.9915 -3042.691 -2342.7703 602.7374 3299.8992 3299.8992 3299.8992 3299.8992 3299.8992 3299.8992 3299.8992 3299.8992 3299.8992 3299.8992 3299.8992 3299.8992 3299.8992 3299.8992 3299.8992 3299.8992 3297.1802 3281.2683 2211.0442 3276.8372 3294.159 -3289.7278 -3272.8088 -3256.5947 -3240.5823 -3224.771 -3209.0605 -3193.2495 -3177.841 -3162.4329 -3147.1252 -3132.1196 -3117.2148 -3102.411 -3087.7075 -3073.2056 -3058.7036 -3044.403 -2447.2046 535.06165 3299.8992 3299.8992 3299.8992 3299.8992 3299.8992 3299.8992 3299.8992 3299.8992 3299.8992 3299.8992 3299.8992 3299.8992 3299.8992 3299.8992 3299.8992 3299.8992 3296.878 3280.8655 2461.3037 3275.5278 3292.044 -3290.8354 -3274.823 -3258.609 -3242.2942 -3226.181 -3210.269 -3194.5586 -3179.1504 -3163.742 -3148.5352 -3133.3281 -3118.4233 -3103.5186 -3088.916 -3074.414 -3059.912 -3045.6116 -2591.3176 310.4828 3299.8992 3299.8992 3299.8992 3299.8992 3299.8992 3299.8992 3299.8992 3299.8992 3299.8992 3299.8992 3299.8992 3299.8992 3299.8992 3299.8992 3299.8992 3299.8992 3297.4822 3281.5703 2560.7024 
1545.0623 3299.8992 3299.8992 3299.8992 3299.8992 3299.8992 3299.8992 3299.8992 3299.8992 3299.8992 3299.8992 3299.8992 3299.8992 3299.8992 3299.8992 3288.8213 3274.0173 3259.1125 3244.2078 1166.6016 3242.8984 3258.7097 3274.6216 3290.1306 3299.8992 -3279.1533 -3264.3494 -3249.4446 -3234.6404 -3219.937 -3205.435 -3191.034 -3176.7334 -3162.5334 -3148.4343 -3134.5366 -3120.639 -3106.9426 -3093.2463 -1708.7128 965.6891 3299.8992 3299.8992 3299.8992 3299.8992 3299.8992 3299.8992 3299.8992 3299.8992 3299.8992 3299.8992 3299.8992 3299.8992 3299.8992 3299.8992 3293.2524 3278.3477 3263.6443 3248.639 1655.1361 3245.6177 3261.3281 3277.24 3292.6482 3299.8992 -3276.6357 -3261.9324 -3246.9268 -3232.1228 -3217.6208 -3203.018 -3188.516 -3174.115 -3160.1165 -3145.9167 -3132.019 -3118.222 -3104.5256 -3090.9302 -1162.8754 1768.5333 3299.8992 3299.8992 3299.8992 3299.8992 3299.8992 3299.8992 3299.8992 3299.8992 3299.8992 3299.8992 3299.8992 3299.8992 3299.8992 3299.8992 3288.6199 3273.715 3258.9111 3243.9055 1479.0985 3241.7908 3257.5012 3273.413 3288.8213 3299.8992 -3280.4626 -3265.5579 -3250.653 -3235.7483 -3221.2463 -3206.6436 -3192.2424 -3177.942 -3163.742 -3149.5422 -3135.5437 -3121.8474 -3108.0505 -3094.4548 -2165.4236 261.94153 2738.7542 3299.8992 3299.8992 3299.8992 3299.8992 3299.8992 3299.8992 3299.8992 3299.8992 3299.8992 3299.8992 3299.8992 3299.8992 3299.8992 3298.993 3283.9873 3269.284 3254.1777 2085.1592 3249.646 3265.2556 3281.1675 3296.6765 -3288.1165 -3272.708 -3257.904 -3242.8984 -3228.296 -3213.5925 -3199.1912 -3184.5886 -3170.3887 -3156.2896 -3142.2913 -3128.2927 -3114.5964 -3100.7996 -3087.3047 -1720.697 847.05505 3271.9023 3299.8992 3299.8992 3299.8992 3299.8992 3299.8992 3299.8992 3299.8992 3299.8992 3299.8992 3299.8992 3299.8992 3299.8992 3299.8992 3299.8992 3285.0952 3270.291 3255.2856 1881.0242 3251.4587 3267.6726 3283.081 3298.4893 -3286.3037 -3270.8953 -3256.0913 -3241.1865 -3226.3823 -3211.7798 -3197.3784 -3182.9773 -3168.6768 -3154.4768 -3140.579 -3126.5808 -3112.7837 -3099.0874 -3085.5925 -1652.6184 987.74414 3299.8992 3299.8992 3299.8992 3299.8992 3299.8992 3299.8992 3299.8992 3299.8992 3299.8992 3299.8992 3299.8992 3299.8992 3299.8992 3299.8992 3299.8992 3285.2966 3270.3918 3255.3862 2266.7358 
-1192.1814 -2626.062 3142.694 3158.4045 3174.417 3189.926 3204.9316 3220.4407 3235.7483 3250.955 3265.9607 3280.966 3295.7703 -3289.4255 -3274.9236 -3260.2202 -3245.819 -3231.5186 -3217.218 -1110.3058 3299.8992 3299.8992 3299.8992 3299.8992 3299.8992 3299.8992 3294.058 3278.7505 3264.45 3249.7466 3234.9426 3220.0378 3205.3345 3190.631 3176.0283 3161.5264 3147.2258 3132.8247 2686.084 706.26526 -1084.021 -2535.9282 3139.1692 3154.9805 3170.691 3186.099 3201.9104 3217.1172 3232.022 3247.1282 3262.2344 3277.1392 3291.9434 3299.8992 -3278.549 -3263.9465 -3249.4446 -3235.144 -3220.8435 -1138.8062 3299.8992 3299.8992 3299.8992 3299.8992 3299.8992 3299.8992 3291.5405 3276.0315 3261.1267 3246.4233 3231.6191 3216.8152 3202.011 3187.509 3172.8057 3158.3037 3144.0032 3128.1921 2440.0542 363.05237 -1409.8114 -2829.5928 3141.8884 3157.498 3173.5107 3189.0198 3204.0251 3219.635 3234.9426 3250.1494 3265.155 3280.0598 3294.8638 -3290.332 -3275.6287 -3261.1267 -3246.6248 -3232.3242 -3218.1243 -1372.8516 3299.8992 3299.8992 3299.8992 3299.8992 3299.8992 3299.8992 3294.3604 3279.0527 3264.6514 3250.0488 3235.144 3220.3398 3205.6365 3190.933 3176.2297 3161.8286 3147.4272 3132.2205 2599.2737 554.19617 -1257.843 -2653.1523 3141.7876 3157.5989 3173.108 3188.617 3204.428 3219.635 3234.5398 3249.646 3264.7522 3279.657 3294.5618 -3290.8354 -3276.0315 -3261.5295 -3247.0276 -3232.727 -3218.527 -1593.2007 3299.8992 3299.8992 3299.8992 3299.8992 3299.8992 3299.8992 3295.7703 3280.1604 3265.2556 3250.5522 3235.7483 3221.045 3206.1401 3191.5374 3176.834 3162.332 3147.931 3132.2205 2416.5894 425.79346 -1341.33 -2806.43 3145.111 3160.62 3176.6326 3192.2424 3207.2478 3222.7568 3238.1653 3253.2715 3268.2769 3283.1816 3298.0864 -3287.3108 -3272.6074 -3258.1055 -3243.6035 -3229.4036 -3215.103 -1437.4054 3299.8992 3299.8992 3299.8992 3299.8992 3299.8992 3299.8992 3297.6836 3282.376 3267.9749 3252.9692 3238.3667 3223.462 3208.7585 3194.0552 3179.4524 3164.8499 3150.4485 3135.745 2646.0022 659.43604 -1193.4906 -2617.6025 3143.7012 3159.613 3175.0212 3190.5303 3206.2407 3221.4478 3236.4531 3251.4587 3266.565 3281.4697 3296.3745 -3288.922 -3274.3193 -3259.7168 -3245.2148 -3230.9143 -3216.6138 -1684.3414 
-1169.7235 367.58423 1873.5718 3299.8992 3299.8992 3299.8992 3299.8992 3299.8992 3299.8992 3299.8992 3299.8992 3299.8992 3299.8992 3299.8992 3299.8992 3299.8992 3299.8992 3299.8992 3299.8992 3046.7192 -3195.1628 -3179.1504 -3163.9434 -3148.4343 -3133.2275 -3118.222 -3103.3171 -3088.6138 -3074.2126 -3059.6099 -3045.2087 -3031.0088 -3017.111 -3003.1128 -2989.1143 -2975.5188 -2961.8225 -2948.2268 -2934.8328 -2758.2915 -1393.6981 99.49951 1581.3171 2994.1497 3299.8992 3299.8992 3299.8992 3299.8992 3299.8992 3299.8992 3299.8992 3299.8992 3299.8992 3299.8992 3299.8992 3299.8992 3299.8992 3299.8992 3299.8992 3155.3833 -3021.945 -3175.827 -3160.1165 -3145.0103 -3129.904 -3114.8987 -3100.0945 -3085.492 -3070.8892 -3056.3872 -3042.0867 -3027.887 -3013.8884 -2999.8901 -2985.9924 -2972.2961 -2958.7004 -2945.105 -2931.7107 -2532.1013 -1038.501 476.7517 1898.2452 3162.4329 3299.8992 3299.8992 3299.8992 3299.8992 3299.8992 3299.8992 3299.8992 3299.8992 3299.8992 3299.8992 3299.8992 3299.8992 3299.8992 3299.8992 3299.8992 3181.8694 -3193.5515 -3178.4453 -3162.6343 -3147.4272 -3132.4219 -3117.4163 -3102.6123 -3087.808 -3073.3062 -3058.8042 -3044.5037 -3030.304 -3016.3054 -3002.2063 -2988.51 -2974.7131 -2961.0168 -2947.522 -2934.1277 -2774.8076 -1344.8547 306.05164 1779.007 3144.8088 3299.8992 3299.8992 3299.8992 3299.8992 3299.8992 3299.8992 3299.8992 3299.8992 3299.8992 3299.8992 3299.8992 3299.8992 3299.8992 3299.8992 3299.8992 3221.045 -2969.0735 -3177.7405 -3162.5334 -3146.9238 -3131.7168 -3116.51 -3101.8066 -3087.1033 -3072.6013 -3057.9985 -3043.7988 -3029.5989 -3015.4998 -3001.602 -2987.6038 -2973.9075 -2960.3118 -2946.817 -2933.322 -2696.054 -1240.7227 292.65747 1754.837 3187.509 3299.8992 3299.8992 3299.8992 3299.8992 3299.8992 3299.8992 3299.8992 3299.8992 3299.8992 3299.8992 3299.8992 3299.8992 3299.8992 3299.8992 3299.8992 3299.8992 -2646.8079 -3179.251 -3164.1448 -3148.4343 -3133.2275 -3118.3228 -3103.5186 -3088.7146 -3074.1118 -3059.6099 -3045.3093 -3031.1096 -3017.0105 -3003.012 -2989.1143 -2975.418 -2961.8225 -2948.2268 -2934.732 -2752.8533 -1277.4811 358.72192 1890.5914 3299.8992 3299.8992 3299.8992 3299.8992 3299.8992 3299.8992 3299.8992 3299.8992 3299.8992 3299.8992 3299.8992 3299.8992 3299.8992 3299.8992 3299.8992 3299.8992 3256.0913 
-765.9851 -1731.9763 -2679.84 3132.9253 3120.0347 3136.7522 3153.2683 3169.6838 3185.797 3202.1118 3218.0237 3234.137 3249.948 3265.8599 3281.4697 3297.0793 -3287.4114 -3272.0032 -3256.6956 -1344.1498 3299.8992 3299.8992 3299.8992 3299.3958 3284.1887 3268.7805 3253.473 3238.0645 3222.6562 3206.3416 3191.1345 3175.9277 3160.5193 3145.3125 3130.2063 3115.3015 3100.3967 3043.8994 2048.703 521.7682 -798.5138 -1774.6765 -2686.2854 3190.8325 3120.8403 3137.3564 3154.1748 3170.3887 3186.7034 3202.716 3218.8293 3234.7412 3250.8545 3266.464 3282.2754 3297.7844 -3286.7065 -3271.1975 -3256.192 -1368.924 3299.8992 3299.8992 3299.8992 3299.8992 3285.1958 3269.7876 3254.3792 3239.0715 3223.5625 3207.2478 3192.041 3176.834 3161.4258 3146.4202 3131.2134 3116.1072 3101.2024 3074.1118 2036.9202 439.79187 -831.0425 -1875.5859 -2819.1191 3107.144 3123.8616 3140.4785 3156.8938 3173.41 3189.624 3205.6365 3221.7498 3237.863 3253.6743 3269.3848 3285.1958 3299.8992 -3283.8867 -3268.4783 -3253.2715 -1302.2552 3299.8992 3299.8992 3299.8992 3299.8992 3287.4114 3271.9023 3256.4941 3241.0857 3225.6775 3209.3628 3194.0552 3178.8481 3163.5405 3148.233 3133.2275 3118.222 3103.2166 3082.7727 2234.207 644.43054 -676.5564 -1698.642 -2570.9746 3278.0457 3120.236 3136.853 3153.4697 3169.6838 3186.099 3202.2124 3218.225 3234.2375 3250.0488 3266.0613 3281.7717 3297.2808 -3287.3108 -3271.8018 -3256.5947 -1469.2291 3299.8992 3299.8992 3299.8992 3299.8992 3285.0952 3269.7876 3254.48 3239.0715 3223.5625 3207.2478 3191.9402 3176.834 3161.5264 3146.2188 3131.1125 3116.1072 3101.1016 3060.9192 2081.6345 470.2057 -799.42017 -1812.7441 -2664.5325 3160.5193 3121.8474 3138.565 3155.081 3171.3958 3187.6099 3203.7231 3219.7356 3235.8489 3251.6602 3267.4712 3283.1816 3298.7915 -3285.8 -3270.291 -3255.1848 -1586.7554 3299.8992 3299.8992 3299.8992 3299.8992 3287.21 3271.8018 3256.3933 3240.8843 3225.3752 3209.262 3194.0552 3178.6467 3163.339 3148.1323 3133.0261 3118.0205 3103.1157 3084.2834 2355.359 776.76086 -628.9215 -1630.0598 -2559.091 3223.9653 3118.4233 3135.0403 3151.657 3167.9717 3184.2864 3200.5005 3216.4124 3232.5256 3248.4375 3264.2485 3279.959 3295.5688 -3289.0227 -3273.6145 -3258.206 -1765.3107 
-633.8562 -255.59692 -36.95984 134.84802 407.5653 1339.4165 2738.9556 3299.8992 3299.8992 3299.8992 3299.8992 3299.8992 3299.8992 3299.8992 3299.8992 3299.8992 3299.8992 3299.8992 3299.8992 1931.1768 -388.22937 -1904.187 -3080.658 -3065.9546 -3051.3518 -3036.9507 -3022.8516 -3008.6516 -2994.8547 -2981.1584 -2967.3613 -2953.8665 -2940.573 -2927.179 -2812.8752 -2406.72 -2138.9373 -1682.428 -1192.6849 -832.95593 -525.4944 -200.61035 68.78357 339.78882 728.5217 1707.5043 2985.086 3299.8992 3299.8992 3299.8992 3299.8992 3299.8992 3299.8992 3299.8992 3299.8992 3299.8992 3299.8992 3299.8992 3299.8992 2190.4998 -96.67969 -1794.516 -3090.0237 -3075.119 -3060.5164 -3046.115 -3031.8145 -3017.514 -3003.717 -2990.0208 -2976.123 -2962.5273 -2949.0325 -2935.6384 -2827.9814 -2489.3005 -2090.5974 -1777.9999 -1262.4756 -947.1588 -713.51624 -333.3435 -103.62854 123.97156 347.1405 1274.6613 2770.8801 3299.8992 3299.8992 3299.8992 3299.8992 3299.8992 3299.8992 3299.8992 3299.8992 3299.8992 3299.8992 3299.8992 3299.8992 1927.7527 -483.70056 -2037.0209 -3084.6863 -3069.983 -3055.3801 -3040.8782 -3026.779 -3012.68 -2998.7822 -2984.9854 -2971.289 -2957.5928 -2944.1985 -2930.905 -2774.707 -2519.815 -2119.8027 -1744.3634 -1313.2324 -909.1919 -525.5951 -242.30347 -41.39099 154.18396 428.00903 1304.3701 2803.5095 3299.8992 3299.8992 3299.8992 3299.8992 3299.8992 3299.8992 3299.8992 3299.8992 3299.8992 3299.8992 3299.8992 3299.8992 1961.3892 -405.75256 -2094.1223 -3082.4707 -3067.6665 -3053.1646 -3038.7634 -3024.5635 -3010.4644 -2996.5667 -2982.7698 -2969.0735 -2955.5786 -2942.1843 -2928.7903 -2677.826 -2352.2368 -1958.7708 -1644.2596 -1399.1364 -932.35474 -611.70044 -393.36548 -114.60571 276.04065 571.0144 1455.835 2891.1255 3299.8992 3299.8992 3299.8992 3299.8992 3299.8992 3299.8992 3299.8992 3299.8992 3299.8992 3299.8992 3299.8992 3299.8992 2332.2966 58.007812 -1581.5186 -2917.7124 -3075.119 -3060.4155 -3045.9136 -3031.613 -3017.514 -3003.6162 -2989.7185 -2975.9216 -2962.4268 -2948.932 -2935.6384 -2921.64 -2615.0847 -2396.045 -1970.2515 -1441.8365 -941.6199 -594.27795 -372.4182 -156.39954 39.276123 374.02954 1263.6841 2690.5151 3299.8992 3299.8992 3299.8992 3299.8992 3299.8992 3299.8992 3299.8992 3299.8992 3299.8992 3299.8992 3299.8992 3299.8992 2303.3936 

49.749756 43.103027 34.84497 23.666382 26.385498 9.466553 -15.206909 -39.779663 -37.261963 -47.232056 -58.20923 -57.806396 -56.900024 -51.763916 -54.0802 -50.354004 -33.33435 -28.701782 -25.177002 9.768677 37.261963 22.155762 1.6113281 -35.34851 -55.993652 -29.708862 -5.5389404 9.567261 23.162842 29.003906 18.026733 8.862305 15.710449 14.501953 5.0354004 4.3304443 3.0212402 1.7120361 -1.0070801 -2.4169922 -11.178589 -21.652222 -22.860718 -17.623901 -5.1361084 -4.6325684 -7.4523926 -4.3304443 -8.056641 -6.4453125 -7.8552246 -15.106201 -16.616821 -19.134521 -13.494873 -10.272217 -4.1290283 -0.60424805 3.3233643 3.5247803 3.5247803 3.5247803 3.5247803 3.5247803 3.5247803 3.5247803 3.5247803 3.5247803 3.5247803 3.5247803 3.5247803 3.5247803 3.5247803 3.5247803 3.5247803 3.5247803 3.5247803 3.5247803 3.5247803 3.5247803 9.265137 10.272217 13.092041 28.701782 32.528687 15.005493 -13.293457 -52.267456 -64.85596 -66.76941 -54.58374 -12.689209 -6.1431885 -2.9205322 16.314697 46.325684 68.28003 46.02356 13.696289 -0.20141602 6.0424805 14.703369 31.723022 47.634888 40.88745 37.261963 38.067627 32.125854 27.694702 0.9063721 -20.141602 -24.371338 -53.67737 -67.977905 -58.10852 -52.468872 -60.22339 -62.942505 -52.56958 -34.94568 -27.392578 -29.104614 -11.581421 13.796997 23.968506 23.062134 17.019653 10.372925 10.876465 -2.8198242 -17.926025 -10.876465 16.314697 32.42798 44.110107 53.07312 46.829224 29.003906 15.710449 4.2297363 -0.30212402 5.3375244 9.063721 3.7261963 -22.558594 -37.161255 -43.00232 -30.917358 -17.22107 -5.5389404 -6.0424805 0.60424805 -2.7191162 -0.20141602 0.20141602 6.8481445 10.272217 15.811157 5.3375244 -0.9063721 -17.120361 -27.896118 -16.415405 -10.876465 -20.24231 -4.0283203 4.4311523 8.459473 12.789917 13.998413 14.199829 23.76709 21.652222 25.680542 25.982666 33.83789 40.48462 33.535767 40.585327 40.88745 37.36267 35.247803 28.29895 3.6254883 -35.34851 -57.302856 -63.949585 -60.424805 -68.58215 -61.431885 -50.55542 -45.620728 -37.261963 -24.472046 -14.199829 -13.595581 -8.963013 -9.567261 -8.358765 -2.2155762 
