wall_time,elapsed_s,F1_N,F2_N
2026-07-22T17:30:20.539,0.2702,0.0137,-0.0178
2026-07-22T17:30:20.539,0.2722,-0.0059,0.1192
2026-07-22T17:30:20.539,0.2722,0.0724,0.0801
2026-07-22T17:30:20.552,0.2722,-0.0059,0.0605
2026-07-22T17:30:20.560,0.2799,0.0529,0.0801
2026-07-22T17:30:20.571,0.2974,0.0333,0.0605
2026-07-22T17:30:20.571,0.3043,-0.0059,0.0409
2026-07-22T17:30:20.593,0.3126,0.0137,0.0801
2026-07-22T17:30:20.602,0.3358,0.0137,0.0213
2026-07-22T17:30:20.606,0.3521,0.0724,0.1388
2026-07-22T17:30:20.619,0.3625,0.0529,0.0801
2026-07-22T17:30:20.634,0.3781,-0.0059,0.0409
2026-07-22T17:30:20.635,0.3781,0.092,0.0605
2026-07-22T17:30:20.650,0.4012,-0.0059,-0.0374
2026-07-22T17:30:20.650,0.4219,0.0137,0.0018
2026-07-22T17:30:20.666,0.4449,0.0333,0.0018
2026-07-22T17:30:20.682,0.467,-0.0255,0.0018
2026-07-22T17:30:20.682,0.4791,0.0529,0.0605
2026-07-22T17:30:20.703,0.5003,0.0724,0.0409
2026-07-22T17:30:20.713,0.5152,0.0333,0.0409
2026-07-22T17:30:20.723,0.5305,0.0529,0.0605
2026-07-22T17:30:20.730,0.5429,-0.0255,0.0605
2026-07-22T17:30:20.741,0.5637,0.1116,0.0605
2026-07-22T17:30:20.752,0.5817,0.0333,0.0213
2026-07-22T17:30:20.761,0.5941,-0.0255,0.0409
2026-07-22T17:30:20.769,0.6106,0.0137,0.0409
2026-07-22T17:30:20.774,0.623,-0.045,0.0213
2026-07-22T17:30:20.785,0.6369,0.092,0.1192
2026-07-22T17:30:20.814,0.672,0.0333,0.0605
2026-07-22T17:30:20.822,0.672,-0.045,0.0605
2026-07-22T17:30:20.827,0.6846,0.0529,0.0213
2026-07-22T17:30:20.830,0.6881,-0.045,-0.057
2026-07-22T17:30:20.840,0.6881,0.0333,0.0409
2026-07-22T17:30:20.857,0.6996,-0.0059,0.1192
2026-07-22T17:30:20.864,0.6996,-0.0255,0.1388
2026-07-22T17:30:20.873,0.6996,0.0529,0.0409
2026-07-22T17:30:20.883,0.7154,0.0137,0.0018
2026-07-22T17:30:20.895,0.7215,-0.0059,0.0409
2026-07-22T17:30:20.905,0.7215,0.1116,0.0213
2026-07-22T17:30:20.913,0.7312,0.0137,0.0409
2026-07-22T17:30:20.923,0.7332,0.0333,0.0605
2026-07-22T17:30:20.938,0.7332,0.0333,0.0605
2026-07-22T17:30:20.938,0.7332,0.0137,0.0605
2026-07-22T17:30:20.957,0.7332,0.092,0.0605
2026-07-22T17:30:20.971,0.7332,0.0137,-0.0178
2026-07-22T17:30:20.989,0.7332,0.1312,0.0605
2026-07-22T17:30:20.996,0.7332,0.0137,0.0018
2026-07-22T17:30:21.004,0.7332,0.0137,0.0605
2026-07-22T17:30:21.005,0.7477,0.0137,0.0605
2026-07-22T17:30:21.018,0.7497,0.0137,0.0409
2026-07-22T17:30:21.027,0.7497,0.1312,0.0605
2026-07-22T17:30:21.039,0.7497,0.092,0.0213
2026-07-22T17:30:21.039,0.7497,-0.0255,0.0605
2026-07-22T17:30:21.055,0.7628,0.0724,0.0213
2026-07-22T17:30:21.060,0.7677,-0.0059,0.0409
2026-07-22T17:30:21.075,0.7677,0.0333,0.0605
2026-07-22T17:30:21.091,0.7721,0.0333,-0.057
2026-07-22T17:30:21.091,0.7786,0.0137,0.0213
2026-07-22T17:30:21.103,0.7807,0.0333,0.0801
2026-07-22T17:30:21.124,0.7807,0.0333,0.0409
2026-07-22T17:30:21.134,0.7807,-0.0255,0.0409
2026-07-22T17:30:21.138,0.79,0.1116,0.0213
2026-07-22T17:30:21.142,0.7944,0.0137,0.0213
2026-07-22T17:30:21.154,0.7944,0.0529,0.0997
2026-07-22T17:30:21.171,0.7944,0.1704,0.0605
2026-07-22T17:30:21.171,0.7944,0.0333,0.0018
2026-07-22T17:30:21.183,0.8199,0.0137,0.0801
2026-07-22T17:30:21.183,0.8284,0.0333,0.0018
2026-07-22T17:30:21.219,0.8832,0.0529,0.0213
2026-07-22T17:30:21.219,0.8832,0.0724,0.0605
2026-07-22T17:30:21.230,0.8832,-0.0059,0.0605
2026-07-22T17:30:21.232,0.8895,0.092,0.0018
2026-07-22T17:30:21.245,0.8895,0.0137,0.0018
2026-07-22T17:30:21.248,0.9019,0.0529,0.0801
2026-07-22T17:30:21.260,0.9113,0.0333,0.0213
2026-07-22T17:30:21.260,0.9113,0.0137,0.0409
2026-07-22T17:30:21.282,0.9241,0.0529,0.0605
2026-07-22T17:30:21.293,0.9241,0.0333,0.0409
2026-07-22T17:30:21.293,0.939,0.0333,0.0409
2026-07-22T17:30:21.310,0.9468,0.0137,0.0801
2026-07-22T17:30:21.323,0.9501,-0.0059,0.0605
2026-07-22T17:30:21.332,0.9582,0.092,0.0018
2026-07-22T17:30:21.341,0.9652,0.0137,0.0018
2026-07-22T17:30:21.350,0.9728,-0.0646,0.0605
2026-07-22T17:30:21.355,0.9775,0.0333,0.0409
2026-07-22T17:30:21.382,0.9848,0.0137,-0.0178
2026-07-22T17:30:21.389,0.9848,0.0333,0.0605
2026-07-22T17:30:21.395,0.9848,0.0333,0.0409
2026-07-22T17:30:21.403,1.0326,-0.045,0.0409
2026-07-22T17:30:21.434,1.0326,0.092,0.0605
2026-07-22T17:30:21.434,1.0326,0.0137,0.1192
2026-07-22T17:30:21.434,1.0326,0.0333,0.0605
2026-07-22T17:30:21.443,1.0326,0.0137,0.0018
2026-07-22T17:30:21.450,1.0484,-0.0059,0.0801
2026-07-22T17:30:21.462,1.0484,0.092,0.0605
2026-07-22T17:30:21.471,1.0597,0.0333,-0.0178
2026-07-22T17:30:21.484,1.0643,0.0333,0.0409
2026-07-22T17:30:21.484,1.0678,0.0724,0.1192
2026-07-22T17:30:21.507,1.0732,-0.045,0.0213
2026-07-22T17:30:21.514,1.0732,0.0333,0.0213
2026-07-22T17:30:21.529,1.0875,0.0724,0.0409
2026-07-22T17:30:21.533,1.0895,0.0333,0.0213
2026-07-22T17:30:21.545,1.0964,0.0529,0.0801
2026-07-22T17:30:21.545,1.102,0.1116,0.0213
2026-07-22T17:30:21.568,1.1503,0.0333,0.0801
2026-07-22T17:30:21.568,1.1503,0.0137,0.0409
2026-07-22T17:30:21.578,1.1566,-0.0255,0.0018
2026-07-22T17:30:21.593,1.1592,0.1312,0.0409
2026-07-22T17:30:21.593,1.1592,-0.0255,0.0409
2026-07-22T17:30:21.609,1.1712,0.092,0.0409
2026-07-22T17:30:21.620,1.1812,-0.0059,0.0801
2026-07-22T17:30:21.633,1.1832,-0.0059,0.0409
2026-07-22T17:30:21.641,1.1945,0.0529,0.0409
2026-07-22T17:30:21.657,1.197,0.0137,0.0409
2026-07-22T17:30:21.662,1.2036,-0.0059,0.0605
2026-07-22T17:30:21.688,1.2455,-0.0255,0.0409
2026-07-22T17:30:21.688,1.2528,-0.045,0.0409
2026-07-22T17:30:21.688,1.2571,0.0333,0.0213
2026-07-22T17:30:21.688,1.2571,0.0529,0.0801
2026-07-22T17:30:21.710,1.2616,-0.0646,0.0018
2026-07-22T17:30:21.719,1.2679,0.0333,0.0409
2026-07-22T17:30:21.731,1.2741,-0.0059,-0.0178
2026-07-22T17:30:21.743,1.2786,-0.0059,0.0605
2026-07-22T17:30:21.757,1.2871,0.0529,0.0018
2026-07-22T17:30:21.764,1.2929,-0.0646,-0.0178
2026-07-22T17:30:21.769,1.2971,-0.0059,0.0409
2026-07-22T17:30:21.792,1.3423,-0.0842,-0.0961
2026-07-22T17:30:21.801,1.3423,-0.045,0.0213
2026-07-22T17:30:21.801,1.3423,-0.1038,-0.0178
2026-07-22T17:30:21.813,1.3679,-0.1821,-0.0178
2026-07-22T17:30:21.822,1.3744,-0.2017,-0.057
2026-07-22T17:30:21.834,1.3811,-0.28,-0.0766
2026-07-22T17:30:21.839,1.3955,-0.3583,-0.0961
2026-07-22T17:30:21.853,1.4035,-0.3192,-0.2724
2026-07-22T17:30:21.863,1.4643,-0.4171,-0.3899
2026-07-22T17:30:21.887,1.475,-0.4562,-0.4682
2026-07-22T17:30:21.902,1.486,-0.5346,-0.5269
2026-07-22T17:30:21.902,1.486,-0.5737,-0.4682
2026-07-22T17:30:21.902,1.4948,-0.5933,-0.3899
2026-07-22T17:30:21.902,1.5096,-0.4954,-0.1157
2026-07-22T17:30:21.923,1.5096,-0.3583,0.2955
2026-07-22T17:30:21.935,1.5343,-0.0842,0.7654
2026-07-22T17:30:21.945,1.5502,0.2487,1.392
2026-07-22T17:30:21.956,1.5619,0.699,2.234
2026-07-22T17:30:21.964,1.5754,1.1494,3.0955
2026-07-22T17:30:21.978,1.5814,1.6781,4.4466
2026-07-22T17:30:21.982,1.5823,2.4026,5.7193
2026-07-22T17:30:21.998,1.6457,3.1075,7.0313
2026-07-22T17:30:21.998,1.6457,3.9103,8.304
2026-07-22T17:30:22.014,1.6645,4.7327,9.5963
2026-07-22T17:30:22.022,1.681,5.5942,10.8103
2026-07-22T17:30:22.035,1.6917,7.004,12.0048
2026-07-22T17:30:22.046,1.7029,8.5509,13.395
2026-07-22T17:30:22.055,1.7134,10.274,15.0006
2026-07-22T17:30:22.070,1.7277,11.7817,16.1951
2026-07-22T17:30:22.070,1.7277,13.0937,17.1153
2026-07-22T17:30:22.087,1.7393,14.2881,17.9769
2026-07-22T17:30:22.087,1.7393,15.2084,18.7601
2026-07-22T17:30:22.110,1.76,16.5203,19.8371
2026-07-22T17:30:22.122,1.7684,17.7539,20.8944
2026-07-22T17:30:22.134,1.7782,18.7133,21.9322
2026-07-22T17:30:22.134,1.7825,19.6532,22.7742
2026-07-22T17:30:22.142,1.7867,20.3973,23.7728
2026-07-22T17:30:22.157,1.8046,20.9847,24.6931
2026-07-22T17:30:22.158,1.8493,21.3567,25.3001
2026-07-22T17:30:22.178,1.8539,21.7875,25.9463
2026-07-22T17:30:22.190,1.8652,22.3358,26.6316
2026-07-22T17:30:22.205,1.8765,22.6295,27.0428
2026-07-22T17:30:22.206,1.8765,22.7274,27.5323
2026-07-22T17:30:22.206,1.8829,23.0015,28.0022
2026-07-22T17:30:22.241,1.887,22.747,28.4918
2026-07-22T17:30:22.241,1.891,22.7861,28.8246
2026-07-22T17:30:22.241,1.891,22.884,29.1575
2026-07-22T17:30:22.252,1.901,22.8449,29.51
2026-07-22T17:30:22.263,1.901,22.7274,29.5295
2026-07-22T17:30:22.288,1.9148,22.8253,29.5883
2026-07-22T17:30:22.288,1.9148,22.8449,29.7058
2026-07-22T17:30:22.299,1.93,22.884,29.7254
2026-07-22T17:30:22.299,1.9321,22.8449,29.7254
2026-07-22T17:30:22.320,1.9381,22.8645,29.6079
2026-07-22T17:30:22.320,1.9438,22.6491,29.647
2026-07-22T17:30:22.338,1.9541,22.5316,29.8037
2026-07-22T17:30:22.343,1.9605,22.4533,29.7254
2026-07-22T17:30:22.365,1.9774,22.277,29.7645
2026-07-22T17:30:22.365,1.9842,22.3945,29.9407
2026-07-22T17:30:22.379,2.0465,22.4533,29.8428
2026-07-22T17:30:22.394,2.0585,22.4337,29.8428
2026-07-22T17:30:22.398,2.0585,22.4728,29.8233
2026-07-22T17:30:22.398,2.0661,22.3358,29.8037
2026-07-22T17:30:22.414,2.0726,22.1595,29.7449
2026-07-22T17:30:22.424,2.0864,22.0812,29.5883
2026-07-22T17:30:22.447,2.0929,21.9442,29.4316
2026-07-22T17:30:22.447,2.0929,22.0616,29.4512
2026-07-22T17:30:22.451,2.0929,22.0616,29.5491
2026-07-22T17:30:22.461,2.1023,22.2183,29.6275
2026-07-22T17:30:22.475,2.1091,22.2574,29.6666
2026-07-22T17:30:22.506,2.1091,22.1595,29.647
2026-07-22T17:30:22.517,2.1201,22.2379,29.647
2026-07-22T17:30:22.517,2.1201,22.1008,29.7841
2026-07-22T17:30:22.521,2.1201,22.1204,29.9799
2026-07-22T17:30:22.527,2.1264,22.2379,30.1953
2026-07-22T17:30:22.544,2.1334,22.2966,30.3519
2026-07-22T17:30:22.553,2.1366,22.4533,30.5477
2026-07-22T17:30:22.553,2.1366,22.4728,30.5869
2026-07-22T17:30:22.576,2.2005,22.3749,30.7631
2026-07-22T17:30:22.600,2.2005,22.2574,30.7827
2026-07-22T17:30:22.601,2.2005,21.9637,30.9198
2026-07-22T17:30:22.601,2.2005,21.8658,30.9198
2026-07-22T17:30:22.607,2.2154,21.6896,30.9981
2026-07-22T17:30:22.615,2.2154,21.6504,31.0568
2026-07-22T17:30:22.626,2.2284,21.7288,31.096
2026-07-22T17:30:22.642,2.2284,21.5917,31.0568
2026-07-22T17:30:22.642,2.2405,21.4742,30.9981
2026-07-22T17:30:22.653,2.2434,21.2001,30.9198
2026-07-22T17:30:22.669,2.261,20.9455,30.9981
2026-07-22T17:30:22.669,2.2691,21.1022,31.2918
2026-07-22T17:30:22.680,2.277,21.2393,31.5268
2026-07-22T17:30:22.694,2.2927,21.4938,31.7618
2026-07-22T17:30:22.703,2.2927,21.5917,31.938
2026-07-22T17:30:22.716,2.357,21.6504,32.075
2026-07-22T17:30:22.735,2.364,21.5721,32.1338
2026-07-22T17:30:22.740,2.364,21.3959,31.9771
2026-07-22T17:30:22.740,2.3693,21.0826,31.938
2026-07-22T17:30:22.761,2.3788,21.0434,31.9576
2026-07-22T17:30:22.761,2.3788,21.2393,32.0163
2026-07-22T17:30:22.776,2.386,21.3959,32.1338
2026-07-22T17:30:22.789,2.3943,21.4155,32.2904
2026-07-22T17:30:22.789,2.3943,21.3567,32.2709
2026-07-22T17:30:22.804,2.4047,21.2784,32.2121
2026-07-22T17:30:22.804,2.4047,21.063,32.2317
2026-07-22T17:30:22.821,2.4047,20.9847,32.1925
2026-07-22T17:30:22.836,2.4111,21.063,32.1338
2026-07-22T17:30:22.844,2.4216,20.9455,32.0359
2026-07-22T17:30:22.853,2.4365,20.9651,31.8597
2026-07-22T17:30:22.853,2.4421,20.8476,31.5464
2026-07-22T17:30:22.870,2.458,20.7106,31.4289
2026-07-22T17:30:22.883,2.5057,20.6518,31.1939
2026-07-22T17:30:22.899,2.5117,20.5148,31.0764
2026-07-22T17:30:22.899,2.5117,20.4952,30.7044
2026-07-22T17:30:22.917,2.5221,20.2994,30.4303
2026-07-22T17:30:22.924,2.5278,20.084,30.2149
2026-07-22T17:30:22.930,2.5335,20.1231,29.8428
2026-07-22T17:30:22.946,2.5492,19.9861,29.5491
2026-07-22T17:30:22.954,2.5553,20.0448,29.3142
2026-07-22T17:30:22.965,2.5663,20.0252,29.04
2026-07-22T17:30:22.971,2.5737,19.849,28.8834
2026-07-22T17:30:22.986,2.5837,19.7707,28.7267
2026-07-22T17:30:22.997,2.5875,19.5749,28.668
2026-07-22T17:30:23.008,2.6033,19.5161,28.5897
2026-07-22T17:30:23.018,2.6033,19.5161,28.5897
2026-07-22T17:30:23.023,2.6141,19.3595,28.668
2026-07-22T17:30:23.051,2.667,19.4574,28.668
2026-07-22T17:30:23.051,2.6699,19.2812,28.6093
2026-07-22T17:30:23.051,2.6699,19.2224,28.6093
2026-07-22T17:30:23.064,2.6801,19.242,28.5701
2026-07-22T17:30:23.072,2.6913,19.2616,28.6484
2026-07-22T17:30:23.082,2.6962,19.3791,28.7267
2026-07-22T17:30:23.107,2.7081,19.4574,28.8834
2026-07-22T17:30:23.115,2.714,19.3595,29.04
2026-07-22T17:30:23.122,2.714,19.3791,29.0792
2026-07-22T17:30:23.130,2.7232,19.3008,29.2946
2026-07-22T17:30:23.140,2.7232,19.5357,29.3729
2026-07-22T17:30:23.144,2.7398,19.5357,29.4121
2026-07-22T17:30:23.148,2.7549,19.4966,29.4904
2026-07-22T17:30:23.163,2.7661,19.5553,29.5491
2026-07-22T17:30:23.174,2.7702,19.3595,29.51
2026-07-22T17:30:23.196,2.8384,19.3595,29.4904
2026-07-22T17:30:23.204,2.8384,19.3399,29.51
2026-07-22T17:30:23.204,2.8494,19.4182,29.6079
2026-07-22T17:30:23.224,2.8601,19.6728,29.647
2026-07-22T17:30:23.227,2.8601,19.5749,29.647
2026-07-22T17:30:23.235,2.8703,19.712,29.7841
2026-07-22T17:30:23.240,2.8812,19.8686,29.8624
2026-07-22T17:30:23.256,2.8942,20.0057,30.0386
2026-07-22T17:30:23.268,2.8942,20.1036,30.1366
2026-07-22T17:30:23.274,2.9049,20.0057,30.2149
2026-07-22T17:30:23.283,2.913,19.9078,30.254
2026-07-22T17:30:23.283,2.9177,20.2015,30.4107
2026-07-22T17:30:23.300,2.9177,20.1819,30.4694
2026-07-22T17:30:23.315,2.9304,20.4169,30.6848
2026-07-22T17:30:23.326,2.9331,20.5735,30.8415
2026-07-22T17:30:23.341,2.9331,20.691,31.1352
2026-07-22T17:30:23.348,2.9493,20.926,31.331
2026-07-22T17:30:23.365,2.9992,20.926,31.4876
2026-07-22T17:30:23.367,3.008,20.9455,31.5855
2026-07-22T17:30:23.386,3.0167,20.9455,31.703
2026-07-22T17:30:23.386,3.0167,20.8868,31.8792
2026-07-22T17:30:23.394,3.0219,21.0826,32.173
2026-07-22T17:30:23.417,3.0239,21.1609,32.4079
2026-07-22T17:30:23.430,3.0395,21.3763,32.7212
2026-07-22T17:30:23.453,3.0425,21.67,32.78
2026-07-22T17:30:23.454,3.0425,21.7484,32.8974
2026-07-22T17:30:23.469,3.0474,21.8071,33.1716
2026-07-22T17:30:23.473,3.0474,21.6113,33.3086
2026-07-22T17:30:23.473,3.0474,21.4351,33.6611
2026-07-22T17:30:23.478,3.0474,21.4546,33.759
2026-07-22T17:30:23.493,3.0556,21.4155,33.8177
2026-07-22T17:30:23.493,3.0556,21.5525,33.8569
2026-07-22T17:30:23.513,3.0556,21.5134,34.0331
2026-07-22T17:30:23.516,3.0717,21.5917,34.1114
2026-07-22T17:30:23.531,3.1272,21.7679,34.2093
2026-07-22T17:30:23.536,3.1292,21.8267,34.4639
2026-07-22T17:30:23.542,3.1378,21.8071,34.6205
2026-07-22T17:30:23.559,3.1475,21.6896,34.5226
2026-07-22T17:30:23.567,3.1509,21.4351,34.601
2026-07-22T17:30:23.577,3.1544,21.4155,34.601
2026-07-22T17:30:23.584,3.1705,21.298,34.5618
2026-07-22T17:30:23.584,3.1705,21.3763,34.5226
2026-07-22T17:30:23.603,3.1823,21.4742,34.5814
2026-07-22T17:30:23.616,3.2068,21.4742,34.7968
2026-07-22T17:30:23.616,3.2183,21.4938,34.8947
2026-07-22T17:30:23.637,3.2353,21.3372,34.8555
2026-07-22T17:30:23.652,3.3098,21.3372,34.9338
2026-07-22T17:30:23.663,3.3108,21.3372,35.0513
2026-07-22T17:30:23.670,3.3108,21.2197,35.1101
2026-07-22T17:30:23.670,3.3164,21.2588,35.3059
2026-07-22T17:30:23.698,3.3325,21.4155,35.6779
2026-07-22T17:30:23.698,3.3338,21.533,36.1478
2026-07-22T17:30:23.708,3.3414,21.5525,36.2653
2026-07-22T17:30:23.731,3.3561,21.4155,36.4024
2026-07-22T17:30:23.731,3.358,21.3176,36.3632
2026-07-22T17:30:23.731,3.358,21.298,36.3632
2026-07-22T17:30:23.742,3.3634,21.1609,36.3241
2026-07-22T17:30:23.758,3.3634,21.298,36.422
2026-07-22T17:30:23.767,3.3715,21.3763,36.422
2026-07-22T17:30:23.778,3.3799,21.4742,36.5199
2026-07-22T17:30:23.795,3.3831,21.3959,36.7548
2026-07-22T17:30:23.795,3.3884,21.2588,36.5982
2026-07-22T17:30:23.811,3.3963,21.1022,36.6961
2026-07-22T17:30:23.812,3.3963,20.9651,36.8528
2026-07-22T17:30:23.843,3.4472,20.9455,37.0094
2026-07-22T17:30:23.843,3.4518,20.9651,36.9507
2026-07-22T17:30:23.843,3.4518,20.926,36.9115
2026-07-22T17:30:23.843,3.4571,20.926,36.8136
2026-07-22T17:30:23.865,3.4624,21.0043,36.3437
2026-07-22T17:30:23.879,3.471,20.9064,35.9912
2026-07-22T17:30:23.891,3.477,20.8476,35.4038
2026-07-22T17:30:23.897,3.4852,20.7106,34.8751
2026-07-22T17:30:23.914,3.4852,20.6127,34.4443
2026-07-22T17:30:23.914,3.4852,20.4364,33.9352
2026-07-22T17:30:23.924,3.4852,20.2406,33.5044
2026-07-22T17:30:23.937,3.4999,20.3973,33.5044
2026-07-22T17:30:23.949,3.5089,20.319,33.4065
2026-07-22T17:30:23.956,3.5191,20.4952,33.387
2026-07-22T17:30:23.964,3.5713,20.5148,33.3086
2026-07-22T17:30:23.990,3.5794,20.3581,33.5044
2026-07-22T17:30:23.990,3.5794,20.319,33.2695
2026-07-22T17:30:23.990,3.5794,20.2406,33.4653
2026-07-22T17:30:24.012,3.592,20.2602,33.5436
2026-07-22T17:30:24.017,3.5951,20.2406,33.6219
2026-07-22T17:30:24.030,3.5951,20.1623,33.6611
2026-07-22T17:30:24.037,3.5951,20.3581,33.7198
2026-07-22T17:30:24.045,3.6056,20.2798,33.7786
2026-07-22T17:30:24.060,3.6111,20.2211,33.994
2026-07-22T17:30:24.069,3.6268,20.2994,34.0723
2026-07-22T17:30:24.069,3.6308,20.2994,34.3268
2026-07-22T17:30:24.086,3.6406,20.456,34.5422
2026-07-22T17:30:24.116,3.6946,20.3973,34.5618
2026-07-22T17:30:24.127,3.7018,20.3385,34.738
2026-07-22T17:30:24.127,3.7018,20.3581,34.9338
2026-07-22T17:30:24.128,3.7018,20.4169,35.1296
2026-07-22T17:30:24.152,3.7107,20.4364,35.4234
2026-07-22T17:30:24.152,3.7107,20.5148,35.6192
2026-07-22T17:30:24.155,3.7107,20.6322,35.9912
2026-07-22T17:30:24.171,3.7225,20.8672,36.2653
2026-07-22T17:30:24.178,3.7225,20.8868,36.4416
2026-07-22T17:30:24.191,3.7225,20.8868,36.4611
2026-07-22T17:30:24.191,3.7332,20.8281,36.6569
2026-07-22T17:30:24.207,3.7382,20.6714,37.0094
2026-07-22T17:30:24.219,3.7852,20.7497,37.1856
2026-07-22T17:30:24.242,3.8003,20.7302,37.401
2026-07-22T17:30:24.242,3.8003,20.7889,37.5381
2026-07-22T17:30:24.251,3.8029,20.8281,37.6751
2026-07-22T17:30:24.255,3.8109,20.9064,37.9101
2026-07-22T17:30:24.262,3.8129,21.0043,38.2626
2026-07-22T17:30:24.283,3.8249,20.9847,38.5759
2026-07-22T17:30:24.283,3.8249,20.926,38.8108
2026-07-22T17:30:24.298,3.8249,20.926,38.8696
2026-07-22T17:30:24.298,3.8455,20.8281,39.1633
2026-07-22T17:30:24.322,3.8936,20.9455,39.2416
2026-07-22T17:30:24.337,3.9039,21.0239,39.4178
2026-07-22T17:30:24.337,3.9039,20.9847,39.7311
2026-07-22T17:30:24.353,3.9039,21.2393,39.9074
2026-07-22T17:30:24.353,3.9039,21.2784,40.1619
2026-07-22T17:30:24.363,3.9215,21.3763,40.3185
2026-07-22T17:30:24.385,3.9277,21.2784,40.4752
2026-07-22T17:30:24.385,3.9277,21.063,40.7297
2026-07-22T17:30:24.385,3.9379,21.0239,40.9256
2026-07-22T17:30:24.406,3.9589,20.9455,41.0626
2026-07-22T17:30:24.410,3.972,20.9064,41.278
2026-07-22T17:30:24.450,4.0338,21.0434,41.4738
2026-07-22T17:30:24.450,4.0338,21.2001,41.8263
2026-07-22T17:30:24.450,4.0338,21.3372,42.0417
2026-07-22T17:30:24.464,4.0542,21.3959,42.1983
2026-07-22T17:30:24.464,4.0542,21.2197,42.1591
2026-07-22T17:30:24.479,4.0542,21.2393,42.1591
2026-07-22T17:30:24.488,4.0628,21.1022,41.9633
2026-07-22T17:30:24.498,4.0778,21.1413,41.8263
2026-07-22T17:30:24.498,4.0778,21.1413,41.6696
2026-07-22T17:30:24.527,4.0869,21.063,41.5717
2026-07-22T17:30:24.532,4.0935,21.1805,41.5326
2026-07-22T17:30:24.532,4.0935,21.1609,41.4151
2026-07-22T17:30:24.574,4.1661,21.2197,41.4151
2026-07-22T17:30:24.574,4.1674,21.1218,41.3955
2026-07-22T17:30:24.574,4.1674,20.926,41.1214
2026-07-22T17:30:24.574,4.1674,20.9455,41.278
2026-07-22T17:30:24.594,4.1797,20.9064,41.2584
2026-07-22T17:30:24.594,4.1797,20.8476,41.2584
2026-07-22T17:30:24.594,4.1797,20.9064,41.1409
2026-07-22T17:30:24.614,4.189,20.7693,40.8668
2026-07-22T17:30:24.623,4.189,20.6322,40.671
2026-07-22T17:30:24.638,4.189,20.5539,40.3773
2026-07-22T17:30:24.647,4.2043,20.3581,40.299
2026-07-22T17:30:24.654,4.2131,20.3581,40.2011
2026-07-22T17:30:24.654,4.2677,20.4169,40.1619
2026-07-22T17:30:24.670,4.2727,20.4952,40.2794
2026-07-22T17:30:24.695,4.2785,20.6518,40.4165
2026-07-22T17:30:24.695,4.2785,20.6518,40.4556
2026-07-22T17:30:24.728,4.2877,20.6518,40.4752
2026-07-22T17:30:24.728,4.2877,20.5343,40.5144
2026-07-22T17:30:24.740,4.2994,20.3777,40.5731
2026-07-22T17:30:24.740,4.3017,20.456,40.3773
2026-07-22T17:30:24.749,4.3017,20.3777,40.436
2026-07-22T17:30:24.749,4.3113,20.4756,40.5144
2026-07-22T17:30:24.764,4.3214,20.4364,40.3773
2026-07-22T17:30:24.773,4.3351,20.456,40.1227
2026-07-22T17:30:24.781,4.3429,20.5148,39.9857
2026-07-22T17:30:24.796,4.3924,20.456,40.0053
2026-07-22T17:30:24.817,4.3967,20.3973,40.1619
2026-07-22T17:30:24.817,4.4039,20.3777,40.1227
2026-07-22T17:30:24.833,4.4105,20.319,40.2402
2026-07-22T17:30:24.833,4.4125,20.4952,40.5339
2026-07-22T17:30:24.845,4.4165,20.4169,40.4948
2026-07-22T17:30:24.848,4.4275,20.4756,40.7297
2026-07-22T17:30:24.870,4.4427,20.6322,40.8081
2026-07-22T17:30:24.882,4.4512,20.5148,40.8864
2026-07-22T17:30:24.888,4.4512,20.4364,40.8472
2026-07-22T17:30:24.894,4.4577,20.319,40.8081
2026-07-22T17:30:24.907,4.4577,20.1231,40.7102
2026-07-22T17:30:24.920,4.5064,20.2406,40.3773
2026-07-22T17:30:24.941,4.5064,20.2602,40.1032
2026-07-22T17:30:24.941,4.5064,20.319,39.9857
2026-07-22T17:30:24.950,4.5183,20.319,39.9857
2026-07-22T17:30:24.957,4.5212,20.1819,40.0444
2026-07-22T17:30:24.971,4.5212,20.1819,40.2206
2026-07-22T17:30:24.988,4.5381,20.1623,40.2011
2026-07-22T17:30:24.988,4.5381,20.2602,40.2011
2026-07-22T17:30:25.003,4.5381,20.319,40.299
2026-07-22T17:30:25.003,4.5381,20.319,40.436
2026-07-22T17:30:25.018,4.5551,20.4364,40.4752
2026-07-22T17:30:25.018,4.5551,20.4756,40.3773
2026-07-22T17:30:25.034,4.6095,20.2211,40.3185
2026-07-22T17:30:25.050,4.619,20.1427,40.1423
2026-07-22T17:30:25.050,4.619,20.0252,39.9269
2026-07-22T17:30:25.067,4.6265,20.0057,39.7899
2026-07-22T17:30:25.067,4.6336,19.8882,39.5549
2026-07-22T17:30:25.081,4.6336,19.8686,39.3395
2026-07-22T17:30:25.097,4.6336,20.0252,39.5157
2026-07-22T17:30:25.098,4.6544,19.9665,39.6724
2026-07-22T17:30:25.115,4.6676,20.0644,39.8486
2026-07-22T17:30:25.115,4.6815,20.1036,39.8682
2026-07-22T17:30:25.145,4.7283,20.2211,40.0248
2026-07-22T17:30:25.161,4.7326,20.2602,40.0053
2026-07-22T17:30:25.161,4.7326,20.1427,39.9074
2026-07-22T17:30:25.170,4.7403,19.9665,39.8486
2026-07-22T17:30:25.179,4.7403,20.0448,40.0053
2026-07-22T17:30:25.194,4.7532,20.1036,40.1423
2026-07-22T17:30:25.209,4.7597,20.2015,40.1619
2026-07-22T17:30:25.215,4.7597,20.1036,40.0444
2026-07-22T17:30:25.228,4.7597,19.9665,39.8486
2026-07-22T17:30:25.228,4.7698,19.9665,39.7311
2026-07-22T17:30:25.236,4.7729,19.8686,39.7703
2026-07-22T17:30:25.258,4.8285,19.8294,39.7311
2026-07-22T17:30:25.266,4.8285,19.9861,39.6528
2026-07-22T17:30:25.266,4.8285,19.9665,39.8094
2026-07-22T17:30:25.266,4.8285,20.1036,39.7703
2026-07-22T17:30:25.293,4.8458,20.0448,39.692
2026-07-22T17:30:25.293,4.8458,19.9665,39.7899
2026-07-22T17:30:25.313,4.8525,19.9665,39.6332
2026-07-22T17:30:25.313,4.8587,19.7511,39.3787
2026-07-22T17:30:25.320,4.8587,19.7511,39.0066
2026-07-22T17:30:25.333,4.8728,19.7903,38.8304
2026-07-22T17:30:25.347,4.8766,19.9078,38.8892
2026-07-22T17:30:25.362,4.9196,20.1036,38.8696
2026-07-22T17:30:25.374,4.9196,19.9665,38.6738
2026-07-22T17:30:25.374,4.9196,19.9665,38.5563
2026-07-22T17:30:25.389,4.9358,19.8099,38.243
2026-07-22T17:30:25.389,4.9358,19.614,37.9101
2026-07-22T17:30:25.406,4.95,19.5945,37.6947
2026-07-22T17:30:25.419,4.95,19.4966,37.401
2026-07-22T17:30:25.437,4.9651,19.7315,37.2835
2026-07-22T17:30:25.437,4.9729,19.7511,37.2248
2026-07-22T17:30:25.452,5.0324,19.6728,37.2835
2026-07-22T17:30:25.459,5.0324,19.8294,37.4598
2026-07-22T17:30:25.459,5.0396,19.8099,37.5185
2026-07-22T17:30:25.477,5.042,19.6532,37.5772
2026-07-22T17:30:25.491,5.042,19.712,37.4598
2026-07-22T17:30:25.496,5.0577,19.6336,37.4598
2026-07-22T17:30:25.510,5.0577,19.7511,37.3227
2026-07-22T17:30:25.510,5.0577,19.8099,37.2835
2026-07-22T17:30:25.533,5.073,19.8099,37.4793
2026-07-22T17:30:25.540,5.0766,19.9861,37.6556
2026-07-22T17:30:25.545,5.1204,19.8686,37.7143
2026-07-22T17:30:25.579,5.1285,19.9078,37.5381
2026-07-22T17:30:25.579,5.1285,19.849,37.4598
2026-07-22T17:30:25.579,5.1285,19.8099,37.4598
2026-07-22T17:30:25.593,5.1362,19.7903,37.3619
2026-07-22T17:30:25.600,5.1362,19.9665,37.1269
2026-07-22T17:30:25.602,5.1578,20.0057,37.029
2026-07-22T17:30:25.602,5.1578,20.0448,36.8919
2026-07-22T17:30:25.618,5.1636,20.084,36.8332
2026-07-22T17:30:25.641,5.1801,20.2015,36.7548
2026-07-22T17:30:25.641,5.2322,20.1623,36.6765
2026-07-22T17:30:25.665,5.2322,20.2602,36.559
2026-07-22T17:30:25.665,5.2322,20.3777,36.3241
2026-07-22T17:30:25.665,5.2463,20.4756,36.1087
2026-07-22T17:30:25.689,5.262,20.691,36.0108
2026-07-22T17:30:25.696,5.2719,20.7889,35.9325
2026-07-22T17:30:25.696,5.273,20.8085,36.0108
2026-07-22T17:30:25.724,5.2878,20.8281,36.0891
2026-07-22T17:30:25.733,5.2878,20.7497,36.1087
2026-07-22T17:30:25.740,5.2953,20.8281,36.1478
2026-07-22T17:30:25.752,5.2953,20.7693,36.2653
2026-07-22T17:30:25.752,5.2953,20.7497,36.422
2026-07-22T17:30:25.792,5.3687,20.7302,36.4807
2026-07-22T17:30:25.792,5.3687,20.691,36.3241
2026-07-22T17:30:25.792,5.3687,20.5931,36.3045
2026-07-22T17:30:25.792,5.3774,20.7497,36.2066
2026-07-22T17:30:25.806,5.3794,20.8476,36.3632
2026-07-22T17:30:25.822,5.3794,21.0826,36.5786
2026-07-22T17:30:25.829,5.3794,21.2393,36.7157
2026-07-22T17:30:25.848,5.3892,21.1218,36.8919
2026-07-22T17:30:25.855,5.3929,20.9651,36.9311
2026-07-22T17:30:25.855,5.3969,20.8085,36.9115
2026-07-22T17:30:25.855,5.4051,20.8476,36.7744
2026-07-22T17:30:25.902,5.4527,20.9651,36.7353
2026-07-22T17:30:25.902,5.4527,21.0043,36.9311
2026-07-22T17:30:25.902,5.4527,21.0434,37.0681
2026-07-22T17:30:25.902,5.4527,21.063,37.1073
2026-07-22T17:30:25.918,5.4527,21.3959,37.3423
2026-07-22T17:30:25.940,5.4689,21.1413,37.4206
2026-07-22T17:30:25.940,5.4689,21.1022,37.4598
2026-07-22T17:30:25.949,5.4689,21.0043,37.4598
2026-07-22T17:30:25.957,5.4737,20.8672,37.3814
2026-07-22T17:30:25.974,5.4881,20.9651,37.3814
2026-07-22T17:30:25.974,5.4933,21.2001,37.4793
2026-07-22T17:30:25.997,5.5388,21.4155,37.6556
2026-07-22T17:30:25.997,5.5388,21.7092,37.9689
2026-07-22T17:30:25.997,5.5388,21.7288,38.1255
2026-07-22T17:30:26.013,5.548,21.5134,38.2038
2026-07-22T17:30:26.013,5.5496,21.3567,38.2038
2026-07-22T17:30:26.045,5.5641,21.1609,38.1451
2026-07-22T17:30:26.045,5.5641,21.2001,38.1059
2026-07-22T17:30:26.077,5.6134,21.2197,38.0472
2026-07-22T17:30:26.077,5.6134,21.2001,38.0276
2026-07-22T17:30:26.077,5.6134,21.3567,38.2626
2026-07-22T17:30:26.077,5.6278,21.4546,38.3801
2026-07-22T17:30:26.099,5.6278,21.4351,38.4192
2026-07-22T17:30:26.108,5.6278,21.533,38.478
2026-07-22T17:30:26.116,5.6437,21.298,38.478
2026-07-22T17:30:26.124,5.6518,21.2784,38.478
2026-07-22T17:30:26.134,5.6598,21.0826,38.3801
2026-07-22T17:30:26.160,5.7171,20.8868,38.3605
2026-07-22T17:30:26.174,5.7194,20.8868,38.3017
2026-07-22T17:30:26.174,5.7233,20.7693,38.2626
2026-07-22T17:30:26.174,5.7233,20.9455,38.3801
2026-07-22T17:30:26.188,5.7233,21.1413,38.3996
2026-07-22T17:30:26.188,5.7233,21.1609,38.4584
2026-07-22T17:30:26.204,5.7551,21.1218,38.3409
2026-07-22T17:30:26.212,5.7625,20.8476,38.2038
2026-07-22T17:30:26.220,5.7711,20.691,38.1255
2026-07-22T17:30:26.246,5.821,20.7106,38.0863
2026-07-22T17:30:26.255,5.8268,20.6322,38.2234
2026-07-22T17:30:26.255,5.8268,20.8672,38.3409
2026-07-22T17:30:26.268,5.8268,20.9455,38.243
2026-07-22T17:30:26.268,5.8268,20.8281,38.008
2026-07-22T17:30:26.283,5.8428,20.6322,37.4793
2026-07-22T17:30:26.299,5.8586,20.2798,36.6961
2026-07-22T17:30:26.323,5.8586,19.5161,35.7366
2026-07-22T17:30:26.323,5.8586,18.4,34.3268
2026-07-22T17:30:26.331,5.8751,16.442,32.31
2026-07-22T17:30:26.334,5.8771,14.2685,29.6079
2026-07-22T17:30:26.356,5.9336,11.7426,26.2596
2026-07-22T17:30:26.356,5.9336,9.1775,22.5196
2026-07-22T17:30:26.371,5.9336,6.4754,18.3881
2026-07-22T17:30:26.374,5.95,3.6361,14.3545
2026-07-22T17:30:26.381,5.957,1.2081,11.0649
2026-07-22T17:30:26.403,5.9744,-0.8674,8.4607
2026-07-22T17:30:26.403,5.9744,-2.2968,6.5222
2026-07-22T17:30:26.403,5.9744,-3.178,4.9949
2026-07-22T17:30:26.419,5.9875,-3.7654,3.8004
2026-07-22T17:30:26.437,6.0107,-3.8829,2.9585
2026-07-22T17:30:26.437,6.0626,-3.922,2.2144
2026-07-22T17:30:26.475,6.0836,-3.6871,1.764
2026-07-22T17:30:26.475,6.0836,-3.2171,1.4116
2026-07-22T17:30:26.475,6.0836,-2.943,1.157
2026-07-22T17:30:26.491,6.1096,-2.5122,1.0395
2026-07-22T17:30:26.499,6.1212,-2.0814,0.9221
2026-07-22T17:30:26.510,6.1212,-1.6507,0.6088
2026-07-22T17:30:26.517,6.1212,-1.4353,0.2955
2026-07-22T17:30:26.535,6.1389,-1.2982,0.0409
2026-07-22T17:30:26.535,6.1389,-1.1611,-0.1549
2026-07-22T17:30:26.548,6.147,-1.1024,-0.2528
2026-07-22T17:30:26.556,6.1546,-1.122,-0.3899
2026-07-22T17:30:26.571,6.1703,-0.9849,-0.3703
2026-07-22T17:30:26.571,6.1703,-0.8674,-0.2919
2026-07-22T17:30:26.571,6.225,-0.8478,-0.3311
2026-07-22T17:30:26.620,6.2386,-0.7304,-0.2136
2026-07-22T17:30:26.620,6.2386,-0.7695,-0.2332
2026-07-22T17:30:26.620,6.2386,-0.6716,-0.2332
2026-07-22T17:30:26.623,6.2473,-0.5541,-0.2332
2026-07-22T17:30:26.644,6.2545,-0.6912,-0.2136
2026-07-22T17:30:26.644,6.2545,-0.5933,-0.1353
2026-07-22T17:30:26.670,6.2631,-0.5737,-0.1157
2026-07-22T17:30:26.670,6.2631,-0.6325,-0.1157
2026-07-22T17:30:26.681,6.2669,-0.5541,-0.194
2026-07-22T17:30:26.681,6.2669,-0.5737,0.0605
2026-07-22T17:30:26.699,6.2748,-0.4758,-0.0374
2026-07-22T17:30:26.715,6.2748,-0.4758,-0.0178
2026-07-22T17:30:26.715,6.2792,-0.4758,0.0213
2026-07-22T17:30:26.730,6.2851,-0.4758,-0.057
2026-07-22T17:30:26.737,6.2892,-0.5737,0.0018
2026-07-22T17:30:26.745,6.3388,-0.4562,-0.057
2026-07-22T17:30:26.757,6.3399,-0.4954,-0.057
2026-07-22T17:30:26.776,6.341,-0.5541,0.0018
2026-07-22T17:30:26.780,6.341,-0.4367,-0.057
2026-07-22T17:30:26.785,6.3446,-0.5933,-0.0374
2026-07-22T17:30:26.799,6.3446,-0.4562,-0.0178
2026-07-22T17:30:26.807,6.3446,-0.4954,-0.0374
2026-07-22T17:30:26.815,6.3539,-0.4954,0.0018
2026-07-22T17:30:26.827,6.3568,-0.5346,0.0018
2026-07-22T17:30:26.835,6.3568,-0.4954,0.0018
2026-07-22T17:30:26.849,6.3568,-0.3583,0.0213
2026-07-22T17:30:26.858,6.3694,-0.4562,0.0018
2026-07-22T17:30:26.872,6.4081,-0.4954,0.0801
2026-07-22T17:30:26.889,6.4081,-0.4562,0.0605
2026-07-22T17:30:26.889,6.4081,-0.4758,-0.0374
2026-07-22T17:30:26.898,6.4128,-0.515,0.0605
2026-07-22T17:30:26.905,6.4203,-0.4954,0.0018
2026-07-22T17:30:26.917,6.4269,-0.4758,0.0409
2026-07-22T17:30:26.917,6.4301,-0.4171,0.0213
2026-07-22T17:30:26.943,6.4717,-0.4562,-0.0178
2026-07-22T17:30:26.958,6.4746,-0.4758,0.0213
2026-07-22T17:30:26.958,6.4746,-0.3975,0.0018
2026-07-22T17:30:26.968,6.4746,-0.515,0.0409
2026-07-22T17:30:26.973,6.4846,-0.4562,0.0605
2026-07-22T17:30:26.990,6.4893,-0.4954,0.0409
2026-07-22T17:30:26.990,6.4899,-0.515,0.0605
2026-07-22T17:30:27.008,6.5313,-0.4562,0.0997
2026-07-22T17:30:27.014,6.5333,-0.4954,0.0605
2026-07-22T17:30:27.014,6.5333,-0.4954,0.0018
2026-07-22T17:30:27.035,6.5397,-0.4758,0.0213
2026-07-22T17:30:27.045,6.5435,-0.515,0.0605
2026-07-22T17:30:27.050,6.547,-0.4562,0.0018
2026-07-22T17:30:27.072,6.5787,-0.515,0.0213
2026-07-22T17:30:27.076,6.5787,-0.4758,0.0605
2026-07-22T17:30:27.076,6.5787,-0.4367,0.0018
2026-07-22T17:30:27.100,6.5947,-0.4954,0.1976
2026-07-22T17:30:27.104,6.5947,-0.4562,0.0605
2026-07-22T17:30:27.123,6.6288,-0.4562,0.0213
2026-07-22T17:30:27.139,6.6288,-0.4954,0.0997
2026-07-22T17:30:27.139,6.6425,-0.4171,0.0409
2026-07-22T17:30:27.139,6.6425,-0.4758,0.0409
2026-07-22T17:30:27.155,6.6425,-0.4367,0.0213
2026-07-22T17:30:27.172,6.6751,-0.4758,0.0018
2026-07-22T17:30:27.172,6.6751,-0.5346,0.0213
2026-07-22T17:30:27.189,6.6907,-0.4758,0.0409
2026-07-22T17:30:27.189,6.6907,-0.515,0.0018
2026-07-22T17:30:27.203,6.6993,-0.4171,0.0605
2026-07-22T17:30:27.211,6.7068,-0.4171,0.0605
2026-07-22T17:30:27.219,6.7455,-0.4954,0.0409
2026-07-22T17:30:27.235,6.7475,-0.3975,0.0409
2026-07-22T17:30:27.235,6.7475,-0.4758,0.0605
2026-07-22T17:30:27.259,6.7551,-0.515,0.0605
2026-07-22T17:30:27.267,6.7551,-0.4954,0.0605
2026-07-22T17:30:27.283,6.797,-0.515,0.0409
2026-07-22T17:30:27.300,6.8017,-0.4171,0.0997
2026-07-22T17:30:27.300,6.8017,-0.4562,0.0409
2026-07-22T17:30:27.315,6.8079,-0.5737,0.0213
2026-07-22T17:30:27.315,6.8107,-0.4171,0.1388
2026-07-22T17:30:27.323,6.8498,-0.4758,0.0409
2026-07-22T17:30:27.348,6.8498,-0.4367,0.0213
2026-07-22T17:30:27.348,6.8498,-0.4562,0.0409
2026-07-22T17:30:27.348,6.8498,-0.5346,0.0605
2026-07-22T17:30:27.373,6.8576,-0.4367,0.0409
2026-07-22T17:30:27.378,6.8655,-0.4954,0.0409
2026-07-22T17:30:27.379,6.9005,-0.4562,0.0801
2026-07-22T17:30:27.409,6.9005,-0.4758,0.0213
2026-07-22T17:30:27.409,6.9005,-0.4954,0.0409
2026-07-22T17:30:27.418,6.9156,-0.4367,0.0605
2026-07-22T17:30:27.425,6.9198,-0.515,0.0605
2026-07-22T17:30:27.443,6.9599,-0.4954,0.0213
2026-07-22T17:30:27.456,6.9599,-0.3779,0.0409
2026-07-22T17:30:27.461,6.963,-0.4562,0.0409
2026-07-22T17:30:27.461,6.963,-0.4171,0.0801
2026-07-22T17:30:27.478,6.9757,-0.4171,0.0801
2026-07-22T17:30:27.481,7.0074,-0.4954,0.1388
2026-07-22T17:30:27.501,7.0074,-0.4367,0.0997
2026-07-22T17:30:27.508,7.0074,-0.515,0.0997
2026-07-22T17:30:27.508,7.0074,-0.3975,0.0997
2026-07-22T17:30:27.523,7.0237,-0.3779,0.0409
2026-07-22T17:30:27.538,7.0359,-0.515,0.0801
2026-07-22T17:30:27.555,7.0758,-0.4367,0.0605
2026-07-22T17:30:27.567,7.0758,-0.4562,0.0997
2026-07-22T17:30:27.567,7.0819,-0.4367,0.178
2026-07-22T17:30:27.567,7.0819,-0.4171,0.0213
2026-07-22T17:30:27.584,7.0876,-0.4758,0.0801
2026-07-22T17:30:27.596,7.094,-0.4562,0.0801
2026-07-22T17:30:27.603,7.1291,-0.4367,0.0605
2026-07-22T17:30:27.618,7.137,-0.4954,0.1584
2026-07-22T17:30:27.633,7.137,-0.4367,0.0997
2026-07-22T17:30:27.636,7.1436,-0.4758,0.0605
2026-07-22T17:30:27.642,7.1436,-0.3975,0.0605
2026-07-22T17:30:27.654,7.1436,-0.4562,0.0213
2026-07-22T17:30:27.671,7.1929,-0.4954,0.0801
2026-07-22T17:30:27.688,7.1929,-0.4758,0.0801
2026-07-22T17:30:27.688,7.1929,-0.4562,0.0605
2026-07-22T17:30:27.696,7.1929,-0.3975,0.0997
2026-07-22T17:30:27.704,7.2018,-0.3779,0.0605
2026-07-22T17:30:27.715,7.2149,-0.4758,0.0605
2026-07-22T17:30:27.728,7.2556,-0.3387,0.0605
2026-07-22T17:30:27.736,7.2597,-0.515,0.0801
2026-07-22T17:30:27.736,7.2597,-0.4367,0.1584
2026-07-22T17:30:27.753,7.2668,-0.4562,0.0409
2026-07-22T17:30:27.775,7.2729,-0.4562,0.1388
2026-07-22T17:30:27.779,7.2749,-0.3975,0.0409
2026-07-22T17:30:27.797,7.3124,-0.4758,0.0605
2026-07-22T17:30:27.797,7.3124,-0.4758,0.1192
2026-07-22T17:30:27.799,7.3186,-0.4562,0.0997
2026-07-22T17:30:27.818,7.3222,-0.4367,0.0409
2026-07-22T17:30:27.827,7.3222,-0.3779,0.0801
2026-07-22T17:30:27.837,7.3222,-0.3975,0.0605
2026-07-22T17:30:27.847,7.3698,-0.4367,0.0997
2026-07-22T17:30:27.866,7.3698,-0.4171,0.0605
2026-07-22T17:30:27.866,7.3698,-0.515,0.0801
2026-07-22T17:30:27.873,7.3762,-0.4367,0.0997
2026-07-22T17:30:27.882,7.3811,-0.3975,0.1192
2026-07-22T17:30:27.898,7.4207,-0.4367,0.0997
2026-07-22T17:30:27.928,7.4257,-0.4367,0.0801
2026-07-22T17:30:27.928,7.4282,-0.4171,0.0605
2026-07-22T17:30:27.928,7.4282,-0.4367,0.0801
2026-07-22T17:30:27.936,7.434,-0.3975,0.0605
2026-07-22T17:30:27.941,7.4436,-0.4367,0.0801
2026-07-22T17:30:27.963,7.4838,-0.4367,0.0801
2026-07-22T17:30:27.973,7.4838,-0.4367,0.0801
2026-07-22T17:30:27.973,7.4838,-0.4562,0.0801
2026-07-22T17:30:27.986,7.4912,-0.4171,0.0997
2026-07-22T17:30:27.995,7.4912,-0.4367,0.0605
2026-07-22T17:30:28.006,7.5051,-0.3779,0.1388
2026-07-22T17:30:28.022,7.5389,-0.4367,0.0801
2026-07-22T17:30:28.022,7.5389,-0.4562,0.0801
2026-07-22T17:30:28.042,7.5446,-0.4171,0.0997
2026-07-22T17:30:28.044,7.5503,-0.4562,0.0997
2026-07-22T17:30:28.051,7.5539,-0.4171,0.0997
2026-07-22T17:30:28.068,7.5866,-0.4758,0.1388
2026-07-22T17:30:28.083,7.5866,-0.4367,0.1584
2026-07-22T17:30:28.083,7.6011,-0.3975,0.1388
2026-07-22T17:30:28.083,7.6032,-0.4171,0.0409
2026-07-22T17:30:28.110,7.6032,-0.4562,0.178
2026-07-22T17:30:28.114,7.6032,-0.3975,0.0605
2026-07-22T17:30:28.130,7.6486,-0.4954,0.0409
2026-07-22T17:30:28.147,7.6486,-0.3583,0.1976
2026-07-22T17:30:28.147,7.6486,-0.3975,0.0605
2026-07-22T17:30:28.161,7.6577,-0.4954,0.0801
2026-07-22T17:30:28.163,7.6577,-0.3975,0.1192
2026-07-22T17:30:28.177,7.7035,-0.4367,0.1192
2026-07-22T17:30:28.177,7.7035,-0.3779,0.0801
2026-07-22T17:30:28.195,7.7035,-0.4367,0.0409
2026-07-22T17:30:28.195,7.7035,-0.4367,0.1584
2026-07-22T17:30:28.209,7.7167,-0.4171,0.1388
2026-07-22T17:30:28.225,7.7167,-0.3975,0.0801
2026-07-22T17:30:28.250,7.7622,-0.3975,0.0801
2026-07-22T17:30:28.259,7.7664,-0.3779,0.1192
2026-07-22T17:30:28.264,7.7696,-0.4367,0.0997
2026-07-22T17:30:28.264,7.7696,-0.4171,0.0605
2026-07-22T17:30:28.277,7.7764,-0.4562,0.0801
2026-07-22T17:30:28.288,7.8188,-0.3975,0.0801
2026-07-22T17:30:28.288,7.8188,-0.3975,0.0605
2026-07-22T17:30:28.319,7.8235,-0.3975,0.0997
2026-07-22T17:30:28.319,7.8235,-0.3192,0.1192
2026-07-22T17:30:28.327,7.8235,-0.3583,0.0801
2026-07-22T17:30:28.337,7.8327,-0.4171,0.0997
2026-07-22T17:30:28.346,7.8765,-0.3975,0.1388
2026-07-22T17:30:28.358,7.8791,-0.4758,0.1192
2026-07-22T17:30:28.368,7.8831,-0.3975,0.0997
2026-07-22T17:30:28.379,7.8831,-0.3583,0.0801
2026-07-22T17:30:28.384,7.8926,-0.4171,0.1192
2026-07-22T17:30:28.393,7.896,-0.4367,0.0801
2026-07-22T17:30:28.419,7.9357,-0.4758,0.1584
2026-07-22T17:30:28.433,7.9357,-0.4562,0.0997
2026-07-22T17:30:28.434,7.9357,-0.4562,0.0801
2026-07-22T17:30:28.437,7.9357,-0.4562,0.1388
2026-07-22T17:30:28.451,7.9357,-0.3387,0.0997
2026-07-22T17:30:28.456,7.9496,-0.4562,0.0801
2026-07-22T17:30:28.472,7.9825,-0.4171,0.0997
2026-07-22T17:30:28.472,7.9825,-0.3387,0.0801
2026-07-22T17:30:28.480,7.9825,-0.4758,0.0605
2026-07-22T17:30:28.496,7.9994,-0.3779,0.0801
2026-07-22T17:30:28.496,8.005,-0.3583,0.0409
2026-07-22T17:30:28.510,8.046,-0.3975,0.1388
2026-07-22T17:30:28.531,8.0498,-0.3583,0.0997
2026-07-22T17:30:28.543,8.0498,-0.4367,0.0605
2026-07-22T17:30:28.543,8.0528,-0.3779,0.1192
2026-07-22T17:30:28.560,8.0528,-0.3779,0.1976
2026-07-22T17:30:28.565,8.0642,-0.4367,0.0801
2026-07-22T17:30:28.582,8.1084,-0.3387,0.1192
2026-07-22T17:30:28.589,8.1084,-0.4171,0.0801
2026-07-22T17:30:28.589,8.1084,-0.4171,0.1584
2026-07-22T17:30:28.610,8.1084,-0.4367,0.178
2026-07-22T17:30:28.613,8.1084,-0.4758,0.0997
2026-07-22T17:30:28.629,8.1243,-0.3975,0.1192
2026-07-22T17:30:28.641,8.1645,-0.4171,0.0801
2026-07-22T17:30:28.641,8.168,-0.4171,0.0997
2026-07-22T17:30:28.653,8.1709,-0.3975,0.0801
2026-07-22T17:30:28.666,8.1718,-0.4758,0.1388
2026-07-22T17:30:28.668,8.1809,-0.4171,0.0605
2026-07-22T17:30:28.684,8.1882,-0.4171,0.0801
2026-07-22T17:30:28.700,8.2134,-0.4367,0.1584
2026-07-22T17:30:28.720,8.2134,-0.3779,0.1976
2026-07-22T17:30:28.720,8.2282,-0.4758,0.0605
2026-07-22T17:30:28.732,8.2322,-0.3387,0.0997
2026-07-22T17:30:28.740,8.2378,-0.3975,0.1192
2026-07-22T17:30:28.748,8.2441,-0.4562,0.0801
2026-07-22T17:30:28.766,8.2829,-0.3779,0.0801
2026-07-22T17:30:28.766,8.2829,-0.3975,0.0605
2026-07-22T17:30:28.774,8.2829,-0.3975,0.178
2026-07-22T17:30:28.790,8.2829,-0.3779,0.0605
2026-07-22T17:30:28.798,8.2829,-0.4367,0.1388
2026-07-22T17:30:28.804,8.3014,-0.2996,0.1388
2026-07-22T17:30:28.821,8.3315,-0.4171,0.1388
2026-07-22T17:30:28.840,8.3315,-0.4367,0.1192
2026-07-22T17:30:28.840,8.3315,-0.3975,0.0997
2026-07-22T17:30:28.843,8.3472,-0.4171,0.1192
2026-07-22T17:30:28.862,8.3503,-0.3975,0.0997
2026-07-22T17:30:28.866,8.3923,-0.3779,0.0605
2026-07-22T17:30:28.892,8.3923,-0.4171,0.1388
2026-07-22T17:30:28.892,8.3923,-0.3975,0.0605
2026-07-22T17:30:28.892,8.3923,-0.4171,0.0605
2026-07-22T17:30:28.907,8.4037,-0.3975,0.0605
2026-07-22T17:30:28.910,8.4123,-0.3975,0.1584
2026-07-22T17:30:28.937,8.4546,-0.3779,0.1192
2026-07-22T17:30:28.938,8.4546,-0.4171,0.1192
2026-07-22T17:30:28.938,8.4546,-0.4171,0.1584
2026-07-22T17:30:28.952,8.4546,-0.4171,0.1584
2026-07-22T17:30:28.970,8.4661,-0.3975,0.0605
2026-07-22T17:30:28.977,8.4717,-0.4367,0.1584
2026-07-22T17:30:28.999,8.5113,-0.3975,0.0997
2026-07-22T17:30:28.999,8.5113,-0.3779,0.0997
2026-07-22T17:30:28.999,8.5179,-0.4367,0.0997
2026-07-22T17:30:29.015,8.5179,-0.3583,0.1192
2026-07-22T17:30:29.026,8.5226,-0.4758,0.0997
2026-07-22T17:30:29.051,8.5505,-0.3779,0.0997
2026-07-22T17:30:29.051,8.5505,-0.3583,0.0997
2026-07-22T17:30:29.062,8.563,-0.4171,0.1388
2026-07-22T17:30:29.067,8.565,-0.3779,0.0801
2026-07-22T17:30:29.078,8.565,-0.3975,0.0997
2026-07-22T17:30:29.083,8.575,-0.3779,0.1584
2026-07-22T17:30:29.111,8.6125,-0.3975,0.1192
2026-07-22T17:30:29.111,8.6125,-0.4171,0.1584
2026-07-22T17:30:29.111,8.6125,-0.3192,0.1584
2026-07-22T17:30:29.125,8.6125,-0.4171,0.0997
2026-07-22T17:30:29.137,8.6125,-0.4171,0.1192
2026-07-22T17:30:29.148,8.6485,-0.3192,0.0801
2026-07-22T17:30:29.159,8.6597,-0.4758,0.1192
2026-07-22T17:30:29.167,8.6597,-0.3779,0.0997
2026-07-22T17:30:29.173,8.6628,-0.3975,0.1192
2026-07-22T17:30:29.173,8.6628,-0.4367,0.0997
2026-07-22T17:30:29.197,8.6926,-0.3387,0.1192
2026-07-22T17:30:29.209,8.7075,-0.4367,0.1192
2026-07-22T17:30:29.209,8.7075,-0.3583,0.0997
2026-07-22T17:30:29.223,8.7075,-0.3975,0.1192
2026-07-22T17:30:29.237,8.7587,-0.4562,0.0997
2026-07-22T17:30:29.251,8.7587,-0.3583,0.1388
2026-07-22T17:30:29.253,8.7587,-0.3192,0.1192
2026-07-22T17:30:29.268,8.7587,-0.4367,0.1192
2026-07-22T17:30:29.268,8.7587,-0.3583,0.1388
2026-07-22T17:30:29.313,8.808,-0.4562,0.0997
2026-07-22T17:30:29.313,8.808,-0.3583,0.1584
2026-07-22T17:30:29.313,8.808,-0.3779,0.1388
2026-07-22T17:30:29.317,8.808,-0.4562,0.1192
2026-07-22T17:30:29.319,8.8187,-0.3192,0.0605
2026-07-22T17:30:29.347,8.8508,-0.4562,0.1584
2026-07-22T17:30:29.363,8.8508,-0.4171,0.1192
2026-07-22T17:30:29.363,8.8508,-0.3583,0.0801
2026-07-22T17:30:29.363,8.8508,-0.4562,0.2367
2026-07-22T17:30:29.379,8.8655,-0.3387,0.0801
2026-07-22T17:30:29.395,8.9084,-0.4367,0.0605
2026-07-22T17:30:29.401,8.9129,-0.4171,0.1388
2026-07-22T17:30:29.411,8.9135,-0.3779,0.0801
2026-07-22T17:30:29.411,8.9174,-0.4367,0.1388
2026-07-22T17:30:29.426,8.9218,-0.3387,0.1192
2026-07-22T17:30:29.442,8.9715,-0.4367,0.1192
2026-07-22T17:30:29.461,8.9715,-0.4562,0.1388
2026-07-22T17:30:29.465,8.977,-0.3779,0.1388
2026-07-22T17:30:29.473,8.9794,-0.4171,0.1388
2026-07-22T17:30:29.482,8.9794,-0.3583,0.1388
2026-07-22T17:30:29.489,8.9794,-0.3975,0.1192
2026-07-22T17:30:29.510,9.0266,-0.4562,0.0605
2026-07-22T17:30:29.526,9.0266,-0.3975,0.1388
2026-07-22T17:30:29.526,9.0266,-0.4171,0.0997
2026-07-22T17:30:29.528,9.0266,-0.3779,0.0801
2026-07-22T17:30:29.538,9.0406,-0.3583,0.178
2026-07-22T17:30:29.540,9.0406,-0.4171,0.178
2026-07-22T17:30:29.565,9.0771,-0.3975,0.178
2026-07-22T17:30:29.565,9.0771,-0.3779,0.0997
2026-07-22T17:30:29.585,9.0879,-0.4367,0.1192
2026-07-22T17:30:29.587,9.0906,-0.4367,0.0409
2026-07-22T17:30:29.600,9.0906,-0.4171,0.1584
2026-07-22T17:30:29.608,9.0973,-0.3387,0.0801
2026-07-22T17:30:29.637,9.1436,-0.3779,0.1388
2026-07-22T17:30:29.637,9.1468,-0.4367,0.1388
2026-07-22T17:30:29.637,9.1481,-0.3779,0.1584
2026-07-22T17:30:29.651,9.1579,-0.515,0.1192
2026-07-22T17:30:29.657,9.1614,-0.3583,0.1192
2026-07-22T17:30:29.669,9.2081,-0.4171,0.1388
2026-07-22T17:30:29.683,9.2096,-0.4758,0.0997
2026-07-22T17:30:29.697,9.2096,-0.4171,0.0801
2026-07-22T17:30:29.698,9.2096,-0.4758,0.0801
2026-07-22T17:30:29.713,9.217,-0.3583,0.178
2026-07-22T17:30:29.729,9.217,-0.3387,0.1192
2026-07-22T17:30:29.729,9.217,-0.4562,0.178
2026-07-22T17:30:29.760,9.2574,-0.3975,0.1388
2026-07-22T17:30:29.760,9.2574,-0.3975,0.0605
2026-07-22T17:30:29.760,9.2574,-0.3779,0.1584
2026-07-22T17:30:29.768,9.2574,-0.3975,0.0801
2026-07-22T17:30:29.777,9.271,-0.4171,0.0997
2026-07-22T17:30:29.784,9.3143,-0.3583,0.1584
2026-07-22T17:30:29.784,9.3143,-0.4171,0.0997
2026-07-22T17:30:29.801,9.3143,-0.4171,0.1584
2026-07-22T17:30:29.818,9.3201,-0.28,0.1388
2026-07-22T17:30:29.831,9.3201,-0.4367,0.0801
2026-07-22T17:30:29.837,9.327,-0.3387,0.0997
2026-07-22T17:30:29.870,9.3634,-0.3779,0.1192
2026-07-22T17:30:29.870,9.3674,-0.4562,0.178
2026-07-22T17:30:29.870,9.3674,-0.4171,0.1976
2026-07-22T17:30:29.874,9.3717,-0.3583,0.1192
2026-07-22T17:30:29.886,9.3752,-0.4562,0.1584
2026-07-22T17:30:29.902,9.4171,-0.3975,0.1192
2026-07-22T17:30:29.921,9.4171,-0.4367,0.1976
2026-07-22T17:30:29.921,9.4171,-0.3583,0.1388
2026-07-22T17:30:29.928,9.4233,-0.4171,0.1584
2026-07-22T17:30:29.939,9.4629,-0.3583,0.178
2026-07-22T17:30:29.952,9.4672,-0.3387,0.1584
2026-07-22T17:30:29.973,9.4672,-0.3779,0.1388
2026-07-22T17:30:29.973,9.4672,-0.3779,0.178
2026-07-22T17:30:29.976,9.4672,-0.3779,0.1584
2026-07-22T17:30:29.989,9.4823,-0.4954,0.178
2026-07-22T17:30:29.992,9.5256,-0.4171,0.1192
2026-07-22T17:30:30.023,9.5256,-0.4954,0.1388
2026-07-22T17:30:30.023,9.5256,-0.3779,0.1584
2026-07-22T17:30:30.027,9.5256,-0.3975,0.1388
2026-07-22T17:30:30.041,9.5375,-0.3192,0.1584
2026-07-22T17:30:30.048,9.5776,-0.3975,0.1584
2026-07-22T17:30:30.071,9.5776,-0.4367,0.0605
2026-07-22T17:30:30.071,9.5851,-0.3583,0.1584
2026-07-22T17:30:30.071,9.5871,-0.4171,0.1388
2026-07-22T17:30:30.086,9.5924,-0.4367,0.1192
2026-07-22T17:30:30.098,9.6023,-0.3387,0.1192
2026-07-22T17:30:30.121,9.6456,-0.3779,0.1192
2026-07-22T17:30:30.121,9.6456,-0.3779,0.1976
2026-07-22T17:30:30.135,9.6521,-0.3583,0.0997
2026-07-22T17:30:30.138,9.6551,-0.4171,0.0997
2026-07-22T17:30:30.152,9.6551,-0.3387,0.1584
2026-07-22T17:30:30.158,9.6625,-0.3779,0.1192
2026-07-22T17:30:30.168,9.6991,-0.4954,0.1388
2026-07-22T17:30:30.180,9.7079,-0.3779,0.1192
2026-07-22T17:30:30.199,9.7079,-0.4562,0.0997
2026-07-22T17:30:30.199,9.7115,-0.4171,0.1584
2026-07-22T17:30:30.212,9.7164,-0.3779,0.1192
2026-07-22T17:30:30.215,9.7164,-0.4758,0.1584
2026-07-22T17:30:30.228,9.7164,-0.3975,0.1192
2026-07-22T17:30:30.243,9.7465,-0.4367,0.0997
2026-07-22T17:30:30.259,9.7626,-0.4171,0.178
2026-07-22T17:30:30.259,9.7626,-0.4171,0.178
2026-07-22T17:30:30.268,9.7694,-0.4171,0.1192
2026-07-22T17:30:30.277,9.7716,-0.3779,0.1584
2026-07-22T17:30:30.277,9.8117,-0.3975,0.178
2026-07-22T17:30:30.303,9.8171,-0.3779,0.1584
2026-07-22T17:30:30.307,9.8171,-0.2996,0.0997
2026-07-22T17:30:30.323,9.8171,-0.4367,0.1192
2026-07-22T17:30:30.332,9.8258,-0.3387,0.178
2026-07-22T17:30:30.339,9.8258,-0.3779,0.178
2026-07-22T17:30:30.357,9.869,-0.4171,0.1584
2026-07-22T17:30:30.357,9.869,-0.3779,0.0997
2026-07-22T17:30:30.357,9.869,-0.4171,0.0605
2026-07-22T17:30:30.377,9.8732,-0.3583,0.178
2026-07-22T17:30:30.386,9.88,-0.3583,0.178
2026-07-22T17:30:30.419,9.9206,-0.4562,0.1388
2026-07-22T17:30:30.419,9.9245,-0.3583,0.1584
2026-07-22T17:30:30.419,9.9245,-0.4171,0.1388
2026-07-22T17:30:30.419,9.9245,-0.4367,0.1584
2026-07-22T17:30:30.440,9.9273,-0.3387,0.1388
2026-07-22T17:30:30.449,9.9681,-0.4367,0.1388
2026-07-22T17:30:30.449,9.9681,-0.3975,0.1976
2026-07-22T17:30:30.472,9.9733,-0.4171,0.1192
2026-07-22T17:30:30.481,9.9733,-0.4171,0.178
2026-07-22T17:30:30.487,9.9781,-0.3779,0.1388
2026-07-22T17:30:30.506,10.0305,-0.4367,0.178
2026-07-22T17:30:30.513,10.034,-0.3583,0.1976
2026-07-22T17:30:30.513,10.036,-0.3192,0.1192
2026-07-22T17:30:30.528,10.0411,-0.3975,0.1584
2026-07-22T17:30:30.538,10.0416,-0.3583,0.1584
2026-07-22T17:30:30.557,10.0899,-0.4171,0.1388
2026-07-22T17:30:30.581,10.0919,-0.3583,0.0409
2026-07-22T17:30:30.581,10.0919,-0.3975,0.0801
2026-07-22T17:30:30.581,10.0919,-0.4367,0.1388
2026-07-22T17:30:30.592,10.095,-0.3779,0.1388
2026-07-22T17:30:30.602,10.095,-0.3779,0.1192
2026-07-22T17:30:30.607,10.095,-0.3975,0.1388
2026-07-22T17:30:30.639,10.1417,-0.3975,0.178
2026-07-22T17:30:30.639,10.1437,-0.4367,0.1192
2026-07-22T17:30:30.639,10.1437,-0.3975,0.1584
2026-07-22T17:30:30.652,10.1437,-0.3583,0.178
2026-07-22T17:30:30.655,10.1437,-0.3779,0.1192
2026-07-22T17:30:30.673,10.1895,-0.3975,0.1388
2026-07-22T17:30:30.682,10.1895,-0.4758,0.1584
2026-07-22T17:30:30.687,10.1895,-0.3583,0.1192
2026-07-22T17:30:30.687,10.1895,-0.3779,0.0997
2026-07-22T17:30:30.704,10.1979,-0.4954,0.2172
2026-07-22T17:30:30.718,10.2421,-0.3583,0.1584
2026-07-22T17:30:30.739,10.2459,-0.3779,0.1192
2026-07-22T17:30:30.739,10.2502,-0.3583,0.1976
2026-07-22T17:30:30.750,10.2536,-0.3975,0.1192
2026-07-22T17:30:30.760,10.2569,-0.4171,0.1976
2026-07-22T17:30:30.798,10.3097,-0.3975,0.1388
2026-07-22T17:30:30.798,10.3136,-0.3975,0.0997
2026-07-22T17:30:30.799,10.3162,-0.3583,0.178
2026-07-22T17:30:30.799,10.3177,-0.2996,0.1192
2026-07-22T17:30:30.812,10.3243,-0.4171,0.0997
2026-07-22T17:30:30.824,10.3243,-0.3387,0.2955
2026-07-22T17:30:30.862,10.3725,-0.4367,0.1584
2026-07-22T17:30:30.863,10.3752,-0.3975,0.0997
2026-07-22T17:30:30.863,10.3752,-0.3192,0.1584
2026-07-22T17:30:30.863,10.3783,-0.4562,0.1584
2026-07-22T17:30:30.872,10.3829,-0.3779,0.178
2026-07-22T17:30:30.884,10.3879,-0.3779,0.1584
2026-07-22T17:30:30.884,10.3931,-0.4367,0.1584
2026-07-22T17:30:30.916,10.4413,-0.3779,0.1192
2026-07-22T17:30:30.926,10.4413,-0.4367,0.0997
2026-07-22T17:30:30.926,10.4454,-0.3583,0.178
2026-07-22T17:30:30.932,10.453,-0.3387,0.2172
2026-07-22T17:30:30.943,10.4613,-0.4367,0.1192
2026-07-22T17:30:30.948,10.4613,-0.1625,0.1584
2026-07-22T17:30:30.958,10.5164,-0.3583,0.1192
2026-07-22T17:30:30.975,10.5195,-0.3975,0.1584
2026-07-22T17:30:30.994,10.5256,-0.3192,0.1388
2026-07-22T17:30:30.994,10.5276,-0.4171,0.178
2026-07-22T17:30:31.001,10.5276,-0.2996,0.1388
2026-07-22T17:30:31.011,10.5332,-0.4171,0.0997
2026-07-22T17:30:31.021,10.5362,-0.4367,0.2172
2026-07-22T17:30:31.030,10.5437,-0.3975,0.0997
2026-07-22T17:30:31.048,10.5871,-0.4367,0.1584
2026-07-22T17:30:31.055,10.5871,-0.3583,0.1584
2026-07-22T17:30:31.068,10.5991,-0.3975,0.1192
2026-07-22T17:30:31.072,10.6052,-0.515,0.1976
2026-07-22T17:30:31.080,10.6052,-0.3192,0.1584
2026-07-22T17:30:31.088,10.6152,-0.4562,0.1388
2026-07-22T17:30:31.096,10.6193,-0.3779,0.1388
2026-07-22T17:30:31.111,10.6608,-0.3583,0.1192
2026-07-22T17:30:31.142,10.6608,-0.3975,0.0997
2026-07-22T17:30:31.147,10.6608,-0.28,0.1976
2026-07-22T17:30:31.147,10.6608,-0.4171,0.1388
2026-07-22T17:30:31.147,10.6608,-0.3975,0.1976
2026-07-22T17:30:31.165,10.6724,-0.3975,0.1388
2026-07-22T17:30:31.165,10.6782,-0.4562,0.178
2026-07-22T17:30:31.179,10.6817,-0.3779,0.1388
2026-07-22T17:30:31.201,10.7234,-0.4171,0.1192
2026-07-22T17:30:31.201,10.7234,-0.4758,0.1584
2026-07-22T17:30:31.205,10.7276,-0.4758,0.178
2026-07-22T17:30:31.205,10.7276,-0.5737,0.1192
2026-07-22T17:30:31.221,10.7401,-0.5541,0.0801
2026-07-22T17:30:31.241,10.7518,-0.6129,0.0801
2026-07-22T17:30:31.248,10.7975,-0.7891,0.0213
2026-07-22T17:30:31.253,10.8026,-0.8674,-0.1745
2026-07-22T17:30:31.275,10.8155,-1.0632,-0.4094
2026-07-22T17:30:31.275,10.8155,-1.2982,-0.664
2026-07-22T17:30:31.291,10.8258,-1.494,-0.899
2026-07-22T17:30:31.300,10.8348,-1.7877,-1.0948
2026-07-22T17:30:31.300,10.8516,-2.101,-1.1339
2026-07-22T17:30:31.315,10.8783,-2.3947,-0.8794
2026-07-22T17:30:31.338,10.9389,-2.5318,-0.194
2026-07-22T17:30:31.342,10.9389,-2.4339,0.7654
2026-07-22T17:30:31.347,10.9494,-2.2185,2.3319
2026-07-22T17:30:31.363,10.9613,-1.7681,4.3291
2026-07-22T17:30:31.363,10.9857,-1.0437,6.718
2026-07-22T17:30:31.381,10.9939,-0.0059,9.4397
2026-07-22T17:30:31.386,11.012,1.1102,11.5936
2026-07-22T17:30:31.395,11.0254,2.148,13.9628
2026-07-22T17:30:31.412,11.0254,3.8124,16.4692
2026-07-22T17:30:31.412,11.0422,5.2222,18.5447
2026-07-22T17:30:31.446,11.0581,6.5733,20.2483
2026-07-22T17:30:31.446,11.0599,7.9243,21.7951
2026-07-22T17:30:31.451,11.0599,9.5104,23.342
2026-07-22T17:30:31.476,11.1167,10.8614,24.791
2026-07-22T17:30:31.476,11.1167,11.8796,25.8679
2026-07-22T17:30:31.476,11.12,12.5846,26.7099
2026-07-22T17:30:31.476,11.1207,13.1328,27.4148
2026-07-22T17:30:31.521,11.1393,13.6615,27.9043
2026-07-22T17:30:31.521,11.1433,14.2293,28.5701
2026-07-22T17:30:31.521,11.1433,14.7972,29.3729
2026-07-22T17:30:31.537,11.1433,15.2084,30.1366
2026-07-22T17:30:31.546,11.152,15.8937,31.0373
2026-07-22T17:30:31.554,11.152,16.3245,31.8401
2026-07-22T17:30:31.554,11.152,16.5007,32.31
2026-07-22T17:30:31.586,11.1699,16.4028,32.4862
2026-07-22T17:30:31.586,11.1699,16.2462,32.7604
2026-07-22T17:30:31.586,11.1839,16.0895,33.0149
2026-07-22T17:30:31.602,11.1839,15.9524,33.152
2026-07-22T17:30:31.618,11.1839,15.9329,33.4065
2026-07-22T17:30:31.620,11.1839,16.2657,33.8177
2026-07-22T17:30:31.627,11.1839,16.6965,34.3464
2026-07-22T17:30:31.649,11.2501,17.1469,34.7576
2026-07-22T17:30:31.649,11.2501,17.1077,34.8164
2026-07-22T17:30:31.664,11.2501,16.7161,34.8359
2026-07-22T17:30:31.671,11.2652,16.5399,34.6989
2026-07-22T17:30:31.681,11.2652,16.207,34.6401
2026-07-22T17:30:31.703,11.2798,16.207,34.7772
2026-07-22T17:30:31.703,11.2798,16.6182,34.7576
2026-07-22T17:30:31.712,11.2798,17.0685,35.0122
2026-07-22T17:30:31.712,11.3016,17.4406,35.4038
2026-07-22T17:30:31.730,11.3115,17.186,35.4038
2026-07-22T17:30:31.739,11.3115,16.5007,35.1688
2026-07-22T17:30:31.760,11.3173,16.0503,34.8947
2026-07-22T17:30:31.760,11.3173,15.8937,34.7184
2026-07-22T17:30:31.777,11.3743,16.0895,34.7968
2026-07-22T17:30:31.777,11.3743,16.3049,35.0317
2026-07-22T17:30:31.791,11.3792,16.7944,35.4821
2026-07-22T17:30:31.791,11.3792,17.2839,35.7954
2026-07-22T17:30:31.810,11.3901,17.2839,35.8737
2026-07-22T17:30:31.824,11.3901,17.0685,35.7954
2026-07-22T17:30:31.855,11.4058,16.6182,35.5604
2026-07-22T17:30:31.866,11.4079,16.4028,35.5213
2026-07-22T17:30:31.866,11.4079,16.7161,35.7562
2026-07-22T17:30:31.872,11.4079,16.9511,36.187
2026-07-22T17:30:31.872,11.4079,17.1077,36.6374
2026-07-22T17:30:31.877,11.4234,17.0685,36.7353
2026-07-22T17:30:31.888,11.474,16.8532,36.6765
2026-07-22T17:30:31.905,11.4822,16.9315,36.6569
2026-07-22T17:30:31.920,11.4839,16.8532,36.5395
2026-07-22T17:30:31.920,11.4839,16.6574,36.559
2026-07-22T17:30:31.934,11.4947,16.7357,36.6178
2026-07-22T17:30:31.939,11.4947,16.9511,36.6178
2026-07-22T17:30:31.950,11.4947,17.4797,36.5786
2026-07-22T17:30:31.965,11.5122,17.7147,36.422
2026-07-22T17:30:31.968,11.5243,17.2644,36.2262
2026-07-22T17:30:31.978,11.5357,16.8727,35.9912
2026-07-22T17:30:31.991,11.5482,16.4615,35.815
2026-07-22T17:30:32.008,11.5959,16.6378,35.9129
2026-07-22T17:30:32.008,11.5959,16.8727,35.9325
2026-07-22T17:30:32.024,11.6024,17.1469,36.1674
2026-07-22T17:30:32.024,11.6044,17.5189,36.3241
2026-07-22T17:30:32.055,11.6194,17.6364,36.3045
2026-07-22T17:30:32.055,11.6206,17.421,36.3241
2026-07-22T17:30:32.055,11.6255,17.186,36.2262
2026-07-22T17:30:32.072,11.6275,16.9706,36.2849
2026-07-22T17:30:32.088,11.6312,16.9119,36.2262
2026-07-22T17:30:32.094,11.6382,16.9315,35.952
2026-07-22T17:30:32.106,11.6457,17.049,35.9912
2026-07-22T17:30:32.113,11.6485,17.2252,36.1283
2026-07-22T17:30:32.128,11.7012,17.4406,36.3045
2026-07-22T17:30:32.134,11.7063,17.5385,36.6178
2026-07-22T17:30:32.139,11.7086,17.4014,36.8136
2026-07-22T17:30:32.152,11.715,17.2056,37.029
2026-07-22T17:30:32.173,11.7191,17.1469,36.9898
2026-07-22T17:30:32.177,11.7191,16.7944,36.9311
2026-07-22T17:30:32.184,11.7243,16.9119,36.8919
2026-07-22T17:30:32.188,11.7287,17.049,36.794
2026-07-22T17:30:32.198,11.7287,17.1273,36.7744
2026-07-22T17:30:32.209,11.7452,17.0881,36.8332
2026-07-22T17:30:32.246,11.7915,16.9706,36.8919
2026-07-22T17:30:32.246,11.7915,16.8532,36.9311
2026-07-22T17:30:32.246,11.7915,16.8532,36.8723
2026-07-22T17:30:32.261,11.8028,16.9706,36.8332
2026-07-22T17:30:32.261,11.8028,17.421,36.6374
2026-07-22T17:30:32.269,11.8028,17.5972,36.4807
2026-07-22T17:30:32.279,11.8028,17.5972,36.3828
2026-07-22T17:30:32.289,11.8311,17.3623,36.3045
2026-07-22T17:30:32.300,11.84,17.1077,36.4024
2026-07-22T17:30:32.305,11.8521,17.186,36.4807
2026-07-22T17:30:32.339,11.9011,17.2644,36.6765
2026-07-22T17:30:32.339,11.9011,17.2644,36.8332
2026-07-22T17:30:32.339,11.9011,17.421,37.0094
2026-07-22T17:30:32.352,11.9117,17.3818,37.2444
2026-07-22T17:30:32.363,11.9185,17.3427,37.4598
2026-07-22T17:30:32.363,11.9195,17.3035,37.401
2026-07-22T17:30:32.404,11.9195,17.1469,37.3814
2026-07-22T17:30:32.404,11.9305,17.2056,37.3814
2026-07-22T17:30:32.408,11.9319,17.0685,37.3814
2026-07-22T17:30:32.412,11.9329,17.0685,37.4989
2026-07-22T17:30:32.427,11.9837,17.1077,37.4989
2026-07-22T17:30:32.427,11.9837,17.0294,37.636
2026-07-22T17:30:32.443,11.9908,17.1469,37.773
2026-07-22T17:30:32.443,11.9908,17.1077,37.8514
2026-07-22T17:30:32.461,11.9958,17.1273,37.871
2026-07-22T17:30:32.472,12.0038,17.1665,38.0276
2026-07-22T17:30:32.480,12.0062,17.1077,38.2821
2026-07-22T17:30:32.491,12.0097,17.2056,38.5367
2026-07-22T17:30:32.493,12.0197,17.186,38.6738
2026-07-22T17:30:32.530,12.0629,16.9511,38.7325
2026-07-22T17:30:32.535,12.0629,16.9511,38.85
2026-07-22T17:30:32.535,12.0692,16.6965,38.85
2026-07-22T17:30:32.544,12.0732,16.7748,39.0066
2026-07-22T17:30:32.580,12.0797,16.7944,39.222
2026-07-22T17:30:32.580,12.0797,16.9511,39.6136
2026-07-22T17:30:32.580,12.0797,17.1469,39.8094
2026-07-22T17:30:32.582,12.0797,17.2056,39.8486
2026-07-22T17:30:32.602,12.1263,17.0881,39.8486
2026-07-22T17:30:32.602,12.1263,16.9119,39.692
2026-07-22T17:30:32.602,12.1283,16.7748,39.8486
2026-07-22T17:30:32.618,12.1338,16.7553,40.064
2026-07-22T17:30:32.637,12.138,16.7161,40.2011
2026-07-22T17:30:32.639,12.1396,16.8923,40.3381
2026-07-22T17:30:32.665,12.2009,16.9706,40.4948
2026-07-22T17:30:32.665,12.2009,16.9315,40.4752
2026-07-22T17:30:32.665,12.2036,17.0098,40.8864
2026-07-22T17:30:32.690,12.2077,16.8923,40.7689
2026-07-22T17:30:32.690,12.2097,16.6769,40.8081
2026-07-22T17:30:32.715,12.2225,16.5986,40.7297
2026-07-22T17:30:32.715,12.2245,16.5203,40.6318
2026-07-22T17:30:32.715,12.2296,16.5007,40.6123
2026-07-22T17:30:32.731,12.2642,16.442,40.5144
2026-07-22T17:30:32.744,12.2642,16.4224,40.5535
2026-07-22T17:30:32.744,12.2642,16.4028,40.5731
2026-07-22T17:30:32.761,12.2861,16.3245,40.7297
2026-07-22T17:30:32.770,12.2861,16.2266,40.8864
2026-07-22T17:30:32.783,12.2948,16.1874,41.043
2026-07-22T17:30:32.790,12.2948,15.9916,41.0039
2026-07-22T17:30:32.808,12.3582,15.9329,40.8081
2026-07-22T17:30:32.824,12.3597,15.7762,40.6514
2026-07-22T17:30:32.824,12.3597,15.7566,40.5927
2026-07-22T17:30:32.824,12.3733,15.7371,40.5731
2026-07-22T17:30:32.846,12.3797,15.7958,40.7297
2026-07-22T17:30:32.855,12.3817,15.7958,40.7885
2026-07-22T17:30:32.862,12.3892,15.7762,40.906
2026-07-22T17:30:32.885,12.4383,15.7175,41.2193
2026-07-22T17:30:32.892,12.44,15.6392,41.2584
2026-07-22T17:30:32.895,12.441,15.5217,41.278
2026-07-22T17:30:32.905,12.447,15.4629,41.3367
2026-07-22T17:30:32.905,12.447,15.5217,41.3367
2026-07-22T17:30:32.920,12.4554,15.4238,41.3563
2026-07-22T17:30:32.933,12.4625,15.5217,41.278
2026-07-22T17:30:32.942,12.4698,15.5021,41.3172
2026-07-22T17:30:32.953,12.4698,15.5217,41.4347
2026-07-22T17:30:32.965,12.522,15.4629,41.3759
2026-07-22T17:30:32.965,12.5254,15.2475,41.4738
2026-07-22T17:30:32.984,12.5328,15.3063,41.4151
2026-07-22T17:30:32.999,12.5399,15.0713,41.3563
2026-07-22T17:30:33.007,12.5399,15.1496,41.4151
2026-07-22T17:30:33.016,12.549,15.2084,41.3172
2026-07-22T17:30:33.016,12.5527,15.1105,41.1997
2026-07-22T17:30:33.030,12.5568,15.0909,41.0235
2026-07-22T17:30:33.042,12.5686,15.0517,40.7689
2026-07-22T17:30:33.061,12.6172,14.8559,40.6318
2026-07-22T17:30:33.061,12.6225,14.8363,40.436
2026-07-22T17:30:33.061,12.6271,14.9147,40.1032
2026-07-22T17:30:33.082,12.6311,14.6993,39.6528
2026-07-22T17:30:33.090,12.6338,14.6014,39.3199
2026-07-22T17:30:33.100,12.6338,14.523,39.0654
2026-07-22T17:30:33.117,12.6514,14.5818,38.7912
2026-07-22T17:30:33.117,12.6598,14.5035,38.6542
2026-07-22T17:30:33.133,12.6658,14.5035,38.5563
2026-07-22T17:30:33.141,12.7225,14.4839,38.4388
2026-07-22T17:30:33.164,12.7269,14.4643,38.6738
2026-07-22T17:30:33.164,12.7269,14.523,38.5367
2026-07-22T17:30:33.177,12.7385,14.386,38.4192
2026-07-22T17:30:33.183,12.7385,14.3664,38.3409
2026-07-22T17:30:33.194,12.7385,14.3468,38.2038
2026-07-22T17:30:33.194,12.7544,14.2098,38.2038
2026-07-22T17:30:33.212,12.7544,14.3272,38.2626
2026-07-22T17:30:33.224,12.7709,14.2881,38.0863
2026-07-22T17:30:33.230,12.7748,14.386,38.008
2026-07-22T17:30:33.267,12.8251,14.4447,37.9689
2026-07-22T17:30:33.267,12.8251,14.4447,38.1255
2026-07-22T17:30:33.267,12.8251,14.621,38.1842
2026-07-22T17:30:33.267,12.8251,14.6993,38.1842
2026-07-22T17:30:33.283,12.8339,14.6405,38.2234
2026-07-22T17:30:33.287,12.8415,14.6601,38.3017
2026-07-22T17:30:33.299,12.8462,14.6601,38.3213
2026-07-22T17:30:33.315,12.8462,14.758,38.3409
2026-07-22T17:30:33.315,12.8462,14.6601,38.3801
2026-07-22T17:30:33.331,12.861,14.6014,38.243
2026-07-22T17:30:33.340,12.861,14.6405,38.0668
2026-07-22T17:30:33.354,12.9042,14.4251,37.8122
2026-07-22T17:30:33.354,12.9042,14.4643,37.5577
2026-07-22T17:30:33.370,12.9042,14.4643,37.4989
2026-07-22T17:30:33.385,12.9223,14.523,37.6164
2026-07-22T17:30:33.394,12.9279,14.5622,37.6751
2026-07-22T17:30:33.406,12.9279,14.386,37.4206
2026-07-22T17:30:33.406,12.9368,14.2685,36.9507
2026-07-22T17:30:33.421,12.9368,14.0335,36.2849
2026-07-22T17:30:33.421,12.9467,13.7202,35.3842
2026-07-22T17:30:33.441,12.9927,13.2307,34.4247
2026-07-22T17:30:33.458,12.9998,12.8978,33.6611
2026-07-22T17:30:33.458,13.0017,12.7608,33.152
2026-07-22T17:30:33.464,13.0017,12.7216,32.6429
2026-07-22T17:30:33.488,13.0155,12.5454,32.2709
2026-07-22T17:30:33.488,13.0155,12.4475,31.938
2026-07-22T17:30:33.507,13.0261,12.2517,31.6443
2026-07-22T17:30:33.513,13.0314,12.095,31.3114
2026-07-22T17:30:33.518,13.0808,11.9971,31.2135
2026-07-22T17:30:33.544,13.0808,11.8209,31.1548
2026-07-22T17:30:33.544,13.0948,11.8405,31.0373
2026-07-22T17:30:33.553,13.1014,11.6447,30.9589
2026-07-22T17:30:33.562,13.1014,11.5859,30.9785
2026-07-22T17:30:33.576,13.1116,11.5859,30.9198
2026-07-22T17:30:33.586,13.1153,11.5859,31.1156
2026-07-22T17:30:33.600,13.1153,11.7426,31.3114
2026-07-22T17:30:33.602,13.1267,11.6251,31.4289
2026-07-22T17:30:33.623,13.1765,11.5664,31.6051
2026-07-22T17:30:33.639,13.1808,11.6055,31.703
2026-07-22T17:30:33.639,13.1808,11.4489,31.7422
2026-07-22T17:30:33.641,13.2033,11.4489,31.7226
2026-07-22T17:30:33.672,13.2151,11.5272,31.7618
2026-07-22T17:30:33.672,13.2225,11.5468,31.9184
2026-07-22T17:30:33.672,13.2234,11.6643,31.9771
2026-07-22T17:30:33.685,13.2269,11.6643,32.2317
2026-07-22T17:30:33.692,13.232,11.7034,32.5646
2026-07-22T17:30:33.704,13.2891,11.9188,32.9562
2026-07-22T17:30:33.724,13.2891,11.8209,33.3086
2026-07-22T17:30:33.724,13.2891,11.958,33.6219
2026-07-22T17:30:33.741,13.2891,11.9971,33.7786
2026-07-22T17:30:33.741,13.3029,12.0559,34.0919
2026-07-22T17:30:33.775,13.3029,12.1146,34.5031
2026-07-22T17:30:33.775,13.3029,12.095,34.9143
2026-07-22T17:30:33.775,13.318,12.1929,35.4429
2026-07-22T17:30:33.775,13.318,12.1929,35.8737
2026-07-22T17:30:33.792,13.3253,12.1538,36.2653
2026-07-22T17:30:33.798,13.3351,12.1538,36.5982
2026-07-22T17:30:33.822,13.3824,12.1146,36.9311
2026-07-22T17:30:33.822,13.3824,12.1342,37.1269
2026-07-22T17:30:33.833,13.3824,12.0755,37.1269
2026-07-22T17:30:33.849,13.3967,12.095,37.166
2026-07-22T17:30:33.863,13.3967,12.1734,37.2639
2026-07-22T17:30:33.863,13.3967,12.2125,37.4793
2026-07-22T17:30:33.885,13.3967,12.2517,37.6947
2026-07-22T17:30:33.885,13.4131,12.2908,37.871
2026-07-22T17:30:33.896,13.4199,12.2517,37.9689
2026-07-22T17:30:33.900,13.4628,12.33,37.9101
2026-07-22T17:30:33.916,13.4808,12.3496,38.0276
2026-07-22T17:30:33.925,13.4919,12.3692,38.0668
2026-07-22T17:30:33.925,13.4919,12.4083,38.1255
2026-07-22T17:30:33.942,13.4919,12.3887,38.1451
2026-07-22T17:30:33.957,13.5109,12.4475,38.3213
2026-07-22T17:30:33.957,13.5169,12.5258,38.3801
2026-07-22T17:30:33.973,13.5169,12.5258,38.5367
2026-07-22T17:30:33.980,13.5269,12.6237,38.478
2026-07-22T17:30:33.990,13.5443,12.565,38.3605
2026-07-22T17:30:34.006,13.5896,12.5846,38.2234
2026-07-22T17:30:34.006,13.5896,12.5454,38.2234
2026-07-22T17:30:34.023,13.5896,12.6041,38.3017
2026-07-22T17:30:34.023,13.6045,12.7216,38.5171
2026-07-22T17:30:34.039,13.6045,12.7412,38.5759
2026-07-22T17:30:34.052,13.6045,12.8391,38.5759
2026-07-22T17:30:34.070,13.6197,12.937,38.478
2026-07-22T17:30:34.075,13.6211,13.0153,38.5759
2026-07-22T17:30:34.087,13.6262,13.0153,38.5171
2026-07-22T17:30:34.103,13.6356,13.0153,38.4388
2026-07-22T17:30:34.104,13.6356,12.9762,38.615
2026-07-22T17:30:34.109,13.6356,13.0741,38.7521
2026-07-22T17:30:34.125,13.692,13.0741,38.8108
2026-07-22T17:30:34.125,13.6935,13.172,38.7521
2026-07-22T17:30:34.141,13.6978,13.2699,38.7717
2026-07-22T17:30:34.150,13.7077,13.2503,38.8696
2026-07-22T17:30:34.180,13.7077,13.3678,39.085
2026-07-22T17:30:34.184,13.7077,13.3482,39.2024
2026-07-22T17:30:34.184,13.7077,13.4265,39.2416
2026-07-22T17:30:34.196,13.7245,13.3678,39.1829
2026-07-22T17:30:34.196,13.7269,13.2307,39.2416
2026-07-22T17:30:34.212,13.7809,13.2895,39.1437
2026-07-22T17:30:34.236,13.789,13.172,39.1437
2026-07-22T17:30:34.236,13.7954,13.1328,39.3003
2026-07-22T17:30:34.236,13.7976,13.1328,39.1045
2026-07-22T17:30:34.254,13.8121,12.9958,39.2024
2026-07-22T17:30:34.284,13.8143,12.9762,39.1829
2026-07-22T17:30:34.284,13.8143,12.8195,39.1829
2026-07-22T17:30:34.284,13.8143,12.702,39.085
2026-07-22T17:30:34.295,13.828,12.7412,39.0066
2026-07-22T17:30:34.303,13.828,12.6629,39.0262
2026-07-22T17:30:34.315,13.8754,12.6629,39.0458
2026-07-22T17:30:34.323,13.8839,12.6629,38.9675
2026-07-22T17:30:34.337,13.8839,12.5454,38.8304
2026-07-22T17:30:34.344,13.8922,12.6433,38.7325
2026-07-22T17:30:34.374,13.8998,12.4475,38.5954
2026-07-22T17:30:34.374,13.9104,12.4671,38.478
2026-07-22T17:30:34.374,13.9104,12.4083,38.3409
2026-07-22T17:30:34.374,13.9157,12.2713,38.1647
2026-07-22T17:30:34.396,13.9273,12.3104,38.1059
2026-07-22T17:30:34.396,13.9811,12.2517,37.8905
2026-07-22T17:30:34.421,14.0032,12.1538,37.5381
2026-07-22T17:30:34.421,14.0032,12.1538,37.2639
2026-07-22T17:30:34.421,14.0163,12.0559,37.2052
2026-07-22T17:30:34.444,14.0196,12.1342,37.2444
2026-07-22T17:30:34.452,14.0284,12.095,37.1856
2026-07-22T17:30:34.460,14.0352,12.0559,37.1856
2026-07-22T17:30:34.470,14.0457,12.0363,37.0877
2026-07-22T17:30:34.476,14.0636,11.958,36.8723
2026-07-22T17:30:34.492,14.0742,11.8992,36.6765
2026-07-22T17:30:34.517,14.125,11.9188,36.5786
2026-07-22T17:30:34.517,14.1282,11.7817,36.3828
2026-07-22T17:30:34.528,14.1282,11.7817,36.1087
2026-07-22T17:30:34.532,14.1339,11.7034,36.0304
2026-07-22T17:30:34.545,14.1388,11.723,35.8541
2026-07-22T17:30:34.563,14.1388,11.6643,35.6975
2026-07-22T17:30:34.563,14.1388,11.5468,35.6975
2026-07-22T17:30:34.571,14.1545,11.5272,35.5017
2026-07-22T17:30:34.580,14.1596,11.2726,35.2667
2026-07-22T17:30:34.589,14.1703,11.1747,35.0513
2026-07-22T17:30:34.606,14.1703,10.9985,34.7772
2026-07-22T17:30:34.618,14.1836,10.7831,34.6401
2026-07-22T17:30:34.624,14.1909,10.7244,34.5814
2026-07-22T17:30:34.633,14.2018,10.6069,34.5031
2026-07-22T17:30:34.641,14.2087,10.5482,34.366
2026-07-22T17:30:34.669,14.2599,10.5286,34.0919
2026-07-22T17:30:34.669,14.2624,10.4698,34.1702
2026-07-22T17:30:34.669,14.2624,10.6265,34.2877
2026-07-22T17:30:34.685,14.2704,10.5873,34.131
2026-07-22T17:30:34.691,14.2771,10.509,33.994
2026-07-22T17:30:34.699,14.2827,10.509,33.9156
2026-07-22T17:30:34.699,14.2893,10.4503,33.9156
2026-07-22T17:30:34.720,14.2969,10.4894,33.7198
2026-07-22T17:30:34.730,14.3125,10.509,33.5632
2026-07-22T17:30:34.741,14.3145,10.5286,33.387
2026-07-22T17:30:34.752,14.3311,10.5677,33.4261
2026-07-22T17:30:34.769,14.3424,10.5482,33.5044
2026-07-22T17:30:34.769,14.3444,10.5286,33.5044
2026-07-22T17:30:34.789,14.3964,10.5677,33.4653
2026-07-22T17:30:34.793,14.3964,10.4111,33.3478
2026-07-22T17:30:34.804,14.4024,10.5482,33.2499
2026-07-22T17:30:34.814,14.4091,10.4698,33.1128
2026-07-22T17:30:34.823,14.4122,10.509,33.2107
2026-07-22T17:30:34.831,14.4122,10.6852,33.2499
2026-07-22T17:30:34.843,14.4259,10.6852,33.387
2026-07-22T17:30:34.849,14.4297,10.7635,33.5632
2026-07-22T17:30:34.857,14.4416,10.7635,33.524
2026-07-22T17:30:34.857,14.4416,10.7048,33.4457
2026-07-22T17:30:34.889,14.4564,10.7244,33.5828
2026-07-22T17:30:34.893,14.4564,10.744,33.6415
2026-07-22T17:30:34.903,14.4743,10.7635,33.4653
2026-07-22T17:30:34.915,14.4811,10.7244,33.1912
2026-07-22T17:30:34.920,14.5372,10.6265,33.1128
2026-07-22T17:30:34.941,14.5385,10.6265,32.9366
2026-07-22T17:30:34.941,14.5385,10.3915,32.6821
2026-07-22T17:30:34.954,14.5577,10.3328,32.7212
2026-07-22T17:30:34.969,14.5733,10.3132,32.7408
2026-07-22T17:30:34.972,14.5733,10.1957,32.7604
2026-07-22T17:30:34.986,14.5821,10.2544,32.6429
2026-07-22T17:30:34.990,14.5821,10.2349,32.5646
2026-07-22T17:30:35.002,14.6019,10.274,32.4667
2026-07-22T17:30:35.002,14.6106,10.2349,32.4667
2026-07-22T17:30:35.016,14.6195,10.137,32.3688
2026-07-22T17:30:35.034,14.6255,10.1957,32.3688
2026-07-22T17:30:35.041,14.6381,10.1174,32.2904
2026-07-22T17:30:35.048,14.6467,9.9412,32.2709
2026-07-22T17:30:35.071,14.6919,10.137,32.2709
2026-07-22T17:30:35.071,14.6962,10.0195,32.2904
2026-07-22T17:30:35.087,14.7047,10.137,32.2904
2026-07-22T17:30:35.099,14.7135,10.1957,32.2709
2026-07-22T17:30:35.110,14.7135,10.1565,32.3296
2026-07-22T17:30:35.118,14.7208,10.1957,32.4471
2026-07-22T17:30:35.127,14.7246,10.1565,32.4275
2026-07-22T17:30:35.133,14.7268,10.274,32.4667
2026-07-22T17:30:35.142,14.7312,10.2544,32.4471
2026-07-22T17:30:35.162,14.7373,10.1761,32.4079
2026-07-22T17:30:35.162,14.7373,10.2153,32.3492
2026-07-22T17:30:35.176,14.7423,10.1565,32.1534
2026-07-22T17:30:35.186,14.7488,10.0586,32.075
2026-07-22T17:30:35.193,14.7488,9.9803,31.8009
2026-07-22T17:30:35.207,14.7598,9.8237,31.6834
2026-07-22T17:30:35.210,14.7618,9.8041,31.5268
2026-07-22T17:30:35.223,14.8124,9.7649,31.3114
2026-07-22T17:30:35.241,14.8124,9.6279,31.0764
2026-07-22T17:30:35.244,14.8171,9.7453,30.7827
2026-07-22T17:30:35.265,14.8284,9.7453,30.6848
2026-07-22T17:30:35.265,14.8284,9.7845,30.5869
2026-07-22T17:30:35.274,14.8314,9.8041,30.6261
2026-07-22T17:30:35.281,14.8412,9.7062,30.5477
2026-07-22T17:30:35.291,14.8441,9.8237,30.6065
2026-07-22T17:30:35.302,14.8602,9.7453,30.7827
2026-07-22T17:30:35.309,14.8693,9.7258,30.9589
2026-07-22T17:30:35.322,14.8851,9.7649,30.8806
2026-07-22T17:30:35.341,14.9395,9.7258,30.7631
2026-07-22T17:30:35.344,14.9395,9.7649,30.489
2026-07-22T17:30:35.362,14.9463,9.7453,30.5282
2026-07-22T17:30:35.362,14.9463,9.6279,30.6261
2026-07-22T17:30:35.369,14.9565,9.6279,30.5869
2026-07-22T17:30:35.382,14.9632,9.5104,30.489
2026-07-22T17:30:35.392,14.9722,9.6279,30.5869
2026-07-22T17:30:35.404,14.9813,9.5691,30.5869
2026-07-22T17:30:35.404,14.9869,9.5104,30.5673
2026-07-22T17:30:35.429,14.9989,9.6083,30.4107
2026-07-22T17:30:35.429,15.02,9.53,30.2736
2026-07-22T17:30:35.445,15.0332,9.6279,30.1757
2026-07-22T17:30:35.453,15.0853,9.5887,30.0386
2026-07-22T17:30:35.473,15.0921,9.53,29.9799
2026-07-22T17:30:35.488,15.0921,9.5691,29.8624
2026-07-22T17:30:35.488,15.0921,9.5887,29.8428
2026-07-22T17:30:35.492,15.1031,9.7062,29.7058
2026-07-22T17:30:35.506,15.1098,9.6474,29.4512
2026-07-22T17:30:35.514,15.1124,9.4908,29.2946
2026-07-22T17:30:35.523,15.1188,9.6083,29.0204
2026-07-22T17:30:35.546,15.1278,9.3929,28.6876
2026-07-22T17:30:35.546,15.1278,9.295,28.4722
2026-07-22T17:30:35.547,15.1346,9.295,28.3351
2026-07-22T17:30:35.580,15.1393,9.2362,28.1981
2026-07-22T17:30:35.587,15.1393,9.1971,28.0806
2026-07-22T17:30:35.592,15.1426,9.1383,27.8848
2026-07-22T17:30:35.593,15.1468,8.9817,27.8848
2026-07-22T17:30:35.605,15.1815,9.0209,27.7085
2026-07-22T17:30:35.633,15.2005,8.9425,27.5911
2026-07-22T17:30:35.633,15.2005,8.9034,27.5911
2026-07-22T17:30:35.633,15.2005,8.8446,27.4736
2026-07-22T17:30:35.652,15.2093,8.7859,27.3365
2026-07-22T17:30:35.652,15.2156,8.8446,27.2778
2026-07-22T17:30:35.665,15.2156,8.7663,27.1603
2026-07-22T17:30:35.673,15.2192,8.7663,27.0428
2026-07-22T17:30:35.688,15.2238,8.7467,26.9449
2026-07-22T17:30:35.695,15.229,8.5705,26.7491
2026-07-22T17:30:35.703,15.2332,8.6097,26.7295
2026-07-22T17:30:35.712,15.2357,8.5901,26.6708
2026-07-22T17:30:35.742,15.2931,8.5509,26.7295
2026-07-22T17:30:35.742,15.2931,8.5313,26.6512
2026-07-22T17:30:35.742,15.298,8.453,26.7687
2026-07-22T17:30:35.742,15.298,8.4922,26.8078
2026-07-22T17:30:35.761,15.3082,8.4139,26.6708
2026-07-22T17:30:35.769,15.3185,8.2964,26.5337
2026-07-22T17:30:35.784,15.3319,8.2964,26.3183
2026-07-22T17:30:35.793,15.3334,8.1985,26.24
2026-07-22T17:30:35.796,15.348,8.218,26.0638
2026-07-22T17:30:35.828,15.4102,8.218,25.9659
2026-07-22T17:30:35.834,15.4102,8.1593,25.9267
2026-07-22T17:30:35.834,15.4102,8.3159,25.9659
2026-07-22T17:30:35.842,15.4184,8.2376,26.0246
2026-07-22T17:30:35.853,15.4226,8.2964,26.1617
2026-07-22T17:30:35.868,15.4288,8.3747,26.3183
2026-07-22T17:30:35.877,15.434,8.3551,26.4945
2026-07-22T17:30:35.889,15.4411,8.453,26.6708
2026-07-22T17:30:35.894,15.4448,8.4334,26.8861
2026-07-22T17:30:35.902,15.4532,8.3159,27.1015
2026-07-22T17:30:35.912,15.4644,8.4922,27.2973
2026-07-22T17:30:35.952,15.5232,8.5509,27.5127
2026-07-22T17:30:35.952,15.5232,8.7076,27.826
2026-07-22T17:30:35.952,15.5232,8.825,28.2372
2026-07-22T17:30:35.952,15.5232,9.0013,28.7463
2026-07-22T17:30:35.963,15.5343,9.3537,29.3142
2026-07-22T17:30:35.970,15.5379,9.5495,29.8428
2026-07-22T17:30:35.983,15.5485,9.8041,30.489
2026-07-22T17:30:35.994,15.5513,10.0586,31.0177
2026-07-22T17:30:36.001,15.556,10.2544,31.4289
2026-07-22T17:30:36.013,15.5649,10.7048,32.0359
2026-07-22T17:30:36.025,15.5771,11.0964,32.6037
2026-07-22T17:30:36.049,15.632,11.3705,33.2107
2026-07-22T17:30:36.071,15.632,11.6643,33.6023
2026-07-22T17:30:36.071,15.6347,11.8601,33.8569
2026-07-22T17:30:36.071,15.6347,12.2321,34.2681
2026-07-22T17:30:36.071,15.6347,12.8587,34.973
2026-07-22T17:30:36.083,15.6453,12.9566,35.4625
2026-07-22T17:30:36.094,15.6485,13.0937,35.7562
2026-07-22T17:30:36.101,15.6567,12.9762,35.815
2026-07-22T17:30:36.111,15.6647,13.0349,36.0499
2026-07-22T17:30:36.125,15.6728,13.172,36.4024
2026-07-22T17:30:36.137,15.6762,13.3874,36.9311
2026-07-22T17:30:36.142,15.6842,13.6419,37.1269
2026-07-22T17:30:36.178,15.729,13.7398,37.1269
2026-07-22T17:30:36.178,15.729,13.779,37.0681
2026-07-22T17:30:36.178,15.729,13.7986,37.1073
2026-07-22T17:30:36.189,15.7364,13.544,37.029
2026-07-22T17:30:36.195,15.7414,13.2699,36.6374
2026-07-22T17:30:36.203,15.7479,12.8391,35.952
2026-07-22T17:30:36.217,15.7644,12.2713,35.1296
2026-07-22T17:30:36.225,15.7738,11.5076,34.0331
2026-07-22T17:30:36.233,15.7835,10.4698,32.3296
2026-07-22T17:30:36.244,15.796,9.4125,30.254
2026-07-22T17:30:36.251,15.8359,8.1006,27.4344
2026-07-22T17:30:36.263,15.8467,6.632,24.1448
2026-07-22T17:30:36.281,15.8588,5.2418,20.2874
2026-07-22T17:30:36.281,15.8588,3.597,16.4496
2026-07-22T17:30:36.297,15.8706,2.0697,13.1992
2026-07-22T17:30:36.312,15.8889,0.7382,10.3796
2026-07-22T17:30:36.324,15.9008,-0.4171,8.2844
2026-07-22T17:30:36.324,15.9025,-1.2199,6.5026
2026-07-22T17:30:36.344,15.911,-1.866,5.1319
2026-07-22T17:30:36.344,15.9266,-2.2381,4.1137
2026-07-22T17:30:36.356,15.9266,-2.4143,3.2913
2026-07-22T17:30:36.359,15.9501,-2.5318,2.606
2026-07-22T17:30:36.375,16.002,-2.5514,2.1948
2026-07-22T17:30:36.396,16.0053,-2.5905,1.8228
2026-07-22T17:30:36.396,16.0271,-2.571,1.7053
2026-07-22T17:30:36.419,16.05,-2.4143,1.6074
2026-07-22T17:30:36.419,16.0517,-2.0031,1.4899
2026-07-22T17:30:36.449,16.0745,-1.6507,1.2158
2026-07-22T17:30:36.449,16.0779,-1.1611,0.8437
2026-07-22T17:30:36.449,16.0779,-1.0828,0.5696
2026-07-22T17:30:36.462,16.085,-1.0045,0.3738
2026-07-22T17:30:36.471,16.085,-0.8478,0.0997
2026-07-22T17:30:36.487,16.0974,-0.7108,0.0605
2026-07-22T17:30:36.510,16.103,-0.6325,-0.0374
2026-07-22T17:30:36.510,16.103,-0.5541,-0.0961
2026-07-22T17:30:36.510,16.1086,-0.5737,-0.0766
2026-07-22T17:30:36.510,16.1086,-0.6129,-0.0766
2026-07-22T17:30:36.518,16.1567,-0.6325,-0.0961
2026-07-22T17:30:36.543,16.1666,-0.6912,-0.0374
2026-07-22T17:30:36.543,16.1666,-0.5541,-0.0178
2026-07-22T17:30:36.562,16.1724,-0.3779,0.0213
2026-07-22T17:30:36.565,16.1724,-0.2996,0.0213
2026-07-22T17:30:36.586,16.1833,-0.3975,0.0801
2026-07-22T17:30:36.587,16.1883,-0.2996,0.1976
2026-07-22T17:30:36.632,16.1883,-0.4171,0.0409
2026-07-22T17:30:36.634,16.1883,-0.3779,0.0801
2026-07-22T17:30:36.637,16.1883,-0.3975,0.1192
2026-07-22T17:30:36.637,16.1883,-0.4758,0.1192
2026-07-22T17:30:36.637,16.1883,-0.4171,0.1584
2026-07-22T17:30:36.645,16.1993,-0.4367,0.0801
2026-07-22T17:30:36.645,16.1993,-0.4367,0.1584
2026-07-22T17:30:36.663,16.2099,-0.4954,0.0997
2026-07-22T17:30:36.677,16.2177,-0.4562,0.0997
2026-07-22T17:30:36.693,16.2509,-0.4367,0.1192
2026-07-22T17:30:36.710,16.2509,-0.4367,0.0605
2026-07-22T17:30:36.710,16.2667,-0.4367,0.1388
2026-07-22T17:30:36.717,16.2691,-0.3192,0.0997
2026-07-22T17:30:36.727,16.2738,-0.4954,0.1584
2026-07-22T17:30:36.733,16.2738,-0.3192,0.1976
2026-07-22T17:30:36.748,16.28,-0.4171,0.1388
2026-07-22T17:30:36.759,16.2833,-0.4954,0.1388
2026-07-22T17:30:36.766,16.2859,-0.3779,0.1192
2026-07-22T17:30:36.773,16.2859,-0.4758,0.0997
2026-07-22T17:30:36.786,16.3136,-0.3975,0.1388
2026-07-22T17:30:36.811,16.3296,-0.4171,0.0997
2026-07-22T17:30:36.811,16.3296,-0.5346,0.2759
2026-07-22T17:30:36.811,16.3296,-0.4367,0.2367
2026-07-22T17:30:36.811,16.3416,-0.4367,0.1584
2026-07-22T17:30:36.834,16.3453,-0.5541,0.2563
2026-07-22T17:30:36.842,16.3453,-0.4367,0.178
2026-07-22T17:30:36.846,16.4002,-0.4171,0.0997
2026-07-22T17:30:36.858,16.4002,-0.515,0.1976
2026-07-22T17:30:36.874,16.4073,-0.4562,0.1388
2026-07-22T17:30:36.874,16.4073,-0.4562,0.178
2026-07-22T17:30:36.902,16.4108,-0.4367,0.1584
2026-07-22T17:30:36.905,16.4148,-0.4562,0.1584
2026-07-22T17:30:36.905,16.4172,-0.4367,0.1584
2026-07-22T17:30:36.936,16.4623,-0.4562,0.1976
2026-07-22T17:30:36.937,16.4623,-0.5737,0.2172
2026-07-22T17:30:36.953,16.4686,-0.4562,0.1976
2026-07-22T17:30:36.953,16.4686,-0.5737,0.1388
2026-07-22T17:30:36.977,16.4725,-0.4954,0.178
2026-07-22T17:30:36.977,16.4725,-0.4562,0.178
2026-07-22T17:30:36.984,16.4725,-0.4954,0.1388
2026-07-22T17:30:36.998,16.5172,-0.4758,0.1388
2026-07-22T17:30:37.017,16.5197,-0.515,0.178
2026-07-22T17:30:37.017,16.5197,-0.4758,0.2172
2026-07-22T17:30:37.022,16.5197,-0.3779,0.1584
2026-07-22T17:30:37.033,16.5197,-0.3975,0.1976
2026-07-22T17:30:37.033,16.5197,-0.4171,0.2759
2026-07-22T17:30:37.065,16.5672,-0.4367,0.178
2026-07-22T17:30:37.065,16.572,-0.515,0.2759
2026-07-22T17:30:37.074,16.572,-0.4562,0.1388
2026-07-22T17:30:37.080,16.572,-0.4954,0.1584
2026-07-22T17:30:37.080,16.5836,-0.4562,0.2172
2026-07-22T17:30:37.112,16.6217,-0.4367,0.1388
2026-07-22T17:30:37.127,16.6294,-0.515,0.1976
2026-07-22T17:30:37.127,16.6294,-0.4171,0.2172
2026-07-22T17:30:37.132,16.6331,-0.4758,0.178
2026-07-22T17:30:37.144,16.6389,-0.4758,0.1584
2026-07-22T17:30:37.161,16.6787,-0.4562,0.178
2026-07-22T17:30:37.167,16.6839,-0.5346,0.1976
2026-07-22T17:30:37.182,16.6839,-0.4367,0.1976
2026-07-22T17:30:37.182,16.6876,-0.3975,0.2367
2026-07-22T17:30:37.193,16.6911,-0.515,0.178
2026-07-22T17:30:37.199,16.6948,-0.3583,0.2563
2026-07-22T17:30:37.223,16.743,-0.515,0.1976
2026-07-22T17:30:37.239,16.7467,-0.3975,0.178
2026-07-22T17:30:37.239,16.7467,-0.4562,0.1584
2026-07-22T17:30:37.244,16.7496,-0.4562,0.2367
2026-07-22T17:30:37.255,16.7496,-0.4562,0.178
2026-07-22T17:30:37.255,16.7904,-0.4954,0.2172
2026-07-22T17:30:37.277,16.7952,-0.4367,0.2172
2026-07-22T17:30:37.297,16.8003,-0.4367,0.178
2026-07-22T17:30:37.297,16.8003,-0.4954,0.1976
2026-07-22T17:30:37.310,16.8089,-0.4367,0.178
2026-07-22T17:30:37.310,16.8089,-0.515,0.178
2026-07-22T17:30:37.335,16.8395,-0.4758,0.2367
2026-07-22T17:30:37.335,16.8528,-0.4171,0.2172
2026-07-22T17:30:37.351,16.8528,-0.4758,0.1584
2026-07-22T17:30:37.355,16.8528,-0.4171,0.2563
2026-07-22T17:30:37.364,16.8528,-0.4562,0.1976
2026-07-22T17:30:37.369,16.8656,-0.5346,0.178
2026-07-22T17:30:37.381,16.9015,-0.3975,0.1976
2026-07-22T17:30:37.400,16.9015,-0.4758,0.1976
2026-07-22T17:30:37.400,16.9015,-0.4562,0.2367
2026-07-22T17:30:37.413,16.9079,-0.4954,0.2172
2026-07-22T17:30:37.413,16.9119,-0.4954,0.2367
2026-07-22T17:30:37.446,16.9545,-0.4171,0.1584
2026-07-22T17:30:37.459,16.9545,-0.4562,0.1584
2026-07-22T17:30:37.459,16.9545,-0.4367,0.1976
2026-07-22T17:30:37.472,16.9545,-0.4758,0.2172
2026-07-22T17:30:37.475,16.9545,-0.515,0.1976
2026-07-22T17:30:37.507,17.0011,-0.4171,0.1976
2026-07-22T17:30:37.507,17.0011,-0.4954,0.178
2026-07-22T17:30:37.507,17.0011,-0.4171,0.2172
2026-07-22T17:30:37.515,17.0096,-0.4562,0.1388
2026-07-22T17:30:37.523,17.0096,-0.4562,0.2172
2026-07-22T17:30:37.542,17.0524,-0.4562,0.2563
2026-07-22T17:30:37.554,17.058,-0.3975,0.1976
2026-07-22T17:30:37.554,17.0605,-0.4562,0.1976
2026-07-22T17:30:37.561,17.0605,-0.4171,0.2367
2026-07-22T17:30:37.570,17.0664,-0.4367,0.178
2026-07-22T17:30:37.606,17.1061,-0.3975,0.2367
2026-07-22T17:30:37.613,17.1061,-0.4758,0.1976
2026-07-22T17:30:37.613,17.1061,-0.5541,0.2563
2026-07-22T17:30:37.621,17.1061,-0.3975,0.1976
2026-07-22T17:30:37.627,17.1218,-0.4954,0.1976
2026-07-22T17:30:37.627,17.1252,-0.3975,0.2367
2026-07-22T17:30:37.666,17.1755,-0.4367,0.2563
2026-07-22T17:30:37.666,17.1755,-0.4562,0.178
2026-07-22T17:30:37.666,17.1781,-0.3975,0.2172
2026-07-22T17:30:37.666,17.1781,-0.4954,0.178
2026-07-22T17:30:37.685,17.1867,-0.4758,0.2172
2026-07-22T17:30:37.685,17.2263,-0.3975,0.1976
2026-07-22T17:30:37.712,17.2289,-0.4758,0.2367
2026-07-22T17:30:37.730,17.2289,-0.4367,0.2955
2026-07-22T17:30:37.730,17.2289,-0.3779,0.178
2026-07-22T17:30:37.736,17.2289,-0.4562,0.2563
2026-07-22T17:30:37.738,17.2289,-0.4171,0.2563
2026-07-22T17:30:37.754,17.2849,-0.4562,0.2367
2026-07-22T17:30:37.773,17.2849,-0.4367,0.1976
2026-07-22T17:30:37.773,17.2926,-0.4171,0.2367
2026-07-22T17:30:37.773,17.2926,-0.4758,0.2367
2026-07-22T17:30:37.789,17.2977,-0.28,0.2367
2026-07-22T17:30:37.804,17.3019,-0.4758,0.2367
2026-07-22T17:30:37.823,17.3291,-0.4562,0.2563
2026-07-22T17:30:37.839,17.3291,-0.4171,0.2563
2026-07-22T17:30:37.843,17.3414,-0.4954,0.2367
2026-07-22T17:30:37.843,17.3414,-0.4171,0.178
2026-07-22T17:30:37.853,17.3448,-0.4367,0.2172
2026-07-22T17:30:37.862,17.385,-0.3779,0.2367
2026-07-22T17:30:37.874,17.3923,-0.3387,0.1584
2026-07-22T17:30:37.889,17.3923,-0.4954,0.2563
2026-07-22T17:30:37.889,17.3923,-0.4367,0.2172
2026-07-22T17:30:37.902,17.3971,-0.4562,0.1584
2026-07-22T17:30:37.905,17.408,-0.4954,0.2172
2026-07-22T17:30:37.945,17.4416,-0.3779,0.2563
2026-07-22T17:30:37.945,17.4416,-0.4562,0.1976
2026-07-22T17:30:37.945,17.4416,-0.3975,0.2367
2026-07-22T17:30:37.957,17.455,-0.4562,0.2955
2026-07-22T17:30:37.960,17.4581,-0.4367,0.2172
2026-07-22T17:30:37.984,17.5018,-0.4171,0.1976
2026-07-22T17:30:38.000,17.5018,-0.4562,0.1976
2026-07-22T17:30:38.000,17.5018,-0.4171,0.2759
2026-07-22T17:30:38.002,17.5116,-0.4171,0.2172
2026-07-22T17:30:38.015,17.5174,-0.515,0.2955
2026-07-22T17:30:38.029,17.5174,-0.4171,0.2563
2026-07-22T17:30:38.033,17.5646,-0.4562,0.1976
2026-07-22T17:30:38.062,17.5742,-0.4562,0.2563
2026-07-22T17:30:38.062,17.5742,-0.4367,0.1976
2026-07-22T17:30:38.062,17.5776,-0.4758,0.2563
2026-07-22T17:30:38.077,17.5805,-0.4367,0.2367
2026-07-22T17:30:38.077,17.5875,-0.4367,0.178
2026-07-22T17:30:38.111,17.6277,-0.4367,0.2367
2026-07-22T17:30:38.112,17.6277,-0.4171,0.2367
2026-07-22T17:30:38.125,17.6277,-0.4954,0.2759
2026-07-22T17:30:38.125,17.6277,-0.3975,0.2172
2026-07-22T17:30:38.134,17.6347,-0.4562,0.2172
2026-07-22T17:30:38.145,17.6387,-0.5346,0.2563
2026-07-22T17:30:38.172,17.6795,-0.2996,0.2367
2026-07-22T17:30:38.172,17.6795,-0.4954,0.1976
2026-07-22T17:30:38.172,17.683,-0.4367,0.2563
2026-07-22T17:30:38.188,17.6887,-0.4367,0.2172
2026-07-22T17:30:38.188,17.691,-0.4171,0.2367
2026-07-22T17:30:38.204,17.7224,-0.3975,0.2367
2026-07-22T17:30:38.235,17.7358,-0.4367,0.1976
2026-07-22T17:30:38.235,17.7383,-0.3779,0.2172
2026-07-22T17:30:38.235,17.7383,-0.515,0.2172
2026-07-22T17:30:38.249,17.7427,-0.4758,0.2172
2026-07-22T17:30:38.256,17.7462,-0.3975,0.2367
2026-07-22T17:30:38.267,17.7858,-0.5346,0.2172
2026-07-22T17:30:38.282,17.7858,-0.3975,0.2759
2026-07-22T17:30:38.282,17.7858,-0.4171,0.178
2026-07-22T17:30:38.296,17.7858,-0.4562,0.2367
2026-07-22T17:30:38.303,17.7858,-0.4367,0.2955
2026-07-22T17:30:38.330,17.8411,-0.4562,0.2563
2026-07-22T17:30:38.330,17.8431,-0.4758,0.1976
2026-07-22T17:30:38.330,17.8468,-0.4367,0.2367
2026-07-22T17:30:38.346,17.8497,-0.4758,0.2172
2026-07-22T17:30:38.346,17.8497,-0.3975,0.2563
2026-07-22T17:30:38.362,17.8497,-0.4562,0.2172
2026-07-22T17:30:38.394,17.9009,-0.4367,0.2955
2026-07-22T17:30:38.394,17.9009,-0.4367,0.2759
2026-07-22T17:30:38.394,17.9009,-0.4954,0.1584
2026-07-22T17:30:38.410,17.9084,-0.3975,0.178
2026-07-22T17:30:38.410,17.9104,-0.4562,0.2367
2026-07-22T17:30:38.410,17.913,-0.4562,0.2172
2026-07-22T17:30:38.441,17.9446,-0.4367,0.2563
2026-07-22T17:30:38.457,17.9446,-0.4367,0.2563
2026-07-22T17:30:38.457,17.9446,-0.3975,0.2759
2026-07-22T17:30:38.461,17.9588,-0.3583,0.1976
2026-07-22T17:30:38.473,17.9605,-0.4954,0.2563
2026-07-22T17:30:38.489,17.9919,-0.3975,0.2563
2026-07-22T17:30:38.505,18.0076,-0.4171,0.2172
2026-07-22T17:30:38.505,18.0076,-0.515,0.2172
2026-07-22T17:30:38.505,18.0076,-0.4562,0.2367
2026-07-22T17:30:38.521,18.017,-0.4562,0.2563
2026-07-22T17:30:38.552,18.0625,-0.4562,0.2955
2026-07-22T17:30:38.552,18.0631,-0.4367,0.2563
2026-07-22T17:30:38.552,18.0631,-0.4367,0.2367
2026-07-22T17:30:38.565,18.0631,-0.3583,0.2563
2026-07-22T17:30:38.580,18.0706,-0.4758,0.1976
2026-07-22T17:30:38.583,18.1127,-0.4171,0.1976
2026-07-22T17:30:38.583,18.1172,-0.3779,0.178
2026-07-22T17:30:38.615,18.1182,-0.4758,0.2563
2026-07-22T17:30:38.615,18.1182,-0.4171,0.3151
2026-07-22T17:30:38.623,18.1238,-0.3975,0.1976
2026-07-22T17:30:38.631,18.1283,-0.515,0.2367
2026-07-22T17:30:38.662,18.1789,-0.4171,0.2563
2026-07-22T17:30:38.662,18.1813,-0.4758,0.2563
2026-07-22T17:30:38.662,18.1813,-0.4367,0.2172
2026-07-22T17:30:38.673,18.1865,-0.4562,0.178
2026-07-22T17:30:38.688,18.1922,-0.4562,0.2563
2026-07-22T17:30:38.694,18.1922,-0.4367,0.2563
2026-07-22T17:30:38.729,18.2289,-0.4367,0.2367
2026-07-22T17:30:38.729,18.2289,-0.4367,0.2563
2026-07-22T17:30:38.729,18.2289,-0.3779,0.2172
2026-07-22T17:30:38.741,18.2408,-0.4562,0.3151
2026-07-22T17:30:38.750,18.2408,-0.4562,0.1584
2026-07-22T17:30:38.752,18.245,-0.4758,0.2563
2026-07-22T17:30:38.773,18.2868,-0.3779,0.2563
2026-07-22T17:30:38.789,18.2868,-0.4171,0.2172
2026-07-22T17:30:38.789,18.2929,-0.3387,0.3542
2026-07-22T17:30:38.789,18.296,-0.4171,0.2367
2026-07-22T17:30:38.805,18.3013,-0.4562,0.2759
2026-07-22T17:30:38.821,18.3416,-0.4758,0.3346
2026-07-22T17:30:38.837,18.3458,-0.4367,0.2563
2026-07-22T17:30:38.837,18.3458,-0.5346,0.2563
2026-07-22T17:30:38.847,18.3504,-0.4171,0.2367
2026-07-22T17:30:38.858,18.3574,-0.3975,0.2563
2026-07-22T17:30:38.865,18.3574,-0.4367,0.2367
2026-07-22T17:30:38.886,18.408,-0.4171,0.2367
2026-07-22T17:30:38.886,18.408,-0.4954,0.2759
2026-07-22T17:30:38.886,18.408,-0.4562,0.2759
2026-07-22T17:30:38.906,18.4161,-0.4367,0.2367
2026-07-22T17:30:38.916,18.4186,-0.4562,0.2563
2026-07-22T17:30:38.918,18.4593,-0.4171,0.2563
2026-07-22T17:30:38.957,18.4593,-0.4562,0.2563
2026-07-22T17:30:38.957,18.4593,-0.4171,0.2367
2026-07-22T17:30:38.957,18.4593,-0.4171,0.2563
2026-07-22T17:30:38.957,18.4687,-0.4954,0.2563
2026-07-22T17:30:38.979,18.4751,-0.3779,0.2563
2026-07-22T17:30:38.979,18.4751,-0.3975,0.2172
2026-07-22T17:30:39.007,18.5224,-0.4562,0.2955
2026-07-22T17:30:39.007,18.5224,-0.4562,0.2367
2026-07-22T17:30:39.007,18.5224,-0.4562,0.2367
2026-07-22T17:30:39.019,18.5302,-0.3975,0.2172
2026-07-22T17:30:39.035,18.5382,-0.4367,0.2563
2026-07-22T17:30:39.041,18.5858,-0.4562,0.2759
2026-07-22T17:30:39.067,18.5893,-0.4562,0.2367
2026-07-22T17:30:39.067,18.5893,-0.4758,0.3346
2026-07-22T17:30:39.067,18.5893,-0.3975,0.2172
2026-07-22T17:30:39.083,18.5931,-0.4367,0.2367
2026-07-22T17:30:39.090,18.5931,-0.4562,0.3542
2026-07-22T17:30:39.114,18.6332,-0.3779,0.2563
2026-07-22T17:30:39.134,18.6332,-0.4758,0.2172
2026-07-22T17:30:39.134,18.6332,-0.4367,0.2955
2026-07-22T17:30:39.134,18.6332,-0.4171,0.2563
2026-07-22T17:30:39.134,18.6332,-0.4758,0.2172
2026-07-22T17:30:39.153,18.6428,-0.3583,0.2367
2026-07-22T17:30:39.162,18.6875,-0.3975,0.2367
2026-07-22T17:30:39.178,18.6875,-0.3779,0.2172
2026-07-22T17:30:39.193,18.6875,-0.4562,0.2172
2026-07-22T17:30:39.193,18.6875,-0.4954,0.2563
2026-07-22T17:30:39.203,18.6968,-0.3975,0.2955
2026-07-22T17:30:39.213,18.7285,-0.3779,0.1388
2026-07-22T17:30:39.228,18.7285,-0.5346,0.2367
2026-07-22T17:30:39.242,18.7285,-0.3975,0.2955
2026-07-22T17:30:39.242,18.7285,-0.4954,0.2563
2026-07-22T17:30:39.257,18.7484,-0.4171,0.2563
2026-07-22T17:30:39.260,18.7877,-0.4171,0.2563
2026-07-22T17:30:39.289,18.7916,-0.4954,0.2367
2026-07-22T17:30:39.289,18.7916,-0.3779,0.3151
2026-07-22T17:30:39.289,18.7916,-0.4367,0.2367
2026-07-22T17:30:39.304,18.8004,-0.4171,0.2563
2026-07-22T17:30:39.309,18.8073,-0.3975,0.2563
2026-07-22T17:30:39.320,18.8388,-0.4758,0.2759
2026-07-22T17:30:39.348,18.8488,-0.4367,0.2759
2026-07-22T17:30:39.348,18.8507,-0.3975,0.2172
2026-07-22T17:30:39.352,18.8507,-0.4367,0.2563
2026-07-22T17:30:39.367,18.8569,-0.4171,0.3542
2026-07-22T17:30:39.385,18.903,-0.4758,0.2759
2026-07-22T17:30:39.399,18.903,-0.4171,0.2759
2026-07-22T17:30:39.399,18.903,-0.4562,0.2172
2026-07-22T17:30:39.409,18.903,-0.4367,0.2759
2026-07-22T17:30:39.417,18.903,-0.4171,0.3346
2026-07-22T17:30:39.435,18.9501,-0.4562,0.2367
2026-07-22T17:30:39.455,18.9501,-0.3975,0.2955
2026-07-22T17:30:39.455,18.9501,-0.3779,0.1976
2026-07-22T17:30:39.455,18.9501,-0.4954,0.2172
2026-07-22T17:30:39.463,18.9501,-0.3975,0.2955
2026-07-22T17:30:39.463,18.9626,-0.4562,0.2172
2026-07-22T17:30:39.495,18.9973,-0.3779,0.2563
2026-07-22T17:30:39.495,18.9973,-0.3779,0.2367
2026-07-22T17:30:39.495,18.9973,-0.4562,0.2367
2026-07-22T17:30:39.510,18.9973,-0.4367,0.2955
2026-07-22T17:30:39.523,19.0133,-0.4171,0.2563
2026-07-22T17:30:39.542,19.0576,-0.4171,0.3738
2026-07-22T17:30:39.557,19.0576,-0.3975,0.1976
2026-07-22T17:30:39.557,19.0576,-0.4758,0.2563
2026-07-22T17:30:39.557,19.0627,-0.3975,0.2955
2026-07-22T17:30:39.573,19.0627,-0.515,0.2563
2026-07-22T17:30:39.589,19.1101,-0.4367,0.2367
2026-07-22T17:30:39.589,19.114,-0.4171,0.2955
2026-07-22T17:30:39.610,19.1167,-0.4562,0.2759
2026-07-22T17:30:39.610,19.1167,-0.4171,0.2563
2026-07-22T17:30:39.623,19.1241,-0.4171,0.2172
2026-07-22T17:30:39.623,19.1556,-0.4758,0.3151
2026-07-22T17:30:39.667,19.1556,-0.4171,0.2563
2026-07-22T17:30:39.667,19.1716,-0.4562,0.2367
2026-07-22T17:30:39.667,19.1716,-0.3779,0.2759
2026-07-22T17:30:39.677,19.1761,-0.4171,0.2172
2026-07-22T17:30:39.684,19.1761,-0.4562,0.2955
2026-07-22T17:30:39.700,19.2194,-0.28,0.2759
2026-07-22T17:30:39.700,19.2194,-0.4562,0.2367
2026-07-22T17:30:39.716,19.2242,-0.4367,0.2955
2026-07-22T17:30:39.716,19.2242,-0.4367,0.1976
2026-07-22T17:30:39.736,19.2283,-0.4758,0.2759
2026-07-22T17:30:39.736,19.2671,-0.3975,0.2759
2026-07-22T17:30:39.764,19.2671,-0.3975,0.2367
2026-07-22T17:30:39.764,19.2671,-0.3975,0.2367
2026-07-22T17:30:39.764,19.2671,-0.4171,0.2759
2026-07-22T17:30:39.784,19.2671,-0.4367,0.1976
2026-07-22T17:30:39.796,19.2829,-0.4171,0.2563
2026-07-22T17:30:39.827,19.3227,-0.4367,0.2563
2026-07-22T17:30:39.827,19.3227,-0.4954,0.2955
2026-07-22T17:30:39.827,19.3227,-0.3975,0.2172
2026-07-22T17:30:39.827,19.3284,-0.4758,0.2367
2026-07-22T17:30:39.843,19.3309,-0.4171,0.2759
2026-07-22T17:30:39.874,19.3701,-0.4367,0.2367
2026-07-22T17:30:39.874,19.3701,-0.4758,0.2955
2026-07-22T17:30:39.874,19.3701,-0.3779,0.2563
2026-07-22T17:30:39.883,19.3781,-0.4758,0.2367
2026-07-22T17:30:39.897,19.4213,-0.3779,0.2563
2026-07-22T17:30:39.907,19.4257,-0.4367,0.2367
2026-07-22T17:30:39.922,19.4296,-0.4367,0.2563
2026-07-22T17:30:39.922,19.4311,-0.3975,0.2955
2026-07-22T17:30:39.930,19.4345,-0.4171,0.2563
2026-07-22T17:30:39.944,19.4419,-0.3975,0.3346
2026-07-22T17:30:39.964,19.4839,-0.3779,0.2563
2026-07-22T17:30:39.975,19.4839,-0.4954,0.2367
2026-07-22T17:30:39.975,19.4885,-0.3583,0.3151
2026-07-22T17:30:39.986,19.49,-0.3779,0.178
2026-07-22T17:30:39.995,19.49,-0.4758,0.2563
2026-07-22T17:30:40.008,19.5354,-0.3975,0.3151
2026-07-22T17:30:40.034,19.5374,-0.4954,0.2563
2026-07-22T17:30:40.034,19.5394,-0.3387,0.2172
2026-07-22T17:30:40.034,19.5414,-0.3779,0.1976
2026-07-22T17:30:40.044,19.5443,-0.4562,0.2563
2026-07-22T17:30:40.050,19.5469,-0.4171,0.2955
2026-07-22T17:30:40.061,19.5935,-0.4367,0.2172
2026-07-22T17:30:40.073,19.5935,-0.4171,0.3151
2026-07-22T17:30:40.082,19.5935,-0.4171,0.2172
2026-07-22T17:30:40.097,19.5935,-0.4954,0.2759
2026-07-22T17:30:40.107,19.5935,-0.3975,0.2759
2026-07-22T17:30:40.112,19.6093,-0.4171,0.2955
2026-07-22T17:30:40.132,19.6518,-0.4758,0.2563
2026-07-22T17:30:40.149,19.6555,-0.3975,0.2367
2026-07-22T17:30:40.149,19.6571,-0.4758,0.3151
2026-07-22T17:30:40.154,19.6639,-0.3975,0.2563
2026-07-22T17:30:40.154,19.6639,-0.4367,0.1976
2026-07-22T17:30:40.185,19.7045,-0.4367,0.2367
2026-07-22T17:30:40.187,19.7045,-0.4171,0.2759
2026-07-22T17:30:40.207,19.7126,-0.4562,0.1976
2026-07-22T17:30:40.207,19.7126,-0.3975,0.2367
2026-07-22T17:30:40.217,19.7126,-0.3975,0.2172
2026-07-22T17:30:40.224,19.7204,-0.4367,0.2367
2026-07-22T17:30:40.245,19.7635,-0.4171,0.2955
2026-07-22T17:30:40.246,19.7655,-0.3975,0.2367
2026-07-22T17:30:40.265,19.771,-0.4367,0.2955
2026-07-22T17:30:40.265,19.773,-0.4171,0.2172
2026-07-22T17:30:40.273,19.773,-0.515,0.2367
2026-07-22T17:30:40.281,19.7998,-0.4171,0.2563
2026-07-22T17:30:40.317,19.8154,-0.3975,0.1976
2026-07-22T17:30:40.319,19.8154,-0.3779,0.2563
2026-07-22T17:30:40.319,19.8154,-0.4171,0.2172
2026-07-22T17:30:40.333,19.8274,-0.4758,0.2759
2026-07-22T17:30:40.333,19.8274,-0.4367,0.2955
2026-07-22T17:30:40.360,19.8628,-0.4562,0.2367
2026-07-22T17:30:40.360,19.8628,-0.4367,0.3346
2026-07-22T17:30:40.360,19.8628,-0.3975,0.2563
2026-07-22T17:30:40.376,19.8628,-0.4562,0.1976
2026-07-22T17:30:40.376,19.8782,-0.4367,0.2759
2026-07-22T17:30:40.423,19.9215,-0.3779,0.2367
2026-07-22T17:30:40.423,19.9215,-0.4171,0.2759
2026-07-22T17:30:40.423,19.9215,-0.4562,0.2955
2026-07-22T17:30:40.423,19.9255,-0.4367,0.3151
2026-07-22T17:30:40.438,19.9295,-0.4171,0.2367
2026-07-22T17:30:40.438,19.9319,-0.3779,0.2563
2026-07-22T17:30:40.470,19.9773,-0.4758,0.3151
2026-07-22T17:30:40.470,19.9773,-0.4171,0.2367
2026-07-22T17:30:40.470,19.9813,-0.4367,0.2563
2026-07-22T17:30:40.492,19.9865,-0.4758,0.3151
2026-07-22T17:30:40.492,19.9896,-0.4171,0.3346
2026-07-22T17:30:40.515,20.02,-0.4367,0.178
2026-07-22T17:30:40.532,20.02,-0.3779,0.2563
2026-07-22T17:30:40.532,20.02,-0.4367,0.2367
2026-07-22T17:30:40.536,20.0325,-0.4367,0.2759
2026-07-22T17:30:40.547,20.0357,-0.4758,0.2172
2026-07-22T17:30:40.564,20.0766,-0.4367,0.2367
2026-07-22T17:30:40.564,20.0766,-0.3975,0.2955
2026-07-22T17:30:40.580,20.0805,-0.4367,0.2172
2026-07-22T17:30:40.580,20.0805,-0.4758,0.2563
2026-07-22T17:30:40.596,20.0835,-0.3779,0.2759
2026-07-22T17:30:40.596,20.1279,-0.4367,0.2172
2026-07-22T17:30:40.628,20.1311,-0.4367,0.2759
2026-07-22T17:30:40.628,20.1311,-0.4171,0.2563
2026-07-22T17:30:40.628,20.1311,-0.4367,0.3151
2026-07-22T17:30:40.644,20.1423,-0.4171,0.2367
2026-07-22T17:30:40.650,20.1462,-0.4562,0.2367
2026-07-22T17:30:40.675,20.1892,-0.4171,0.2367
2026-07-22T17:30:40.675,20.1903,-0.3975,0.2955
2026-07-22T17:30:40.675,20.1923,-0.4758,0.2172
2026-07-22T17:30:40.691,20.1971,-0.3975,0.3151
2026-07-22T17:30:40.706,20.1971,-0.4171,0.2563
2026-07-22T17:30:40.723,20.2251,-0.4562,0.2759
2026-07-22T17:30:40.729,20.241,-0.3779,0.2563
2026-07-22T17:30:40.744,20.241,-0.4562,0.2759
2026-07-22T17:30:40.744,20.245,-0.4171,0.2955
2026-07-22T17:30:40.757,20.2469,-0.4562,0.2563
2026-07-22T17:30:40.763,20.2469,-0.4758,0.3346
2026-07-22T17:30:40.770,20.2903,-0.4171,0.2759
2026-07-22T17:30:40.785,20.2903,-0.4562,0.2563
2026-07-22T17:30:40.785,20.2903,-0.3583,0.2955
2026-07-22T17:30:40.807,20.2964,-0.3779,0.2563
2026-07-22T17:30:40.807,20.3364,-0.515,0.2759
2026-07-22T17:30:40.833,20.3405,-0.4171,0.2759
2026-07-22T17:30:40.833,20.3405,-0.4367,0.2172
2026-07-22T17:30:40.833,20.3405,-0.3975,0.2759
2026-07-22T17:30:40.857,20.3469,-0.4171,0.3151
2026-07-22T17:30:40.875,20.3904,-0.4562,0.2563
2026-07-22T17:30:40.875,20.3904,-0.3975,0.2172
2026-07-22T17:30:40.881,20.3956,-0.4758,0.2563
2026-07-22T17:30:40.897,20.3996,-0.4367,0.3151
2026-07-22T17:30:40.912,20.3996,-0.3779,0.2563
2026-07-22T17:30:40.915,20.4389,-0.4367,0.2759
2026-07-22T17:30:40.944,20.4484,-0.3779,0.3346
2026-07-22T17:30:40.944,20.4494,-0.4367,0.2563
2026-07-22T17:30:40.944,20.4494,-0.4758,0.2955
2026-07-22T17:30:40.956,20.4554,-0.3975,0.2955
2026-07-22T17:30:40.960,20.4644,-0.4562,0.2759
2026-07-22T17:30:40.976,20.4954,-0.3975,0.2367
2026-07-22T17:30:40.999,20.4954,-0.4171,0.2759
2026-07-22T17:30:40.999,20.4954,-0.4562,0.2955
2026-07-22T17:30:41.010,20.511,-0.4367,0.2367
2026-07-22T17:30:41.015,20.5205,-0.4758,0.2563
2026-07-22T17:30:41.025,20.5225,-0.3583,0.3151
2026-07-22T17:30:41.055,20.5589,-0.3387,0.178
2026-07-22T17:30:41.055,20.5589,-0.4758,0.2563
2026-07-22T17:30:41.055,20.5646,-0.4171,0.2955
2026-07-22T17:30:41.055,20.5691,-0.4367,0.2367
2026-07-22T17:30:41.071,20.5691,-0.3975,0.2759
2026-07-22T17:30:41.087,20.6066,-0.4171,0.2367
2026-07-22T17:30:41.117,20.6153,-0.4758,0.2172
2026-07-22T17:30:41.117,20.6153,-0.3975,0.2563
2026-07-22T17:30:41.117,20.6153,-0.2213,0.2172
2026-07-22T17:30:41.129,20.6223,-0.4954,0.2759
2026-07-22T17:30:41.136,20.6268,-0.4758,0.2759
2026-07-22T17:30:41.151,20.6649,-0.4954,0.2367
2026-07-22T17:30:41.167,20.6715,-0.4367,0.2759
2026-07-22T17:30:41.167,20.6742,-0.4758,0.2759
2026-07-22T17:30:41.175,20.6802,-0.4367,0.2759
2026-07-22T17:30:41.187,20.6909,-0.4367,0.2759
2026-07-22T17:30:41.201,20.7392,-0.4367,0.2759
2026-07-22T17:30:41.216,20.7392,-0.5346,0.3151
2026-07-22T17:30:41.222,20.7429,-0.4171,0.1976
2026-07-22T17:30:41.225,20.747,-0.4562,0.2759
2026-07-22T17:30:41.240,20.7512,-0.4171,0.2759
2026-07-22T17:30:41.247,20.7512,-0.3387,0.2172
2026-07-22T17:30:41.257,20.7965,-0.3779,0.2563
2026-07-22T17:30:41.291,20.7965,-0.4367,0.2759
2026-07-22T17:30:41.291,20.8063,-0.4954,0.2955
2026-07-22T17:30:41.291,20.8086,-0.3975,0.2759
2026-07-22T17:30:41.297,20.8139,-0.3583,0.2367
2026-07-22T17:30:41.308,20.8179,-0.4758,0.3346
2026-07-22T17:30:41.317,20.8269,-0.4758,0.2367
2026-07-22T17:30:41.352,20.8888,-0.7695,0.0605
2026-07-22T17:30:41.352,20.8902,-0.652,0.0997
2026-07-22T17:30:41.352,20.8917,-0.6129,0.0605
2026-07-22T17:30:41.352,20.8917,-0.7891,-0.0961
2026-07-22T17:30:41.366,20.9065,-0.8283,-0.1745
2026-07-22T17:30:41.385,20.9192,-0.9262,-0.3899
2026-07-22T17:30:41.387,20.9259,-1.0241,-0.6248
2026-07-22T17:30:41.396,20.9326,-1.1611,-0.9381
2026-07-22T17:30:41.430,20.9958,-1.3374,-1.1535
2026-07-22T17:30:41.430,20.9994,-1.4353,-0.4682
2026-07-22T17:30:41.430,20.9994,-1.2786,1.3137
2026-07-22T17:30:41.435,21.0118,-0.8674,3.6438
2026-07-22T17:30:41.445,21.0306,-0.2213,6.855
2026-07-22T17:30:41.467,21.058,0.4445,10.2425
2026-07-22T17:30:41.467,21.0597,1.4039,13.5125
2026-07-22T17:30:41.479,21.0749,2.4221,15.5097
2026-07-22T17:30:41.486,21.0829,3.4012,17.4286
2026-07-22T17:30:41.498,21.0955,4.3802,19.3867
2026-07-22T17:30:41.518,21.1443,5.0851,21.3252
2026-07-22T17:30:41.527,21.1443,5.8292,23.0287
2026-07-22T17:30:41.527,21.1443,6.1425,24.3994
2026-07-22T17:30:41.534,21.1581,6.26,25.4959
2026-07-22T17:30:41.551,21.1711,6.4754,26.5141
2026-07-22T17:30:41.556,21.1711,6.5928,27.2386
2026-07-22T17:30:41.560,21.181,6.6712,27.8652
2026-07-22T17:30:41.572,21.191,6.7103,28.2372
2026-07-22T17:30:41.604,21.1962,6.4754,28.3743
2026-07-22T17:30:41.608,21.1962,6.2012,28.2372
2026-07-22T17:30:41.608,21.2026,5.79,27.9827
2026-07-22T17:30:41.618,21.2046,5.3005,27.7673
2026-07-22T17:30:41.643,21.2046,4.8697,27.2582
2026-07-22T17:30:41.643,21.2046,4.3802,26.6512
2026-07-22T17:30:41.651,21.2193,4.2432,26.3379
2026-07-22T17:30:41.656,21.2319,4.204,26.24
2026-07-22T17:30:41.665,21.2381,4.2432,26.2596
2026-07-22T17:30:41.677,21.2911,4.3998,26.3575
2026-07-22T17:30:41.684,21.3004,4.3606,26.24
2026-07-22T17:30:41.684,21.3004,4.3802,26.1617
2026-07-22T17:30:41.704,21.3144,4.3606,25.9267
2026-07-22T17:30:41.714,21.3236,4.2627,25.7505
2026-07-22T17:30:41.731,21.3289,4.3215,25.5742
2026-07-22T17:30:41.731,21.3289,4.439,25.7113
2026-07-22T17:30:41.751,21.3289,4.811,25.9463
2026-07-22T17:30:41.756,21.3475,5.1634,26.1812
2026-07-22T17:30:41.765,21.356,5.3397,26.5141
2026-07-22T17:30:41.778,21.3637,5.6921,26.984
2026-07-22T17:30:41.792,21.3754,6.0054,27.454
2026-07-22T17:30:41.798,21.3812,6.2991,27.9435
2026-07-22T17:30:41.798,21.3865,6.6124,28.5505
2026-07-22T17:30:41.819,21.434,6.9453,29.2163
2026-07-22T17:30:41.828,21.4394,7.2586,29.882
2026-07-22T17:30:41.828,21.4394,7.3173,30.4303
2026-07-22T17:30:41.851,21.4394,7.4348,31.0568
2026-07-22T17:30:41.861,21.4593,7.5915,31.5659
2026-07-22T17:30:41.861,21.4705,7.6306,32.2709
2026-07-22T17:30:41.884,21.4705,7.8656,32.8974
2026-07-22T17:30:41.889,21.4889,7.9635,33.2891
2026-07-22T17:30:41.889,21.4916,7.9831,33.8177
2026-07-22T17:30:41.908,21.4916,8.1789,34.4052
2026-07-22T17:30:41.916,21.5261,8.1985,34.9534
2026-07-22T17:30:41.924,21.534,8.2572,35.5213
2026-07-22T17:30:41.936,21.5509,8.218,35.9716
2026-07-22T17:30:41.951,21.5616,8.218,36.4024
2026-07-22T17:30:41.951,21.6074,8.5509,37.0681
2026-07-22T17:30:41.967,21.6172,8.9817,37.7926
2026-07-22T17:30:41.984,21.6234,9.2754,38.5171
2026-07-22T17:30:41.984,21.6234,9.3733,39.085
2026-07-22T17:30:42.000,21.6234,9.1775,39.3787
2026-07-22T17:30:42.000,21.6234,9.295,39.7311
2026-07-22T17:30:42.029,21.6396,9.3341,39.9269
2026-07-22T17:30:42.029,21.6396,9.3146,40.1032
2026-07-22T17:30:42.049,21.6396,9.4321,40.3577
2026-07-22T17:30:42.049,21.6541,9.4712,40.436
2026-07-22T17:30:42.062,21.6622,9.4125,40.7297
2026-07-22T17:30:42.080,21.6707,9.4516,41.0235
2026-07-22T17:30:42.080,21.6707,9.4321,41.3955
2026-07-22T17:30:42.086,21.6865,9.4516,41.3563
2026-07-22T17:30:42.094,21.6978,9.4321,41.513
2026-07-22T17:30:42.111,21.7024,9.9412,42.0221
2026-07-22T17:30:42.122,21.7145,10.1761,42.4333
2026-07-22T17:30:42.126,21.7145,10.3132,42.9032
2026-07-22T17:30:42.146,21.7848,10.2936,43.2752
2026-07-22T17:30:42.158,21.7901,10.4698,43.2752
2026-07-22T17:30:42.158,21.7915,10.5677,43.3927
2026-07-22T17:30:42.158,21.7983,10.9202,43.6473
2026-07-22T17:30:42.177,21.7983,11.2335,43.8235
2026-07-22T17:30:42.184,21.8229,11.6055,44.0781
2026-07-22T17:30:42.200,21.8267,11.7426,44.176
2026-07-22T17:30:42.200,21.832,11.5076,44.313
2026-07-22T17:30:42.222,21.8479,11.3901,44.4305
2026-07-22T17:30:42.231,21.8613,11.2531,44.548
2026-07-22T17:30:42.231,21.8613,11.0964,44.9396
2026-07-22T17:30:42.262,21.8633,11.351,45.3312
2026-07-22T17:30:42.262,21.8633,11.6055,45.7424
2026-07-22T17:30:42.271,21.8772,12.0755,46.0753
2026-07-22T17:30:42.275,21.8772,12.1929,46.0949
2026-07-22T17:30:42.288,21.9006,12.0755,46.0949
2026-07-22T17:30:42.306,21.9559,11.9188,46.0949
2026-07-22T17:30:42.306,21.9559,11.6447,46.0557
2026-07-22T17:30:42.324,21.9619,11.5859,46.0165
2026-07-22T17:30:42.327,21.9676,11.7426,46.2907
2026-07-22T17:30:42.345,21.9719,11.8209,46.4669
2026-07-22T17:30:42.345,21.9719,12.1538,46.7998
2026-07-22T17:30:42.358,21.9891,12.2517,46.8977
2026-07-22T17:30:42.382,21.9925,12.33,47.0543
2026-07-22T17:30:42.387,21.9925,12.1342,46.9368
2026-07-22T17:30:42.387,22.0052,11.8601,46.7019
2026-07-22T17:30:42.392,22.0101,11.6838,46.3494
2026-07-22T17:30:42.408,22.0232,11.5859,45.8599
2026-07-22T17:30:42.408,22.0232,11.6055,45.5858
2026-07-22T17:30:42.423,22.0364,11.8796,45.7033
2026-07-22T17:30:42.423,22.0364,12.1146,46.0361
2026-07-22T17:30:42.453,22.0521,12.2713,46.2319
2026-07-22T17:30:42.469,22.0521,12.1734,46.2124
2026-07-22T17:30:42.469,22.0621,11.8992,46.1928
2026-07-22T17:30:42.491,22.099,11.7426,46.1145
2026-07-22T17:30:42.491,22.1159,11.4685,46.1536
2026-07-22T17:30:42.501,22.1177,11.351,46.0557
2026-07-22T17:30:42.501,22.1177,11.3118,45.8403
2026-07-22T17:30:42.516,22.1359,11.2335,45.7424
2026-07-22T17:30:42.528,22.1478,11.2335,45.6445
2026-07-22T17:30:42.532,22.1561,11.1747,45.7033
2026-07-22T17:30:42.549,22.1638,11.2139,45.6837
2026-07-22T17:30:42.553,22.1638,11.1356,45.5662
2026-07-22T17:30:42.565,22.1787,10.9985,45.4095
2026-07-22T17:30:42.582,22.1787,11.0573,45.1746
2026-07-22T17:30:42.583,22.1973,10.9789,44.9396
2026-07-22T17:30:42.596,22.2079,11.1356,44.9983
2026-07-22T17:30:42.612,22.2145,11.0768,44.9788
2026-07-22T17:30:42.622,22.2233,10.9202,44.8417
2026-07-22T17:30:42.627,22.227,10.7244,44.548
2026-07-22T17:30:42.644,22.2818,10.5286,44.3522
2026-07-22T17:30:42.653,22.2839,10.3328,44.3326
2026-07-22T17:30:42.659,22.2891,10.3523,44.313
2026-07-22T17:30:42.678,22.2931,10.2153,44.0585
2026-07-22T17:30:42.678,22.2931,10.137,43.8431
2026-07-22T17:30:42.696,22.2931,10.0195,43.7256
2026-07-22T17:30:42.708,22.3075,9.9216,43.5298
2026-07-22T17:30:42.714,22.3075,9.8824,43.2557
2026-07-22T17:30:42.716,22.3075,9.7062,43.0599
2026-07-22T17:30:42.724,22.3208,9.7258,42.8445
2026-07-22T17:30:42.724,22.3208,9.7845,42.7074
2026-07-22T17:30:42.763,22.3272,9.7062,42.7466
2026-07-22T17:30:42.763,22.3272,9.8237,42.7074
2026-07-22T17:30:42.773,22.3394,9.7649,42.6095
2026-07-22T17:30:42.775,22.3434,9.6279,42.6095
2026-07-22T17:30:42.787,22.3434,9.4908,42.5703
2026-07-22T17:30:42.787,22.3532,9.3537,42.5899
2026-07-22T17:30:42.811,22.3998,9.4712,42.5312
2026-07-22T17:30:42.811,22.3998,9.4516,42.3549
2026-07-22T17:30:42.823,22.3998,9.5104,42.2962
2026-07-22T17:30:42.840,22.3998,9.4125,42.0025
2026-07-22T17:30:42.851,22.4156,9.2558,41.7088
2026-07-22T17:30:42.853,22.4156,9.2754,41.513
2026-07-22T17:30:42.877,22.4324,9.2754,41.3759
2026-07-22T17:30:42.877,22.4359,9.2754,41.3955
2026-07-22T17:30:42.900,22.4501,9.4321,41.4347
2026-07-22T17:30:42.900,22.4501,9.53,41.5913
2026-07-22T17:30:42.904,22.4584,9.7258,41.8067
2026-07-22T17:30:42.913,22.4649,9.8432,42.0025
2026-07-22T17:30:42.928,22.5185,9.667,42.2962
2026-07-22T17:30:42.945,22.5266,9.6866,42.5899
2026-07-22T17:30:42.945,22.5266,9.53,42.3745
2026-07-22T17:30:42.960,22.5427,9.5691,42.5508
2026-07-22T17:30:42.976,22.5427,9.7062,42.5899
2026-07-22T17:30:42.976,22.5427,9.7258,42.5508
2026-07-22T17:30:42.992,22.5583,9.9803,42.6487
2026-07-22T17:30:43.010,22.5647,9.9999,42.727
2026-07-22T17:30:43.010,22.5647,10.3132,43.0599
2026-07-22T17:30:43.019,22.5753,10.5873,43.2948
2026-07-22T17:30:43.025,22.5829,10.5286,43.5298
2026-07-22T17:30:43.025,22.6279,10.4503,43.7256
2026-07-22T17:30:43.055,22.6379,10.2349,43.7256
2026-07-22T17:30:43.073,22.6379,10.137,43.6473
2026-07-22T17:30:43.073,22.6379,10.1174,43.334
2026-07-22T17:30:43.079,22.6379,9.8432,43.0599
2026-07-22T17:30:43.087,22.6567,10.4307,42.9619
2026-07-22T17:30:43.103,22.6653,10.6461,42.864
2026-07-22T17:30:43.118,22.6721,10.8223,42.9228
2026-07-22T17:30:43.118,22.6721,10.9398,43.0207
2026-07-22T17:30:43.135,22.6792,10.6852,42.9424
2026-07-22T17:30:43.135,22.6868,10.4503,42.864
2026-07-22T17:30:43.150,22.6977,10.3132,42.7661
2026-07-22T17:30:43.168,22.7571,10.0978,42.4137
2026-07-22T17:30:43.168,22.7571,10.137,42.2962
2026-07-22T17:30:43.168,22.7571,10.2936,42.3745
2026-07-22T17:30:43.186,22.7677,10.4698,42.5116
2026-07-22T17:30:43.198,22.7677,10.5677,42.5312
2026-07-22T17:30:43.198,22.7732,10.4503,42.5116
2026-07-22T17:30:43.217,22.7732,10.5482,42.3158
2026-07-22T17:30:43.232,22.7855,10.0978,42.0025
2026-07-22T17:30:43.239,22.7941,9.8432,41.8263
2026-07-22T17:30:43.252,22.8083,9.8237,41.7284
2026-07-22T17:30:43.262,22.8196,9.8237,41.6696
2026-07-22T17:30:43.268,22.8683,9.9216,41.6305
2026-07-22T17:30:43.281,22.871,10.0391,41.5913
2026-07-22T17:30:43.288,22.8825,10.0782,41.5913
2026-07-22T17:30:43.302,22.8866,10.1565,41.7675
2026-07-22T17:30:43.317,22.9031,10.0195,41.6892
2026-07-22T17:30:43.317,22.9038,9.9607,41.7479
2026-07-22T17:30:43.328,22.911,9.902,41.6109
2026-07-22T17:30:43.346,22.9157,9.6866,41.4934
2026-07-22T17:30:43.349,22.9175,9.8628,41.4151
2026-07-22T17:30:43.366,22.9334,9.8432,41.278
2026-07-22T17:30:43.367,22.9334,9.7453,41.1409
2026-07-22T17:30:43.380,22.9409,9.8237,40.8864
2026-07-22T17:30:43.389,22.948,9.7453,40.8081
2026-07-22T17:30:43.407,22.9983,9.8041,40.671
2026-07-22T17:30:43.421,23.0058,9.8041,40.5927
2026-07-22T17:30:43.421,23.0063,9.7258,40.7493
2026-07-22T17:30:43.428,23.0144,9.7845,40.4752
2026-07-22T17:30:43.443,23.0298,9.7062,40.299
2026-07-22T17:30:43.462,23.0369,9.6279,40.1227
2026-07-22T17:30:43.462,23.0369,9.5691,39.7899
2026-07-22T17:30:43.473,23.0494,9.3341,39.6136
2026-07-22T17:30:43.476,23.0562,9.3733,39.3591
2026-07-22T17:30:43.494,23.0672,9.3341,39.2808
2026-07-22T17:30:43.499,23.0692,9.3537,39.1437
2026-07-22T17:30:43.510,23.0834,9.2362,38.9479
2026-07-22T17:30:43.530,23.1395,9.0796,38.8696
2026-07-22T17:30:43.541,23.1411,9.0209,38.85
2026-07-22T17:30:43.550,23.1444,8.825,38.7912
2026-07-22T17:30:43.550,23.1444,8.6684,38.6933
2026-07-22T17:30:43.563,23.1575,8.5901,38.4584
2026-07-22T17:30:43.566,23.1691,8.5313,38.2821
2026-07-22T17:30:43.597,23.183,8.6292,38.1842
2026-07-22T17:30:43.597,23.1871,8.5705,38.0276
2026-07-22T17:30:43.597,23.1883,8.4726,37.9493
2026-07-22T17:30:43.616,23.1924,8.453,37.7143
2026-07-22T17:30:43.624,23.1959,8.2964,37.6947
2026-07-22T17:30:43.629,23.2038,8.2572,37.6947
2026-07-22T17:30:43.638,23.2038,8.218,37.5577
2026-07-22T17:30:43.644,23.224,8.218,37.5772
2026-07-22T17:30:43.686,23.2844,8.3355,37.5968
2026-07-22T17:30:43.686,23.2844,8.3159,37.4989
2026-07-22T17:30:43.686,23.2939,8.3159,37.5968
2026-07-22T17:30:43.691,23.3055,8.3943,37.5968
2026-07-22T17:30:43.700,23.3055,8.3747,37.8122
2026-07-22T17:30:43.705,23.3224,8.453,37.8318
2026-07-22T17:30:43.728,23.3264,8.453,37.8514
2026-07-22T17:30:43.729,23.333,8.5901,38.008
2026-07-22T17:30:43.743,23.3371,8.7076,38.243
2026-07-22T17:30:43.743,23.3391,8.7859,38.243
2026-07-22T17:30:43.764,23.3458,8.8838,38.478
2026-07-22T17:30:43.764,23.3458,8.825,38.4388
2026-07-22T17:30:43.780,23.3458,8.7076,38.4584
2026-07-22T17:30:43.793,23.3617,8.6097,38.4388
2026-07-22T17:30:43.798,23.3725,8.5509,38.3801
2026-07-22T17:30:43.814,23.4088,8.6488,38.4388
2026-07-22T17:30:43.829,23.4088,8.7271,38.3605
2026-07-22T17:30:43.835,23.4221,8.7076,38.4975
2026-07-22T17:30:43.835,23.425,8.8642,38.5954
2026-07-22T17:30:43.844,23.425,8.923,38.6346
2026-07-22T17:30:43.864,23.425,8.8642,38.7129
2026-07-22T17:30:43.874,23.4453,8.825,38.6933
2026-07-22T17:30:43.879,23.4504,8.7271,38.6933
2026-07-22T17:30:43.887,23.4523,8.8446,38.7325
2026-07-22T17:30:43.906,23.4608,8.825,38.7129
2026-07-22T17:30:43.906,23.4632,8.923,38.6933
2026-07-22T17:30:43.922,23.479,8.9621,38.7717
2026-07-22T17:30:43.922,23.4902,8.8838,38.8304
2026-07-22T17:30:43.945,23.5429,8.8446,38.7912
2026-07-22T17:30:43.945,23.5429,8.7467,38.6738
2026-07-22T17:30:43.954,23.5596,8.825,38.7129
2026-07-22T17:30:43.954,23.5596,8.8642,38.7717
2026-07-22T17:30:43.982,23.5835,8.8642,38.8304
2026-07-22T17:30:44.003,23.5877,8.9621,38.9675
2026-07-22T17:30:44.003,23.5877,8.9621,39.0654
2026-07-22T17:30:44.007,23.6,8.8446,39.1241
2026-07-22T17:30:44.025,23.608,9.0209,39.2612
2026-07-22T17:30:44.037,23.6156,9.0013,39.3003
2026-07-22T17:30:44.039,23.6176,9.2362,39.3787
2026-07-22T17:30:44.050,23.6332,9.2362,39.3395
2026-07-22T17:30:44.058,23.6373,9.1383,39.4178
2026-07-22T17:30:44.080,23.6957,9.2167,39.5941
2026-07-22T17:30:44.080,23.7025,9.2558,39.6528
2026-07-22T17:30:44.080,23.7025,9.3341,39.9074
2026-07-22T17:30:44.103,23.7076,9.6083,40.1423
2026-07-22T17:30:44.113,23.7154,9.6866,40.3969
2026-07-22T17:30:44.120,23.7231,9.9216,40.5731
2026-07-22T17:30:44.143,23.7271,10.0391,40.6318
2026-07-22T17:30:44.144,23.7271,9.8237,40.7493
2026-07-22T17:30:44.148,23.7391,9.8237,40.5535
2026-07-22T17:30:44.158,23.7428,9.7649,40.3577
2026-07-22T17:30:44.176,23.7428,9.8041,40.2794
2026-07-22T17:30:44.182,23.7518,9.7845,40.2794
2026-07-22T17:30:44.192,23.7538,9.7649,40.2402
2026-07-22T17:30:44.197,23.7589,9.8041,40.0444
2026-07-22T17:30:44.221,23.8065,9.7649,39.9857
2026-07-22T17:30:44.242,23.8146,9.7845,40.1227
2026-07-22T17:30:44.242,23.8146,9.8237,40.2402
2026-07-22T17:30:44.242,23.8146,9.8824,40.4752
2026-07-22T17:30:44.250,23.8229,10.0782,40.7297
2026-07-22T17:30:44.260,23.8312,10.1565,40.8276
2026-07-22T17:30:44.268,23.8388,10.0978,41.0039
2026-07-22T17:30:44.283,23.8444,9.9607,40.9647
2026-07-22T17:30:44.287,23.8444,9.7649,40.7885
2026-07-22T17:30:44.299,23.8585,9.8432,41.0822
2026-07-22T17:30:44.303,23.8627,9.9607,41.278
2026-07-22T17:30:44.322,23.8865,10.1565,41.65
2026-07-22T17:30:44.337,23.93,10.2349,41.8263
2026-07-22T17:30:44.341,23.9314,10.1957,41.9242
2026-07-22T17:30:44.355,23.9366,10.2544,41.9046
2026-07-22T17:30:44.355,23.9427,10.1957,41.7088
2026-07-22T17:30:44.375,23.9479,10.137,41.6305
2026-07-22T17:30:44.375,23.9479,10.4111,41.7871
2026-07-22T17:30:44.391,23.9587,10.5677,41.7675
2026-07-22T17:30:44.391,23.9619,10.7048,41.9633
2026-07-22T17:30:44.405,23.9703,10.9398,42.1004
2026-07-22T17:30:44.423,23.9803,11.0768,42.1004
2026-07-22T17:30:44.423,23.9835,11.2335,42.1396
2026-07-22T17:30:44.441,23.9835,11.3314,42.257
2026-07-22T17:30:44.447,23.9951,11.3118,42.4528
2026-07-22T17:30:44.465,24.0406,11.4489,42.4724
2026-07-22T17:30:44.480,24.0466,11.4293,42.4724
2026-07-22T17:30:44.480,24.0466,11.4685,42.5116
2026-07-22T17:30:44.491,24.0574,11.5468,42.5312
2026-07-22T17:30:44.497,24.0623,11.5468,42.5703
2026-07-22T17:30:44.508,24.0723,11.6447,42.5116
2026-07-22T17:30:44.519,24.0757,11.5076,42.2962
2026-07-22T17:30:44.530,24.0784,11.5076,42.257
2026-07-22T17:30:44.544,24.0784,11.5076,42.4137
2026-07-22T17:30:44.550,24.0784,11.6055,42.7466
2026-07-22T17:30:44.555,24.0961,11.723,42.8053
2026-07-22T17:30:44.586,24.1453,11.6251,42.6682
2026-07-22T17:30:44.586,24.1453,11.5076,42.492
2026-07-22T17:30:44.586,24.1453,11.4685,42.257
2026-07-22T17:30:44.598,24.1624,11.3314,42.1396
2026-07-22T17:30:44.607,24.1739,11.488,42.1396
2026-07-22T17:30:44.622,24.1789,11.5468,42.1004
2026-07-22T17:30:44.632,24.2013,11.488,42.2179
2026-07-22T17:30:44.638,24.2059,11.4685,42.12
2026-07-22T17:30:44.638,24.2153,11.3118,41.9438
2026-07-22T17:30:44.656,24.2206,11.4489,42.0025
2026-07-22T17:30:44.656,24.2713,11.6838,42.0417
2026-07-22T17:30:44.680,24.2713,11.6251,42.0612
2026-07-22T17:30:44.689,24.2837,11.7034,41.9829
2026-07-22T17:30:44.689,24.2837,11.5664,41.6109
2026-07-22T17:30:44.705,24.2994,11.5859,41.4542
2026-07-22T17:30:44.722,24.3104,11.5664,41.1801
2026-07-22T17:30:44.749,24.3184,11.5859,41.0039
2026-07-22T17:30:44.760,24.3233,11.6838,40.9256
2026-07-22T17:30:44.761,24.3233,11.7426,40.9647
2026-07-22T17:30:44.761,24.3233,11.8209,41.1018
2026-07-22T17:30:44.775,24.3321,11.8209,41.1801
2026-07-22T17:30:44.781,24.3466,11.6838,41.1605
2026-07-22T17:30:44.781,24.3505,11.7426,41.0626
2026-07-22T17:30:44.808,24.4252,11.723,40.9647
2026-07-22T17:30:44.808,24.4252,11.8209,41.0039
2026-07-22T17:30:44.828,24.4412,11.958,40.9843
2026-07-22T17:30:44.828,24.4412,11.9776,41.2388
2026-07-22T17:30:44.831,24.4593,11.9971,41.3563
2026-07-22T17:30:44.844,24.4736,11.9384,41.5521
2026-07-22T17:30:44.860,24.4799,11.8601,41.513
2026-07-22T17:30:44.870,24.4858,11.9776,41.5913
2026-07-22T17:30:44.883,24.4883,11.9776,41.6892
2026-07-22T17:30:44.892,24.4955,12.1734,41.8263
2026-07-22T17:30:44.892,24.4955,12.2321,41.9046
2026-07-22T17:30:44.911,24.4955,12.2125,42.1004
2026-07-22T17:30:44.911,24.5039,12.2517,42.0808
2026-07-22T17:30:44.929,24.5203,12.1146,41.885
2026-07-22T17:30:44.954,24.5723,12.0167,41.8067
2026-07-22T17:30:44.971,24.5866,11.9776,41.8067
2026-07-22T17:30:44.971,24.5866,11.9776,41.9633
2026-07-22T17:30:44.971,24.5866,12.1342,42.2375
2026-07-22T17:30:44.982,24.5866,12.2713,42.5703
2026-07-22T17:30:44.985,24.5958,12.4475,42.727
2026-07-22T17:30:45.001,24.6052,12.4083,42.727
2026-07-22T17:30:45.019,24.6148,12.1929,42.7074
2026-07-22T17:30:45.019,24.6148,12.1734,42.8445
2026-07-22T17:30:45.040,24.6148,12.1538,43.1382
2026-07-22T17:30:45.040,24.6148,12.0167,43.2165
2026-07-22T17:30:45.048,24.6309,11.9971,43.2361
2026-07-22T17:30:45.056,24.6309,12.1929,43.1382
2026-07-22T17:30:45.064,24.6486,12.33,43.0403
2026-07-22T17:30:45.080,24.663,12.3496,42.8445
2026-07-22T17:30:45.095,24.7107,12.1929,42.8445
2026-07-22T17:30:45.121,24.7274,12.2125,42.6095
2026-07-22T17:30:45.121,24.7274,12.1342,42.4724
2026-07-22T17:30:45.121,24.7274,12.1929,42.4137
2026-07-22T17:30:45.132,24.7274,12.1538,42.257
2026-07-22T17:30:45.146,24.7423,12.1146,42.1396
2026-07-22T17:30:45.147,24.7463,12.1342,42.2766
2026-07-22T17:30:45.159,24.7675,12.0167,42.2962
2026-07-22T17:30:45.165,24.773,11.9188,42.3745
2026-07-22T17:30:45.175,24.7792,11.8601,42.3745
2026-07-22T17:30:45.191,24.7792,11.7426,42.4137
2026-07-22T17:30:45.209,24.7892,11.7426,42.2962
2026-07-22T17:30:45.209,24.7892,11.5859,41.9438
2026-07-22T17:30:45.209,24.7892,11.4489,41.6892
2026-07-22T17:30:45.223,24.796,11.2922,41.3563
2026-07-22T17:30:45.256,24.837,11.1747,41.043
2026-07-22T17:30:45.256,24.837,11.1943,40.7493
2026-07-22T17:30:45.256,24.837,11.1356,40.6123
2026-07-22T17:30:45.271,24.837,11.0964,40.436
2026-07-22T17:30:45.271,24.837,11.116,40.3577
2026-07-22T17:30:45.288,24.8528,10.9398,40.299
2026-07-22T17:30:45.288,24.8528,10.881,40.2598
2026-07-22T17:30:45.316,24.8528,10.7635,40.1815
2026-07-22T17:30:45.325,24.8755,10.6852,40.2011
2026-07-22T17:30:45.333,24.8772,10.744,40.1227
2026-07-22T17:30:45.339,24.8862,10.6656,39.8682
2026-07-22T17:30:45.339,24.8889,10.6656,39.8094
2026-07-22T17:30:45.356,24.8981,10.7048,39.8094
2026-07-22T17:30:45.381,24.9375,10.6656,39.9269
2026-07-22T17:30:45.381,24.9375,10.744,39.9661
2026-07-22T17:30:45.381,24.9396,10.5873,40.0444
2026-07-22T17:30:45.397,24.9396,10.5286,40.1227
2026-07-22T17:30:45.397,24.9479,10.5677,40.1227
2026-07-22T17:30:45.436,24.9479,10.5482,40.1619
2026-07-22T17:30:45.437,24.9479,10.5482,40.1619
2026-07-22T17:30:45.449,24.9564,10.6265,40.0444
2026-07-22T17:30:45.449,24.9564,10.5873,39.8682
2026-07-22T17:30:45.460,24.9645,10.5677,39.7899
2026-07-22T17:30:45.492,25.0083,10.509,39.6332
2026-07-22T17:30:45.492,25.0083,10.4307,39.5941
2026-07-22T17:30:45.492,25.0193,10.3915,39.5549
2026-07-22T17:30:45.500,25.0238,10.3132,39.6528
2026-07-22T17:30:45.517,25.0238,10.3523,39.6528
2026-07-22T17:30:45.525,25.0358,10.3719,39.5745
2026-07-22T17:30:45.525,25.0358,10.3915,39.6136
2026-07-22T17:30:45.559,25.0812,10.4307,39.5745
2026-07-22T17:30:45.560,25.0918,10.3719,39.6332
2026-07-22T17:30:45.560,25.0918,10.3328,39.6528
2026-07-22T17:30:45.568,25.0962,10.2349,39.6332
2026-07-22T17:30:45.579,25.0962,10.274,39.7115
2026-07-22T17:30:45.584,25.0962,10.3719,39.7703
2026-07-22T17:30:45.603,25.1132,10.2936,39.7899
2026-07-22T17:30:45.612,25.1563,10.3328,39.7507
2026-07-22T17:30:45.620,25.1563,10.3132,39.7703
2026-07-22T17:30:45.636,25.164,10.1174,39.7507
2026-07-22T17:30:45.636,25.164,10.2349,39.692
2026-07-22T17:30:45.641,25.1742,10.0391,39.5941
2026-07-22T17:30:45.656,25.1797,10.0195,39.5549
2026-07-22T17:30:45.668,25.1797,9.9803,39.3199
