-489.2395 -399.9115 -274.53003 -189.8346 -131.52466 -66.06445 17.22107 185.20203 364.96582 461.24268 485.71472 487.22534 587.4298 772.93396 826.6113 713.4155 495.98694 205.64575 5.7403564 -18.73169 47.735596 25.076294 -222.5647 -574.33777 -781.0913 -700.1221 -457.6172 -287.62207 -203.12805 -138.77563 -115.31067 -2.5177002 174.62769 324.5819 328.50952 163.24768 -87.213135 -360.73608 -442.511 -292.15393 -115.008545 -97.283936 -238.57727 -335.9619 -305.95093 -167.77954 -128.40271 -132.83386 -157.50732 -129.00696 -56.09436 -26.385498 -37.261963 -69.992065 -77.645874 -79.559326 -87.31384 -29.910278 76.7395 168.38379 290.94543 426.297 506.46057 528.1128 496.38977 424.48425 350.16174 330.6244 325.48828 302.62756 156.60095 -116.82129 -415.82336 -521.46606 -438.58337 -274.0265 -231.93054 -316.32385 -352.0752 -313.40332 -231.3263 -112.89368 -87.716675 -160.42786 -165.66467 -104.837036 -72.10693 -61.935425 -105.74341 -99.801636 -28.80249 -3.1219482 11.682129 28.903198 -22.860718 -58.914185 1.2084961 34.240723 96.276855 160.22644 100.305176 -0.30212402 -50.253296 15.811157 46.5271 71.30127 90.43579 91.54358 84.99756 105.944824 137.36572 151.66626 167.37671 150.8606 126.38855 185.20203 303.43323 364.05945 280.97534 109.973145 -27.29187 -63.546753 -55.792236 -71.40198 -97.787476 -128.60413 -162.54272 -199.40186 -269.99817 -280.77393 -214.50806 -116.922 -31.219482 -1.6113281 12.789917 55.69153 116.11633 129.10767 152.27051 167.37671 173.72131 226.89514 224.17603 159.92432 29.708862 -28.903198 50.55542 209.87549 344.01855 341.80298 220.047 104.63562 63.848877 57.403564 -15.911865 -23.76709 -23.162842 -101.11084 -223.57178 -247.03674 -225.88806 -243.31055 -235.85815 -212.4939 -205.44434 -221.05408 -280.06897 -327.0996 -312.69836 -292.8589 -202.4231 -55.993652 37.46338 -28.198242 -186.2091 -175.73547 7.4523926 144.7174 252.67639 436.3678 538.4857 549.8657 490.75012 375.23804 317.0288 234.04541 121.25244 34.84497 -92.04712 -351.37024 -527.50854 -466.07666 -266.17126 -100.808716 -42.599487 -29.406738 0.10070801 89.12659 165.16113 272.21375 
-120.64819 -97.88818 -44.41223 12.387085 -4.6325684 -126.89209 -267.37976 -382.99255 -376.95007 -285.3058 -252.8778 -201.01318 -150.45776 -111.08093 23.666382 218.63708 378.86353 417.73682 344.4214 246.4325 181.073 192.25159 158.4137 43.203735 -19.638062 -79.055786 -119.13757 -151.66626 -118.33191 -49.649048 11.178589 31.018066 38.36975 31.018066 51.5625 72.40906 122.561646 114.30359 119.64111 133.13599 118.33191 98.0896 44.815063 8.258057 -33.233643 -75.128174 -68.58215 -24.572754 -27.996826 -75.631714 -159.52148 -217.73071 -223.37036 -227.29797 -217.73071 -249.25232 -325.589 -315.6189 -274.93286 -217.83142 -160.42786 -120.95032 0 167.77954 354.08936 428.31116 422.5708 429.62036 437.4756 424.18213 337.0697 169.39087 100.70801 94.3634 77.34375 47.332764 5.7403564 -69.79065 -62.13684 -44.110107 -0.30212402 77.44446 211.48682 406.3568 415.52124 337.37183 289.3341 258.01392 176.33972 102.52075 13.998413 -175.63477 -401.3214 -626.6052 -766.38794 -837.08496 -892.6758 -841.7175 -774.14246 -743.93005 -636.5753 -340.8966 -50.55542 148.4436 280.2704 361.23962 342.1051 334.75342 368.4906 334.3506 226.59302 116.21704 75.73242 73.31543 106.14624 99.09668 74.12109 28.399658 117.32483 224.67957 306.15234 389.74 393.4662 305.24597 196.1792 102.52075 37.46338 -60.72693 -152.37122 -210.37903 -211.08398 -190.33813 -232.13196 -315.6189 -343.61572 -320.35217 -282.58667 -246.83533 -197.28699 -160.83069 -108.56323 25.881958 10.070801 -219.64417 -317.12952 -247.7417 -175.53406 -56.09436 51.965332 106.448364 146.63086 207.5592 247.13745 283.19092 279.86755 293.96667 318.74084 304.54102 290.84473 157.91016 24.472046 -27.493286 -24.27063 -20.141602 -33.83789 -53.375244 -44.41223 -26.687622 7.8552246 14.904785 -2.1148682 -38.269043 -70.79773 -75.22888 -71.90552 -94.86694 -47.131348 62.338257 141.19263 126.28784 102.11792 104.53491 110.37598 81.170654 37.664795 38.36975 24.27063 1.8127441 -40.283203 5.4382324 50.958252 30.917358 -5.2368164 -44.714355 -68.38074 -60.72693 -58.007812 -68.17932 -57.403564 -107.75757 
3009.0544 3026.3762 3042.7917 3059.8113 3076.4282 3092.743 3108.9568 -2452.7434 618.34717 3112.5823 3097.879 3083.075 3068.573 3053.9702 3039.3677 3025.1677 3011.8743 2998.5808 2984.9854 2971.1882 2957.19 2943.4937 2929.596 2915.2954 2901.599 2887.6006 2874.2065 2861.0137 2847.821 2834.3262 2828.888 2848.7273 2867.7612 2886.392 2904.721 2922.7478 2940.573 2958.197 2975.7202 2992.9412 3010.263 3026.88 3044.2017 3060.5164 3077.133 3093.75 3110.1653 -2205.2031 870.0165 3111.0718 3096.167 3081.5642 3066.8608 3052.2583 3037.555 3023.5564 3010.3638 2997.0703 2983.4746 2969.577 2955.5786 2941.3787 2927.7832 2913.4827 2899.7864 2885.7878 2872.4944 2859.201 2845.9075 2832.4126 2830.4993 2850.1372 2869.1711 2887.802 2906.1309 2924.1577 2941.983 2959.607 2977.1301 2994.351 3011.4714 3028.189 3045.0073 3062.1277 3078.6438 3094.8577 3111.1724 -2207.4187 989.9597 3111.0718 3095.9656 3081.4636 3066.8608 3052.1575 3037.6555 3023.6572 3010.4644 2997.171 2983.5754 2969.6777 2955.6792 2941.983 2927.5818 2913.986 2900.3906 2886.09 2872.5952 2859.3018 2846.0083 2832.2112 2833.5205 2853.1584 2871.991 2890.6218 2908.85 2926.8767 2944.7021 2962.326 2979.7485 2996.9695 3014.1907 3031.4116 3048.4314 3064.6453 3081.1614 3097.7783 3114.395 -1594.7113 1673.2635 3107.849 3092.8435 3078.3416 3063.739 3049.1362 3034.5337 3020.636 3007.443 2994.049 2980.3528 2966.5557 2952.4565 2938.3574 2924.6611 2910.3606 2896.6643 2882.666 2869.4731 2856.2805 2842.987 2829.0894 2833.1177 2852.655 2871.6887 2890.219 2908.4473 2926.3733 2944.4 2961.8225 2979.2449 2996.5667 3013.687 3030.4045 3047.6257 3063.9404 3080.4565 3097.174 3113.4888 -1735.9039 1228.537 3109.9639 3094.052 3080.3557 3065.8538 3051.2512 3036.5479 3022.7507 3009.7595 2996.2646 2982.5684 2968.7712 2954.672 2940.573 2926.2725 2912.7776 2899.1821 2884.8816 2871.3867 2858.0933 2844.7998 2830.7007 2837.7502 2857.1868 2876.1199 2894.5496 2912.7776 2930.7036 2948.4282 2966.1528 2983.4746 3000.7964 
3299.8992 3299.8992 3299.8992 3299.8992 3299.8992 3299.8992 3299.8992 3299.8992 3299.8992 3299.8992 3299.8992 -256.7047 -2575.6072 -2563.5222 -2551.538 -2539.856 -2528.1738 -2516.5923 -2505.1116 -2493.6309 -2482.3516 -604.34875 3299.8992 3299.8992 967.099 -1070.224 -2499.8748 -2488.092 -2016.7786 -2312.155 -2457.1746 -2446.0967 -2435.0188 -2424.1423 -2413.3667 -2402.6917 -2392.0166 -2381.543 -2371.0693 888.44604 3299.8992 3299.8992 3299.8992 3299.8992 3299.8992 3299.8992 3299.8992 3299.8992 3299.8992 3299.8992 3299.8992 -1394.6045 -2567.45 -2555.365 -2543.4814 -2531.7993 -2520.2178 -2508.6365 -2497.2563 -2485.8765 -2474.5972 -425.59204 3299.8992 3299.8992 896.8048 -845.1416 -2494.1345 -2482.3516 -2162.7043 -2461.6057 -2450.4272 -2439.3494 -2428.372 -2417.4956 -2406.8206 -2396.045 -2385.5713 -2374.9968 -2364.624 1804.8889 3299.8992 3299.8992 3299.8992 3299.8992 3299.8992 3299.8992 3299.8992 3299.8992 3299.8992 3299.8992 3299.8992 -1953.6346 -2562.0117 -2550.0273 -2538.1438 -2526.4617 -2514.8804 -2503.2988 -2491.7175 -2480.5388 -2468.6553 190.33813 3299.8992 3299.8992 991.9739 -611.70044 -2209.5337 -2050.9185 -1302.8595 -2399.1667 -2460.498 -2449.118 -2438.1409 -2427.2644 -2416.388 -2405.612 -2395.0378 -2384.5642 -2373.9897 2455.3618 3299.8992 3299.8992 3299.8992 3299.8992 3299.8992 3299.8992 3299.8992 3299.8992 3299.8992 3299.8992 3299.8992 -2460.8 -2569.5647 -2557.5806 -2545.697 -2534.015 -2522.4333 -2510.852 -2499.472 -2488.092 -2476.5105 258.71887 3299.8992 3299.8992 875.95825 -531.43616 -2249.817 -2021.9147 -1113.4277 -2264.1174 -2468.756 -2457.4768 -2446.399 -2435.4216 -2424.4446 -2413.7695 -2402.9937 -2392.3186 -2381.9458 3205.536 3299.8992 3299.8992 3299.8992 3299.8992 3299.8992 3299.8992 3299.8992 3299.8992 3299.8992 3299.8992 3003.6162 -2589.102 -2576.8157 -2564.7307 -2553.0486 -2541.2659 -2529.5837 -2518.103 -2506.6223 -2495.2422 -2363.4155 884.0149 3299.8992 2929.898 247.03674 -839.50195 -2416.388 -2213.0583 -1603.1708 -2480.136 -2468.6553 -2457.376 -2446.399 -2435.4216 -2424.5452 -2413.7695 -2403.0945 -2392.52 -2381.9458 3299.8992 
3191.1345 3176.834 3162.03 3147.3267 3132.321 2561.911 1710.5255 982.80945 272.9187 -228.20435 -376.95007 -227.09656 -438.58337 -593.573 -654.2999 -1162.674 3184.4878 3142.5933 3158.2031 3173.8127 3189.0198 3204.126 3218.93 3233.9355 3248.639 3263.4429 3278.1462 3292.6482 3299.8992 -3279.1533 -794.38477 3299.8992 3299.8992 3292.044 3277.9448 3263.6443 3249.3438 3234.9426 3220.5413 3206.1401 3191.7388 3177.1362 3162.8357 3148.4343 3129.8035 2345.7915 1477.6886 839.9048 102.319336 -275.235 -294.67163 -112.18872 -193.56079 -346.43555 -335.7605 -984.8236 3125.7751 3141.687 3157.3975 3172.8057 3188.1133 3203.3203 3218.527 3233.5327 3248.538 3263.1409 3277.4414 3292.044 3299.8992 -3279.1533 -9.970093 3299.8992 3299.8992 3288.6199 3274.4202 3260.1196 3245.9197 3231.6191 3217.218 3202.8167 3188.4155 3173.9136 3159.2102 3144.406 3123.9624 2160.4888 1199.4324 637.2803 2.8198242 -293.66455 -151.66626 -21.75293 -202.4231 -304.13818 -452.48108 -1161.6669 3127.0842 3143.097 3158.7065 3174.2156 3189.5232 3204.7302 3219.5342 3234.5398 3249.0417 3263.745 3278.7505 3293.1519 -3292.8496 -3278.549 666.5863 3299.8992 3299.8992 3286.4043 3272.2046 3257.8032 3243.704 3229.303 3215.103 3200.9033 3186.4014 3171.698 3157.2966 3142.996 3120.8403 2137.6282 1144.7479 492.16003 -88.42163 -332.33643 -235.45532 -173.72131 -268.28613 -351.16882 -452.48108 -1415.2496 3130.2063 3146.0173 3161.6272 3177.0354 3192.2424 3207.4492 3222.6562 3237.7625 3252.1636 3266.867 3281.7717 3296.2737 -3289.7278 -3275.6287 1207.5897 3299.8992 3299.8992 3287.1094 3272.8088 3258.5083 3244.2078 3229.9072 3215.6067 3201.2053 3186.8042 3172.2014 3157.8003 3143.097 3091.7358 2092.4102 1329.7485 737.68616 221.05408 -122.15881 44.311523 64.151 -121.051025 -151.46484 -329.5166 -1483.2275 3123.3582 3139.27 3154.8796 3170.3887 3185.6963 3200.9033 3215.7073 3230.713 3245.3154 3260.0188 3275.125 3289.5264 3299.8992 -3282.1746 1710.1227 3299.8992 3292.749 3278.65 3264.45 3250.2502 3235.9497 3221.6492 3207.4492 3192.8467 
3299.8992 3299.8992 3299.8992 3299.8992 3299.8992 3299.8992 3299.8992 3299.8992 3299.8992 3299.8992 3048.4314 -3253.6743 -3237.3596 -3221.347 -3205.7373 -3190.2283 -3174.8198 -3159.915 -3144.8088 -3130.005 -3115.3015 -3100.6987 -3086.5996 -3071.997 -3057.6965 -3043.5974 -3029.6997 -3015.802 -3002.1057 -2988.4094 -2544.1863 -877.6703 1196.5118 3051.654 3299.8992 3299.8992 3299.8992 3299.8992 3299.8992 3299.8992 3299.8992 3299.8992 3299.8992 3299.8992 3299.8992 3299.8992 3299.8992 3299.8992 3299.8992 3299.8992 2644.29 -3253.2715 -3237.0574 -3221.045 -3205.435 -3190.0269 -3174.7192 -3159.5122 -3144.6074 -3129.8035 -3115.1 -3100.5981 -3085.8948 -3071.6948 -3057.5957 -3043.4966 -3029.5989 -3015.6006 -3002.005 -2988.3086 -2626.8677 -1076.1658 963.5742 3120.236 3299.8992 3299.8992 3299.8992 3299.8992 3299.8992 3299.8992 3299.8992 3299.8992 3299.8992 3299.8992 3299.8992 3299.8992 3299.8992 3299.8992 3299.8992 3299.8992 1722.3083 -3245.819 -3229.7058 -3213.8945 -3198.285 -3182.9773 -3167.6697 -3152.5635 -3137.6587 -3122.8545 -3108.1511 -3093.75 -3079.1472 -3064.8467 -3050.8484 -3036.7493 -3022.9521 -3009.1553 -2995.459 -2981.8633 -2507.1257 -1055.8228 1103.7598 3205.9387 3299.8992 3299.8992 3299.8992 3299.8992 3299.8992 3299.8992 3299.8992 3299.8992 3299.8992 3299.8992 3299.8992 3299.8992 3299.8992 3299.8992 3299.8992 3299.8992 1371.9452 -3239.0715 -3222.9583 -3207.2478 -3191.6382 -3176.3306 -3161.1235 -3146.1182 -3131.2134 -3116.4092 -3101.9072 -3087.4053 -3073.3062 -3058.905 -3044.705 -3030.606 -3016.7083 -3003.012 -2989.517 -2975.9216 -2249.2126 -600.2197 1477.89 3299.8992 3299.8992 3299.8992 3299.8992 3299.8992 3299.8992 3299.8992 3299.8992 3299.8992 3299.8992 3299.8992 3299.8992 3299.8992 3299.8992 3299.8992 3299.8992 3299.8992 1140.7196 -3238.3667 -3222.354 -3206.543 -3191.034 -3175.6255 -3160.4187 -3145.413 -3130.5083 -3115.805 -3101.1016 -3086.7004 -3072.1985 -3058.2 -3044.1008 -3030.1025 -3016.3054 -3002.5085 -2988.9128 -2975.5188 -1901.8707 -370.20264 1736.1053 3299.8992 3299.8992 3299.8992 3299.8992 3299.8992 3299.8992 3299.8992 
3165.6555 3150.247 3135.3423 3119.8333 2414.1724 861.1542 167.57812 -516.6321 -379.36707 -441.20178 -109.16748 279.0619 379.56848 411.49292 506.15845 309.07288 -910.90393 -3040.8782 3123.6602 3140.3777 3156.8938 3173.3093 3189.0198 3205.3345 3221.1455 3236.6545 3252.5664 3267.874 3283.1816 3298.2878 -916.8457 3299.5972 3284.6924 3269.7876 3254.9834 3239.8772 3224.9724 3210.1685 3195.2637 3180.1575 3165.0513 3149.7437 3134.1338 3119.0276 2233.905 705.1575 80.36499 -477.7588 -333.94775 -307.9651 138.47351 527.3071 611.499 648.8617 723.98987 446.64 -1045.4498 -3111.7766 3118.927 3135.6445 3152.1606 3168.576 3184.2864 3200.702 3216.513 3232.1228 3247.7324 3263.3423 3278.7505 3293.756 -592.5659 3293.051 3278.0457 3263.04 3248.1353 3233.13 3218.3257 3203.421 3188.516 3173.6113 3158.4045 3143.097 3127.588 3109.7625 1860.1776 341.9037 -266.7755 -796.90247 -522.67456 -420.45593 97.48535 460.1349 601.93176 680.98755 828.22266 474.73755 -1180.6 -3130.4077 3121.1426 3137.86 3154.4768 3170.7915 3186.3005 3202.8167 3218.527 3234.3384 3249.7466 3265.2556 3280.8655 3295.8708 -114.90784 3292.1448 3277.1392 3262.3352 3247.3296 3232.2234 3217.52 3202.6152 3187.6099 3172.705 3157.498 3142.2913 3126.48 3107.9497 1629.0527 335.55908 -190.13672 -686.5265 -533.2489 -385.61096 171.90857 562.75635 679.87976 720.6665 754.303 399.40796 -1353.6163 -3233.13 3121.0417 3137.86 3154.3762 3170.691 3187.1062 3202.9175 3218.527 3234.2375 3249.8474 3265.2556 3280.5632 3295.8708 378.05786 3289.0227 3274.0173 3259.1125 3244.107 3229.2021 3214.3982 3199.4934 3184.5886 3169.4824 3154.2754 3139.0686 3123.9624 3104.3242 1717.9779 481.08215 -24.472046 -689.1449 -547.1466 -396.78955 159.42078 506.662 615.2252 693.8782 781.79626 258.81958 -1545.3644 3215.9087 3118.7256 3135.5437 3152.0598 3168.274 3184.5886 3200.5005 3216.211 3231.9214 3247.531 3263.04 3278.3477 -3230.5115 749.06616 3284.2896 3269.4854 3254.5806 3239.6758 3224.771 3209.967 3195.0623 3180.1575 3165.1519 
3299.8992 3299.8992 3299.8992 3299.8992 3299.8992 3299.8992 3299.8992 3299.8992 3299.8992 3299.8992 3004.6233 -61.23047 -2896.6643 -3123.1567 -3108.4534 -3093.9514 -3079.55 -3065.3503 -3051.1504 -3037.152 -3023.355 -3009.558 -2995.8618 -2982.266 -2968.872 -2955.3772 -2942.1843 -2928.9917 -2915.7988 -2902.8076 -2409.137 -1446.6705 -379.6692 654.9042 1827.4475 3299.8992 3299.8992 3299.8992 3299.8992 3299.8992 3299.8992 3299.8992 3299.8992 3299.8992 3299.8992 3299.8992 3299.8992 3299.8992 3299.8992 3299.8992 2758.493 -502.73438 -3137.86 -3122.8545 -3108.1511 -3093.6492 -3079.3486 -3065.048 -3051.0498 -3036.9507 -3023.053 -3009.2559 -2995.6604 -2982.0647 -2968.5698 -2955.1758 -2941.8823 -2928.6895 -2915.5974 -2902.5054 -2498.4648 -1519.986 -467.48657 651.0773 1871.2555 3299.8992 3299.8992 3299.8992 3299.8992 3299.8992 3299.8992 3299.8992 3299.8992 3299.8992 3299.8992 3299.8992 3299.8992 3299.8992 3299.8992 3299.8992 2359.4878 -860.0464 -3133.2275 -3118.4233 -3103.72 -3089.218 -3074.9175 -3060.7178 -3046.6187 -3032.62 -3018.8232 -3005.127 -2991.4307 -2977.9358 -2964.5415 -2951.0466 -2937.9546 -2924.6611 -2911.569 -2898.3765 -2516.995 -1463.5895 -331.8329 804.7577 2046.5881 3299.8992 3299.8992 3299.8992 3299.8992 3299.8992 3299.8992 3299.8992 3299.8992 3299.8992 3299.8992 3299.8992 3299.8992 3299.8992 3299.8992 3299.8992 1966.9281 -1212.9272 -3128.2927 -3113.388 -3098.7854 -3084.2834 -3070.0835 -3055.9844 -3041.6838 -3027.887 -3014.0898 -3000.293 -2986.798 -2973.3032 -2959.909 -2946.515 -2933.322 -2920.1294 -2907.0374 -2894.1467 -2184.0544 -1193.5913 -141.19263 940.20996 2144.174 3299.8992 3299.8992 3299.8992 3299.8992 3299.8992 3299.8992 3299.8992 3299.8992 3299.8992 3299.8992 3299.8992 3299.8992 3299.8992 3299.8992 3299.8992 1725.7324 -1368.219 -3126.8828 -3111.978 -3097.3755 -3082.8735 -3068.573 -3054.4739 -3040.3748 -3026.477 -3012.68 -2998.883 -2985.2874 -2971.7925 -2958.2976 -2945.0042 -2931.912 -2918.7195 -2905.5266 -2892.7368 -1968.7408 -1034.7748 45.41931 1172.644 2343.9788 3299.8992 3299.8992 3299.8992 3299.8992 3299.8992 

-190.43884 -142.40112 -135.15015 -121.25244 -87.81738 -62.036133 -5.9417725 89.12659 199.70398 274.53003 352.98157 395.37964 460.03418 566.78467 626.70593 613.31177 590.9546 536.673 540.9027 479.97437 358.3191 137.86926 -64.956665 -203.83301 -328.2074 -395.17822 -513.208 -606.4636 -653.7964 -655.4077 -561.9507 -377.75574 -254.79126 -167.88025 -122.36023 -66.36658 74.12109 102.11792 56.5979 64.85596 154.48608 208.86841 201.51672 162.64343 115.31067 28.903198 -95.97473 -246.63391 -385.71167 -389.63928 -256.20117 -100.6073 67.77649 216.92505 357.2113 412.3993 426.90125 496.8933 509.98535 491.7572 457.41577 396.286 251.06506 -66.26587 -286.11145 -381.28052 -337.37183 -278.35693 -234.64966 -270.80383 -349.25537 -317.33093 -240.49072 -193.96362 -144.41528 -94.56482 -51.965332 -30.31311 -29.507446 -73.61755 -58.511353 34.84497 82.681274 188.82751 240.2893 156.90308 32.93152 -38.571167 -105.944824 -137.76855 -38.269043 46.92993 
-106.14624 -122.66235 -110.37598 -87.31384 -56.799316 -51.965332 -74.72534 -130.41687 -183.79211 -112.79297 -11.279297 87.716675 104.63562 57.70569 -31.622314 -58.511353 52.06604 181.87866 137.0636 104.53491 173.6206 272.7173 280.87463 295.3766 331.02722 308.36792 249.0509 92.85278 -59.21631 -94.16199 -73.81897 -66.87012 -43.304443 -57.403564 -48.54126 -61.431885 -124.97864 -147.33582 -204.13513 -185.10132 -125.079346 -54.68445 89.52942 167.47742 160.9314 137.36572 116.72058 172.81494 294.3695 350.06104 274.63074 187.92114 94.46411 -5.4382324 -154.98962 -262.24365 -284.0973 -241.59851 -206.55212 -284.50012 -377.2522 -381.0791 -336.76758 -238.17444 -162.84485 -143.3075 -101.51367 -50.354004 6.4453125 65.86304 73.11401 45.620728 45.721436 51.159668 49.850464 64.35242 57.302856 58.71277 31.723022 11.380005 6.2438965 2.0141602 -7.0495605 30.010986 109.57031 172.10999 167.37671 88.52234 76.33667 81.57349 -9.265137 -57.60498 
2880.1482 3105.3313 3090.326 3075.824 3061.1206 3046.5178 3032.1167 3018.521 3005.3284 2991.8335 2977.9358 2964.038 2950.1404 2936.3433 2922.4456 2908.2458 2894.5496 2880.551 2867.459 2854.065 2840.7715 582.5958 2845.5046 2864.74 2883.5723 2901.9011 2920.0286 2937.9546 2955.5786 2973.001 2990.4236 3007.6445 3024.6643 3041.1804 3058.3008 3074.6155 3091.1316 3107.6477 -2991.2292 -88.0188 3113.086 3103.5186 3088.5132 3074.0112 3059.4084 3044.806 3030.4045 3016.9097 3003.6162 2990.2222 2976.2236 2962.326 2948.3276 2934.1277 2919.928 2906.5337 2892.8374 2878.6377 2865.2434 2851.95 2838.6565 -1131.5552 2846.7131 2865.8477 2884.5793 2903.009 2921.1365 2938.9617 2956.5857 2974.008 2991.3298 3008.6516 3025.5706 3042.8923 3059.0056 3076.2268 3092.642 3108.8562 -2886.2915 95.67261 3117.1143 3102.5115 3087.6067 3073.0042 3058.4014 3043.7988 3029.5989 3016.2048 3002.9114 2989.215 2975.5188 2961.5203 
3299.8992 3299.8992 1438.1104 -2572.3845 -2560.199 -2548.3154 -2536.5325 -2524.7498 -2513.269 -2501.7883 -2490.3076 -2479.0283 -1430.658 2637.9456 3299.8992 1640.6342 -1119.873 -1832.5836 -2480.7402 -2117.4866 -1790.7898 -2456.6711 -2445.3918 -2434.314 -2423.4375 -2412.6616 -2401.9866 -2391.3115 -2380.838 -2370.465 -1133.3679 3299.8992 3299.8992 3299.8992 3299.8992 3299.8992 3299.8992 3299.8992 3299.8992 3299.8992 3299.8992 3299.8992 836.4807 -2569.766 -2557.6812 -2545.697 -2534.015 -2522.3328 -2510.6506 -2499.2705 -2487.7898 -2476.6113 -1094.4946 3265.0542 3299.8992 1687.1613 -769.00635 -1852.3224 -2182.846 -1697.7356 -1627.6428 -2462.915 -2451.6357 -2440.5579 -2429.6814 -2418.704 -2408.029 -2397.2534 -2386.7798 -2376.2053 -605.1544 3299.8992 3299.8992 3299.8992 3299.8992 3299.8992 3299.8992 3299.8992 3299.8992 3299.8992 3299.8992 3299.8992 -165.56396 -2572.3845 -2560.199 -2548.2146 -2536.5325 -2524.8503 -2513.3696 -2501.889 -2490.509 -2479.129 
-227.80151 -267.07764 -173.82202 -260.93445 -314.5111 -347.1405 -439.18762 -2175.4944 3128.595 3144.5068 3160.1165 3175.424 3190.7317 3205.9387 3220.7427 3235.3455 3250.4517 3265.2556 3279.4556 3294.159 -3291.339 -2302.9907 3299.8992 3299.8992 3287.21 3273.2117 3258.7097 3244.4092 3230.31 3216.11 3201.8096 3187.4084 3172.9065 3158.4045 3143.7012 3128.897 2732.4097 1905.7983 1265.6982 605.45654 38.067627 -27.996826 43.606567 -108.86536 -323.0713 -585.21423 -995.59937 -2690.6157 3124.5667 3140.4785 3155.9875 3171.3958 3186.7034 3201.8096 3216.9158 3232.022 3246.4233 3261.1267 3276.233 3290.634 3299.8992 -1753.2257 3299.8992 3294.461 3280.4626 3266.2627 3251.9622 3237.9639 3223.6633 3209.6648 3195.1628 3180.661 3166.0583 3151.7578 3137.3564 3122.0488 2290.2007 1299.1333 666.7877 74.62463 -328.3081 -297.29004 -147.1344 -162.94556 -413.9099 -536.57227 -978.1769 -3027.0813 3133.1267 3148.8372 3164.3462 3179.6538 
3299.8992 3299.8992 -1439.8224 -3237.7625 -3221.8506 -3206.0393 -3190.631 -3175.3235 -3160.1165 -3145.2117 -3130.307 -3115.503 -3101.001 -3086.499 -3072.0977 -3057.898 -3043.8994 -3030.0017 -3016.104 -3002.4077 -2988.7114 -2973.3032 -1504.8798 307.46155 2362.4084 3299.8992 3299.8992 3299.8992 3299.8992 3299.8992 3299.8992 3299.8992 3299.8992 3299.8992 3299.8992 3299.8992 3299.8992 3299.8992 3299.8992 3299.8992 3299.8992 3299.8992 -2479.2297 -3234.8418 -3218.8293 -3203.018 -3187.509 -3172.4028 -3157.196 -3142.1904 -3127.3865 -3112.683 -3098.1812 -3083.6792 -3069.0764 -3055.0781 -3041.0796 -3027.0813 -3013.2842 -2999.588 -2986.093 -2902.2034 -1301.8524 646.2433 2631.2988 3299.8992 3299.8992 3299.8992 3299.8992 3299.8992 3299.8992 3299.8992 3299.8992 3299.8992 3299.8992 3299.8992 3299.8992 3299.8992 3299.8992 3299.8992 3299.8992 3291.9434 -2913.2812 -3233.9355 -3218.0237 -3202.3132 -3186.9048 -3171.5972 -3156.491 -3141.5862 -3126.7822 -3112.0789 
-521.8689 -204.63867 346.73767 551.0742 712.40845 741.9159 790.86 -126.690674 -2366.1345 3110.0647 3127.0842 3143.8018 3160.2173 3176.4312 3192.041 3208.3557 3224.0662 3239.5752 3255.1848 3270.6938 3286.1023 -2149.008 2514.1753 3280.7646 3265.8599 3250.8545 3235.9497 3221.045 3206.3416 3191.336 3176.532 3161.325 3146.0173 3130.9111 3115.3015 2754.5654 1010.0006 265.3656 5.5389404 -541.0034 -437.5763 -168.4845 226.99585 401.72424 467.688 659.0332 684.3109 -262.34436 -2488.8977 3106.842 3123.761 3140.579 3156.9946 3173.2085 3188.8184 3205.133 3220.8435 3236.6545 3252.2644 3267.6726 3282.9802 -1810.1257 2853.964 3275.125 3260.1196 3245.2148 3230.31 3215.6067 3200.8025 3185.8977 3170.7915 3155.7861 3140.579 3125.473 3110.266 2560.2996 831.546 83.28552 -186.51123 -736.37695 -426.80054 97.58606 576.1505 767.395 833.963 871.4264 692.569 -473.22693 -2690.213 3100.4973 3117.3157 3134.1338 
3299.8992 3299.8992 892.37366 -1971.1578 -3132.5225 -3117.7185 -3103.1157 -3088.7146 -3074.414 -3060.214 -3046.2158 -3032.318 -3018.3196 -3004.724 -2991.0278 -2977.533 -2964.1387 -2950.8452 -2937.4512 -2924.3591 -2911.267 -2868.2646 -1585.2448 -572.1222 493.26782 1614.2487 3094.052 3299.8992 3299.8992 3299.8992 3299.8992 3299.8992 3299.8992 3299.8992 3299.8992 3299.8992 3299.8992 3299.8992 3299.8992 3299.8992 3299.8992 3299.8992 518.94836 -2406.72 -3134.5366 -3119.8333 -3105.0293 -3090.8293 -3076.5288 -3062.329 -3048.3306 -3034.5337 -3020.636 -3006.8389 -2993.2434 -2979.7485 -2966.3542 -2952.9602 -2939.6667 -2926.4739 -2913.2812 -2843.9941 -1558.0536 -529.2206 525.19226 1691.2903 3210.7727 3299.8992 3299.8992 3299.8992 3299.8992 3299.8992 3299.8992 3299.8992 3299.8992 3299.8992 3299.8992 3299.8992 3299.8992 3299.8992 3299.8992 3114.4958 164.55688 -2793.6401 -3133.8318 -3119.0276 -3104.425 -3090.1245 -3075.7231 -3061.5234 -3047.525 -3033.728 

28.701782 21.954346 181.47583 299.3042 278.86047 181.37512 125.88501 79.660034 7.9559326 -175.43335 -297.59216 -297.995 -337.47253 -379.46777 -420.75806 -400.41504 -376.95007 -300.81482 -190.33813 -145.22095 -136.56006 -129.71191 -91.64429 -35.247803 59.921265 170.09583 287.52136 339.88953 315.01465 271.6095 251.77002 247.03674 219.14062 202.62451 228.10364 238.27515 236.3617 266.97693 327.60315 315.7196 298.39783 269.2932 207.96204 121.9574 1.2084961 -114.4043 -131.12183 13.293457 148.94714 204.84009 257.7118 292.8589 313.3026 283.49304 111.18164 -159.92432 -378.5614 -475.5432 -585.61707 -611.3983 -495.28198 -428.9154 -460.53772 -493.26782 -466.88232 -398.703 -298.49854 -244.92188 -241.09497 -210.0769 -130.31616 -22.860718 58.511353 93.85986 139.37988 251.77002 424.68567 706.7688 1009.8999 1172.5433 1229.5441 1148.6755 1028.7323 840.0055 513.91296 -13.092041 -555.6061 -971.53015 -1033.2642 -851.6876 -685.1166 -677.26135 -660.74524 -607.5714 -527.60925 -390.34424 -261.33728 -219.24133 -207.5592 -231.3263 -209.17053 -140.48767 -65.66162 4.7332764 97.68677 127.39563 132.22961 100.00305 91.8457 66.970825 95.773315 161.93848 184.09424 120.24536 53.475952 18.328857 -28.500366 -15.408325 58.71277 129.30908 125.98572 44.91577 25.378418 42.90161 79.2572 108.462524 68.07861 -22.357178 -53.57666 -23.76709 133.94165 244.0155 218.53638 122.46094 128.80554 182.68433 285.70862 258.11462 125.98572 -0.10070801 -119.540405 -238.9801 -367.1814 -449.35913 -395.48035 -299.2035 -185.50415 -109.67102 -15.609741 74.62463 79.96216 66.467285 73.11401 143.00537 352.1759 441.00037 328.1067 190.64026 141.29333 111.8866 104.53491 50.454712 -52.468872 -182.48291 -239.38293 -181.27441 -11.279297 111.8866 29.205322 -68.58215 -55.69153 -10.070801 8.963013 -24.069214 -148.4436 -226.2909 -189.23035 -142.30042 -78.85437 20.645142 57.20215 -4.0283203 -131.12183 -275.235 -310.38208 -196.58203 -51.763916 102.319336 120.14465 80.86853 33.535767 27.593994 46.829224 84.99756 151.96838 213.40027 207.25708 222.5647 172.81494 131.02112 
-45.92285 -43.304443 -101.01013 -101.71509 -77.948 -7.9559326 26.385498 94.262695 165.06042 196.48132 93.65845 31.82373 25.076294 20.443726 51.159668 78.048706 68.07861 63.345337 47.232056 39.47754 37.161255 53.17383 72.30835 79.156494 49.649048 13.595581 -10.675049 -28.903198 -35.549927 -21.24939 38.168335 59.21631 46.627808 24.975586 -7.1502686 -28.399658 46.124268 72.30835 18.127441 -26.989746 -58.813477 -88.62305 -143.60962 -159.11865 -173.21777 -169.693 -119.74182 -106.951904 -124.575806 -124.97864 -192.3523 -225.38452 -220.55054 -181.77795 -173.6206 -192.85583 -234.64966 -204.43726 -122.86377 -85.40039 -27.694702 84.2926 171.60645 180.87158 158.71582 179.46167 248.04382 278.45764 289.63623 244.0155 130.41687 -34.643555 -149.7528 -141.69617 -63.74817 -15.307617 80.96924 115.81421 134.74731 153.68042 150.35706 186.61194 190.84167 225.28381 285.20508 391.75415 429.31824 331.32935 216.2201 138.3728 27.79541 12.286377 5.9417725 -32.125854 -95.5719 -149.45068 -333.04138 -528.2135 -521.6675 -356.20422 -277.04773 -299.70703 -245.12329 -212.29248 -226.08948 -154.6875 -70.09277 -0.40283203 -26.687622 11.984253 37.46338 35.549927 133.13599 204.43726 112.994385 53.878784 131.72607 158.11157 130.31616 146.93298 152.77405 169.49158 159.52148 180.77087 173.31848 111.28235 55.18799 66.36658 127.79846 140.58838 74.020386 58.309937 45.52002 -17.523193 -39.47754 -64.65454 -190.33813 -278.86047 -299.00208 -230.1178 -173.01636 -139.682 -97.08252 -114.80713 -108.26111 -62.64038 -31.018066 11.380005 -18.933105 -82.681274 -103.22571 -122.86377 -130.11475 -121.15173 -91.94641 -67.67578 29.104614 71.60339 60.525513 29.003906 9.768677 17.623901 42.599487 108.05969 170.70007 190.53955 145.9259 77.545166 54.58374 63.14392 60.424805 54.58374 22.457886 -25.479126 -55.59082 -46.124268 -88.220215 -112.28943 -119.540405 -89.328 -43.00232 -7.2509766 9.970093 15.106201 9.567261 -5.3375244 14.099121 13.897705 18.22815 55.792236 82.88269 104.937744 76.23596 29.608154 -20.846558 -21.551514 75.4303 116.72058 87.41455 36.758423 
2947.4211 2933.8257 2919.928 2905.728 2892.1326 2878.134 2864.9414 2851.7485 2838.3545 -2765.341 2849.231 2868.3655 2886.8958 2905.2246 2923.4526 2941.1772 2958.8013 2976.425 2993.7468 3010.8672 3027.887 3044.403 3061.5234 3077.6367 3094.2534 3110.669 -2638.9526 525.8972 3115.6035 3100.7996 3086.1968 3071.4934 3056.8909 3042.288 3028.0884 3014.694 3001.5015 2987.9058 2974.008 2960.0098 2946.0112 2931.8115 2918.2158 2904.016 2890.3198 2876.5227 2863.33 2850.0366 2836.6423 2830.4993 2850.238 2869.3726 2888.0034 2906.3323 2924.3591 2942.2852 2959.8083 2977.3315 2994.6533 3011.7737 3028.7932 3045.4102 3061.8254 3078.9458 3095.462 3111.3738 -2348.8127 807.4768 3113.1865 3098.4832 3083.6792 3069.1772 3054.5745 3039.871 3025.772 3012.4785 2999.0845 2985.5896 2971.692 2957.6934 2943.7957 2929.9988 2915.6982 2902.2034 2888.7085 2874.5085 2861.0137 2847.821 2834.4268 2831.607 2851.3457 2870.2788 2888.809 2907.2388 2925.2654 2943.0908 2960.614 2978.0364 2995.459 3012.68 3029.4983 3046.6187 3063.4368 3079.651 3096.167 3112.5823 -2239.2424 888.8489 3113.2874 3098.3826 3083.6792 3069.2778 3054.5745 3040.0725 3026.0742 3012.7808 2999.4873 2985.8916 2971.994 2957.9956 2943.8965 2929.7974 2916.101 2902.002 2888.4062 2874.5085 2861.4165 2848.123 2834.5276 2834.729 2854.367 2873.3 2891.9312 2910.26 2928.186 2946.0112 2963.5344 2981.0576 2998.2788 3015.3992 3032.318 3048.9348 3065.451 3082.4707 3098.9868 3114.9993 -1888.4766 1202.7557 3112.2803 3097.476 3082.672 3068.2708 3053.6682 3039.0654 3025.0671 3011.8743 2998.4802 2984.8845 2970.8862 2956.8877 2942.8894 2929.2937 2914.8926 2901.4983 2887.9028 2873.703 2860.3088 2847.2168 2833.319 2836.441 2855.8777 2874.9114 2893.341 2911.569 2929.596 2947.4211 2964.9443 2982.367 2999.588 3016.7083 3033.6272 3050.949 3066.9617 3083.9812 3100.296 3116.51 -1751.2115 1493.1976 3111.676 3096.7712 3082.0679 3067.6665 3052.9631 3038.3606 3024.463 3011.4714 2997.7751 2984.1797 2970.282 2956.2834 
-1130.1453 3286.6057 3299.8992 1144.6472 -1200.1373 -2492.1204 -2290.503 -1796.3287 -1863.4003 -2455.0598 -2443.881 -2432.904 -2422.0276 -2411.1511 -2400.5767 -2389.9016 -2379.428 -2369.0552 223.7732 3299.8992 3299.8992 3299.8992 3299.8992 3299.8992 3299.8992 3299.8992 3299.8992 3299.8992 3299.8992 3299.8992 -293.36243 -2568.5576 -2556.372 -2544.589 -2532.8064 -2521.2249 -2509.5427 -2498.1628 -2486.7827 -2475.5034 -643.22205 3299.8992 3299.8992 1478.595 -691.5619 -2071.3623 -1749.7009 -1205.9784 -1321.7926 -2468.4539 -2457.074 -2445.8953 -2434.9182 -2424.0417 -2413.1653 -2402.4902 -2391.9158 -2381.4421 766.28723 3299.8992 3299.8992 3299.8992 3299.8992 3299.8992 3299.8992 3299.8992 3299.8992 3299.8992 3299.8992 3299.8992 -1055.4199 -2577.42 -2565.4358 -2553.5522 -2541.6687 -2530.0872 -2518.5059 -2507.0251 -2495.645 -2484.3657 -542.51404 3299.8992 3299.8992 782.6019 -888.74817 -2501.889 -2391.4124 -1836.9141 -2371.3713 -2460.901 -2449.7222 -2438.745 -2427.7678 -2416.8914 -2406.2163 -2395.5413 -2385.0676 -2374.594 1734.0912 3299.8992 3299.8992 3299.8992 3299.8992 3299.8992 3299.8992 3299.8992 3299.8992 3299.8992 3299.8992 3299.8992 -1981.0272 -2570.5718 -2558.4868 -2546.6033 -2534.9211 -2523.3398 -2511.7583 -2500.2776 -2488.8977 -2477.6184 -62.74109 3299.8992 3299.8992 1278.3875 -100.00305 -1931.9824 -1717.4744 -1133.67 -2121.7163 -2475.8057 -2464.325 -2453.1462 -2442.1692 -2431.0913 -2420.2148 -2409.439 -2398.764 -2388.2903 1894.7205 3299.8992 3299.8992 3299.8992 3299.8992 3299.8992 3299.8992 3299.8992 3299.8992 3299.8992 3299.8992 3299.8992 -2272.174 -2581.6497 -2569.5647 -2557.782 -2545.999 -2534.4177 -2522.8362 -2511.4563 -2499.9756 -2466.8425 303.83606 3299.8992 3299.8992 645.2362 -751.48315 -2513.571 -2377.2124 -1992.4072 -2481.546 -2470.166 -2458.8867 -2447.8088 -2436.8315 -2425.955 -2415.1794 -2404.5044 -2393.93 -2383.3557 3030.7068 3299.8992 3299.8992 3299.8992 3299.8992 3299.8992 3299.8992 3299.8992 3299.8992 3299.8992 3299.8992 3219.635 -2591.0156 -2578.8298 -2566.7449 -2554.9622 -2543.28 -2531.598 -2519.9158 -2508.5356 -2497.1558 -2427.9692 
3194.9614 3209.967 3224.771 3239.6758 3254.5806 3269.0825 3283.383 3297.9858 -3287.4114 -1281.0059 3299.8992 3299.8992 3286.0015 3271.701 3257.5012 3243.2007 3229.0007 3214.7002 3200.3997 3185.8977 3171.4966 3156.8938 3142.1904 3125.8757 2457.8796 1657.7545 836.5814 145.8252 -403.43628 -282.08313 -154.78821 -191.2445 -382.3883 -528.0121 -1035.379 -3208.6577 3135.2417 3150.9521 3166.4612 3181.7688 3197.0764 3212.0818 3227.188 3242.1936 3256.5947 3271.1975 3286.1023 3299.8992 -3285.5986 -726.9104 3299.8992 3299.5972 3285.3972 3271.1975 3256.9976 3242.697 3228.3965 3214.096 3199.7954 3185.5957 3170.7915 3156.2896 3141.989 3124.1638 2470.6694 1617.1692 840.0055 105.23987 -415.1184 -225.58594 -187.92114 -373.72742 -570.20874 -642.01355 -1222.4945 3123.4587 3139.27 3154.8796 3170.3887 3185.6963 3200.9033 3215.9087 3231.1157 3245.7183 3260.8245 3275.4272 3289.4255 3299.8992 -3281.4697 -12.689209 3299.8992 3299.8992 3286.4043 3271.9023 3257.6018 3243.5027 3229.2021 3215.0024 3200.601 3186.2 3171.5972 3157.0952 3142.2913 3121.8474 2251.9316 1425.5219 765.07874 169.29016 -157.40662 181.97937 288.83057 95.37048 -208.36487 -326.19324 -990.46326 3115.2007 3131.2134 3146.9238 3162.4329 3177.841 3193.048 3208.1543 3223.361 3238.3667 3252.8687 3267.4712 3282.376 3296.7773 -3289.224 497.9004 3299.8992 3290.7349 3276.4343 3262.3352 3248.0347 3233.8347 3219.635 3205.435 3191.034 3176.532 3162.1306 3147.6287 3133.1267 3062.1277 1956.253 1097.5159 503.2379 -109.469604 -446.5393 -63.848877 -81.170654 -242.20276 -496.18835 -632.9498 -1371.5424 3122.653 3138.565 3154.2754 3169.6838 3184.9915 3200.1982 3215.3044 3230.1086 3244.7112 3259.8174 3274.3193 3288.5193 3299.8992 -3282.4768 1101.8463 3299.8992 3294.7632 3280.5632 3266.464 3252.1636 3237.9639 3223.764 3209.1614 3194.8608 3180.661 3166.159 3151.657 3136.7522 3054.9773 2038.9343 1192.987 647.6532 187.71973 -210.37903 169.693 55.993652 -89.12659 -239.58435 -411.1908 -1460.0647 3118.4233 3134.436 3150.0457 3165.5547 3180.9631 
-3097.476 -3083.075 -3068.9758 -3054.5745 -3040.274 -3026.2756 -3012.4785 -2998.6816 -2985.4888 -2589.102 -884.92126 1189.8651 3017.111 3299.8992 3299.8992 3299.8992 3299.8992 3299.8992 3299.8992 3299.8992 3299.8992 3299.8992 3299.8992 3299.8992 3299.8992 3299.8992 3299.8992 3299.8992 3299.8992 3147.3267 -3253.5735 -3237.3596 -3221.347 -3205.7373 -3190.3289 -3174.9207 -3159.8145 -3144.8088 -3130.005 -3115.402 -3100.7996 -3086.2976 -3072.299 -3057.898 -3043.5974 -3029.6997 -3015.802 -3002.005 -2988.51 -2434.8174 -861.1542 1120.9808 3284.1887 3299.8992 3299.8992 3299.8992 3299.8992 3299.8992 3299.8992 3299.8992 3299.8992 3299.8992 3299.8992 3299.8992 3299.8992 3299.8992 3299.8992 3299.8992 3299.8992 2689.2058 -3254.0771 -3237.7625 -3221.8506 -3206.2407 -3190.7317 -3175.525 -3160.3179 -3145.3125 -3130.6091 -3115.805 -3101.303 -3086.801 -3072.9033 -3058.3008 -3044.1008 -3030.2031 -3016.3054 -3002.6091 -2989.1143 -2400.476 -1007.3822 1042.0258 3064.2424 3299.8992 3299.8992 3299.8992 3299.8992 3299.8992 3299.8992 3299.8992 3299.8992 3299.8992 3299.8992 3299.8992 3299.8992 3299.8992 3299.8992 3299.8992 3299.8992 2082.6416 -3249.4446 -3233.13 -3217.4194 -3201.709 -3186.3005 -3170.993 -3155.9875 -3140.982 -3126.2786 -3111.5752 -3097.0732 -3082.5713 -3068.1702 -3054.071 -3039.972 -3026.1748 -3012.1765 -2998.5808 -2984.9854 -2497.1558 -1230.954 892.47437 3106.842 3299.8992 3299.8992 3299.8992 3299.8992 3299.8992 3299.8992 3299.8992 3299.8992 3299.8992 3299.8992 3299.8992 3299.8992 3299.8992 3299.8992 3299.8992 3299.8992 1576.6846 -3240.985 -3224.8718 -3209.0605 -3193.5515 -3178.1433 -3163.037 -3147.931 -3133.0261 -3118.3228 -3103.6194 -3089.218 -3074.817 -3060.7178 -3046.3164 -3032.2173 -3018.3196 -3004.6233 -2991.0278 -2977.533 -2027.3529 -602.83813 1445.7642 3299.8992 3299.8992 3299.8992 3299.8992 3299.8992 3299.8992 3299.8992 3299.8992 3299.8992 3299.8992 3299.8992 3299.8992 3299.8992 3299.8992 3299.8992 3299.8992 3299.8992 1458.4534 -3241.1865 -3224.9724 -3209.262 -3193.753 -3178.244 -3163.1377 -3148.0315 -3133.1267 -3118.4233 -3103.8208 
3150.5493 3166.7632 3183.1787 3198.9897 3214.7002 3230.31 3245.9197 3261.4287 3276.8372 -1493.4998 3092.34 3266.9678 3252.063 3237.1582 3222.354 3207.55 3192.7458 3178.0425 3163.037 3147.7295 3132.6233 3117.517 3102.31 2361.099 789.5508 217.12646 -87.51526 -622.97974 -417.73682 -22.76001 254.89197 302.82898 343.515 502.63367 341.80298 -859.14 -2952.658 3105.13 3121.8474 3138.565 3154.8796 3171.0938 3187.509 3203.2195 3218.93 3234.5398 3250.1494 3265.457 3280.7646 -966.7969 3282.376 3267.4712 3252.6672 3237.6616 3222.8577 3207.953 3193.1487 3178.5461 3163.5405 3148.4343 3133.1267 3118.0205 3102.8137 2210.6414 753.2959 122.96448 -287.52136 -714.92615 -365.36865 199.70398 497.19543 546.34094 539.99634 572.525 267.984 -1045.3491 -3125.5737 3105.7341 3122.653 3139.3706 3155.5847 3171.8994 3188.214 3203.9246 3219.635 3235.2446 3250.7537 3266.2627 3281.4697 -507.76978 3280.0598 3265.2556 3250.3508 3235.446 3220.642 3205.838 3191.034 3176.2297 3161.1235 3146.0173 3130.9111 3115.7043 3097.6775 1925.3357 497.49756 -102.62146 -325.48828 -821.3745 -467.08374 165.16113 470.91064 526.9043 583.8043 679.3762 405.0476 -1177.8809 -3221.347 3108.3525 3125.07 3141.5862 3158.0017 3174.417 3190.0269 3206.2407 3222.052 3237.561 3253.07 3268.579 3283.8867 23.062134 3278.952 3264.148 3249.3438 3234.439 3219.5342 3204.7302 3189.926 3175.2227 3160.1165 3144.9097 3129.8035 3114.6973 3095.16 1700.2533 337.57324 -176.0376 -400.31433 -961.8622 -615.42664 62.942505 442.91382 618.24646 728.62244 841.81824 471.81702 -1233.8745 -3106.5398 3109.4604 3126.2786 3142.7947 3159.1094 3175.525 3191.034 3207.2478 3222.9583 3238.568 3254.0771 3269.5862 3284.8938 141.39404 3279.3547 3264.3494 3249.5452 3234.8418 3219.8364 3205.0322 3190.3289 3175.525 3160.4187 3145.2117 3130.2063 3114.9993 3094.8577 1619.989 336.16333 -132.63245 -367.98706 -827.01416 -413.30566 263.04932 652.9907 834.8694 862.5641 923.0896 390.24353 -1385.7422 -3141.3848 3105.7341 3122.5525 3139.0686 
-3019.931 -3006.134 -2992.7397 -2979.1443 -2965.6494 -2952.356 -2939.163 -2925.9705 -2912.8784 -2668.3594 -1369.3268 -233.54187 591.9617 1715.0574 3196.4722 3299.8992 3299.8992 3299.8992 3299.8992 3299.8992 3299.8992 3299.8992 3299.8992 3299.8992 3299.8992 3299.8992 3299.8992 3299.8992 3299.8992 2956.6863 -110.476685 -2980.7556 -3133.9324 -3119.229 -3104.727 -3090.225 -3076.0254 -3061.7249 -3047.7263 -3033.9294 -3020.1323 -3006.436 -2992.9412 -2979.3457 -2965.8508 -2952.658 -2939.163 -2926.1719 -2913.1804 -2793.6401 -1688.8733 -634.964 428.61328 1631.6711 3299.8992 3299.8992 3299.8992 3299.8992 3299.8992 3299.8992 3299.8992 3299.8992 3299.8992 3299.8992 3299.8992 3299.8992 3299.8992 3299.8992 3299.8992 2544.992 -628.41797 -3140.1763 -3125.07 -3110.4675 -3095.8647 -3081.4636 -3067.2637 -3053.2654 -3039.1663 -3025.47 -3011.5723 -2997.9766 -2984.381 -2970.9868 -2957.5928 -2944.1985 -2931.0059 -2917.9138 -2904.8218 -2454.959 -1241.1255 -212.89673 791.2628 1941.8518 3299.8992 3299.8992 3299.8992 3299.8992 3299.8992 3299.8992 3299.8992 3299.8992 3299.8992 3299.8992 3299.8992 3299.8992 3299.8992 3299.8992 3299.8992 2215.1733 -841.4154 -3138.565 -3123.4587 -3108.7554 -3094.2534 -3079.953 -3065.6523 -3051.654 -3037.7563 -3023.7578 -3010.0615 -2996.3652 -2982.8704 -2969.4763 -2955.9814 -2942.5872 -2929.495 -2916.3025 -2903.4119 -2492.6238 -1208.2947 -39.98108 1108.0902 2272.879 3299.8992 3299.8992 3299.8992 3299.8992 3299.8992 3299.8992 3299.8992 3299.8992 3299.8992 3299.8992 3299.8992 3299.8992 3299.8992 3299.8992 3299.8992 1980.5237 -1015.74097 -3139.1692 -3124.063 -3109.3596 -3094.8577 -3080.658 -3066.2566 -3052.1575 -3038.3606 -3024.463 -3010.6658 -2996.9695 -2983.4746 -2970.0806 -2956.6863 -2943.4937 -2930.2002 -2917.0073 -2904.016 -2266.4336 -1131.0516 -84.695435 1058.7433 2277.6123 3299.8992 3299.8992 3299.8992 3299.8992 3299.8992 3299.8992 3299.8992 3299.8992 3299.8992 3299.8992 3299.8992 3299.8992 3299.8992 3299.8992 3299.8992 1761.9873 -1370.8374 -3137.6587 -3122.754 -3108.252 -3093.75 -3079.3486 -3065.149 -3051.0498 -3037.152 -3023.2544 

168.18237 277.04773 336.969 288.52844 180.56946 47.53418 -99.90234 -168.78662 -210.0769 -307.9651 -361.44104 -314.00757 -280.77393 -235.45532 -134.04236 -14.703369 17.321777 -63.949585 -140.38696 -157.00378 -140.7898 -153.479 -201.81885 -210.37903 -145.12024 -97.88818 -73.71826 -25.579834 45.620728 77.34375 50.253296 55.18799 106.75049 190.74097 278.65906 324.17908 329.91943 336.36475 351.47095 360.03113 348.5504 320.25146 245.82825 99.70093 36.35559 132.1289 206.95496 140.68909 25.177002 -15.509033 -34.542847 -130.51758 -185.50415 -196.1792 -164.7583 -202.32239 -204.53796 -227.49939 -162.44202 -137.26501 -289.2334 -433.04443 -437.677 -270.401 -101.01013 -13.998413 12.387085 42.90161 73.41614 96.07544 135.25085 175.43335 170.70007 29.205322 -211.78894 -365.16724 -431.3324 -361.13892 -237.06665 -146.93298 -74.92676 -14.300537 70.69702 84.99756 52.468872 22.558594 9.869385 13.494873 -7.9559326 7.6538086 29.608154 52.972412 72.30835 71.502686 59.71985 60.22339 103.829956 167.276 237.57019 225.0824 172.10999 146.22803 126.28784 166.26892 214.40735 222.36328 249.95728 248.9502 179.66309 63.64746 -1.8127441 71.80481 126.79138 133.13599 107.15332 20.544434 -23.464966 42.90161 86.10535 70.495605 78.95508 120.84961 89.83154 -15.911865 -148.84644 -207.05566 -195.07141 -163.65051 -235.1532 -210.37903 -140.8905 -155.19104 -150.8606 -151.26343 -195.57495 -198.7976 -164.85901 -132.1289 -39.47754 45.01648 62.539673 -18.933105 -124.4751 -108.05969 -13.293457 101.51367 179.66309 234.04541 283.0902 225.68665 101.815796 48.138428 7.6538086 -35.34851 17.623901 51.663208 -25.982666 -109.26819 -96.37756 56.19507 347.94617 592.0624 605.8594 454.59595 333.1421 306.65588 204.84009 7.6538086 -183.6914 -276.44348 -395.37964 -501.7273 -650.5737 -665.5792 -515.22217 -297.59216 -199.60327 -168.78662 -77.041626 -62.64038 -89.83154 -59.317017 -54.68445 -43.103027 -44.41223 -52.06604 -43.50586 13.998413 55.59082 51.5625 59.317017 84.89685 99.801636 139.88342 192.65442 155.896 35.95276 -59.820557 -117.62695 -201.71814 
-7.2509766 -67.37366 -112.89368 -101.916504 -62.841797 -20.947266 18.328857 28.29895 109.973145 142.50183 83.38623 11.077881 -62.539673 -123.77014 -164.95972 -206.95496 -275.73853 -237.97302 -176.33972 -153.07617 -162.84485 -135.25085 -74.523926 -73.516846 -40.38391 36.35559 101.312256 129.71191 138.67493 174.02344 216.42151 128.60413 -96.07544 -262.8479 -282.08313 -194.66858 7.1502686 201.2146 245.12329 332.53784 399.40796 380.47485 303.43323 102.923584 -103.930664 -204.33655 -216.2201 -175.73547 -79.35791 61.6333 134.84802 137.66785 184.09424 152.87476 51.864624 71.80481 39.88037 -41.89453 -134.5459 -179.96521 -181.57654 -151.26343 -115.7135 -142.50183 -120.24536 -87.11243 -49.54834 3.4240723 31.723022 20.846558 -0.10070801 -12.084961 -23.062134 -0.50354004 18.530273 69.488525 148.3429 160.02502 136.56006 124.17297 106.34766 58.410645 73.91968 120.043945 134.24377 105.03845 55.69153 15.106201 14.703369 -46.627808 -130.41687 -180.77087 -200.10681 -182.88574 -160.9314 -148.94714 -164.35547 -151.86768 -142.1997 -53.57666 57.10144 107.65686 143.71033 104.63562 48.239136 48.742676 95.37048 107.05261 69.992065 31.723022 23.364258 43.103027 64.956665 106.24695 165.36255 221.85974 266.6748 224.88098 122.058105 6.7474365 6.7474365 6.7474365 6.7474365 6.7474365 6.7474365 6.7474365 6.7474365 6.7474365 6.7474365 6.7474365 6.7474365 6.7474365 6.7474365 6.7474365 6.7474365 6.7474365 6.7474365 6.7474365 6.7474365 6.7474365 78.95508 72.30835 11.279297 -66.467285 -111.18164 -140.28625 -176.74255 -205.74646 -196.58203 -130.31616 -69.79065 -25.177002 -5.5389404 -13.595581 -28.903198 -55.389404 -77.948 -138.07068 -175.13123 -217.83142 -308.87146 -402.22778 -346.63696 -180.16663 25.579834 214.10522 343.61572 432.94373 521.06323 501.52588 461.04126 329.3152 241.3971 188.6261 98.89526 18.933105 -71.7041 -155.49316 -212.09106 -227.6001 -191.44592 -135.25085 -78.45154 -44.51294 -52.770996 -83.08411 -98.59314 -98.99597 -81.37207 -3.4240723 66.26587 90.83862 103.22571 80.76782 3.1219482 -11.883545 -59.921265 -130.41687 -116.41846 -61.431885 
2942.2852 2928.5889 2914.2883 2900.894 2887.2986 2872.998 2859.8052 2846.4111 2832.312 2838.7573 2858.1938 2877.0264 2895.5566 2913.8855 2931.7107 2949.4353 2967.0593 2984.381 3001.602 3018.7224 3035.7422 3052.8625 3069.58 3085.6934 3102.1086 3118.5242 -1539.3219 1611.5295 3112.1794 3097.2747 3082.672 3068.0693 3053.4668 3039.0654 3025.1677 3012.0757 2998.5808 2984.784 2970.9868 2956.8877 2942.8894 2928.6895 2915.094 2900.9949 2887.3992 2873.5015 2860.3088 2847.0154 2831.607 2842.282 2861.618 2880.551 2898.88 2917.1082 2935.0342 2952.7588 2970.282 2987.7043 3004.8247 3022.046 3038.9648 3055.3801 3071.8962 3088.8152 3105.13 3123.3582 -1175.9674 2154.1443 3110.7695 3095.8647 3081.3628 3066.7603 3052.057 3037.555 3023.7578 3010.5652 2996.9695 2983.4746 2969.4763 2955.3772 2941.3787 2927.7832 2913.3818 2899.9878 2886.392 2872.1924 2858.798 2845.706 2611.2578 2843.9941 2863.33 2882.0618 2900.592 2918.7195 2936.5447 2954.2693 2971.8933 2989.1143 3006.3354 3023.4558 3040.3748 3057.495 3073.6084 3090.4265 3106.842 3167.6697 -1161.6669 2258.1755 3111.7766 3097.0732 3082.4707 3067.868 3053.064 3038.562 3025.0671 3011.7737 2998.178 2984.4817 2970.4834 2956.4849 2942.3857 2928.7903 2914.8926 2900.7935 2887.1978 2873.3 2860.1074 2846.9146 1893.1091 2848.123 2867.3584 2886.09 2904.5195 2922.647 2940.4724 2958.197 2975.6194 2992.9412 3010.1624 3027.182 3044.0002 3060.5164 3077.4353 3093.6492 3109.9639 -3230.31 -555.00183 2556.775 3110.4675 3095.6633 3081.0608 3066.5588 3051.956 3037.3535 3023.7578 3010.5652 2996.9695 2983.2732 2969.275 2955.1758 2941.1772 2927.0781 2912.979 2899.585 2885.9893 2871.7896 2858.496 2845.2026 757.72705 2849.4324 2868.567 2887.2986 2905.6274 2923.654 2941.681 2959.3047 2976.7273 2994.049 3011.1694 3028.2898 3045.2087 3062.2283 3078.3416 3095.2605 3111.5752 -3081.5642 -378.86353 2895.3552 3109.259 3094.2534 3079.651 3065.149 3050.4456 3036.145 3022.6501 3009.4573 2995.8618 2982.0647 2968.0664 2954.0679 
580.7831 3299.8992 2986.8987 394.8761 -624.49036 -2065.7227 -1472.7539 -891.06445 -2011.5417 -2479.5317 -2467.9504 -2456.9731 -2445.7947 -2434.7168 -2423.8403 -2181.7383 -2049.1057 -1895.3247 3299.8992 3299.8992 3299.8992 3299.8992 3299.8992 3299.8992 3299.8992 3299.8992 3299.8992 3299.8992 3299.8992 2717.404 -2601.7913 -2589.505 -2577.5208 -2565.5364 -2554.0557 -2542.172 -2530.5908 -2519.3115 -2507.73 -2140.0452 198.7976 3299.8992 1205.4749 -1704.2816 -2124.0325 -2193.3196 -2078.6133 -2012.3474 -2263.8152 -2448.413 -2437.6372 -2426.4587 -2415.985 -2405.1086 -2394.8364 -2383.7585 -2371.9756 -2200.9734 3299.8992 3299.8992 3299.8992 3299.8992 3299.8992 3299.8992 3299.8992 3299.8992 3299.8992 3299.8992 3299.8992 2504.1045 -2571.7803 -2559.5947 -2547.6104 -2535.8276 -2524.347 -2512.6648 -2501.0833 -2489.804 -2478.5247 -1941.0461 1716.3666 3299.8992 2456.4697 -569.9066 -1174.2554 -2352.539 -1929.2633 -1496.3196 -2464.9292 -2453.65 -2442.572 -2431.4941 -2420.6177 -2409.9426 -2399.1667 -2388.794 -2378.2195 -2016.0736 3299.8992 3299.8992 3299.8992 3299.8992 3299.8992 3299.8992 3299.8992 3299.8992 3299.8992 3299.8992 3299.8992 2038.3301 -2578.125 -2566.04 -2554.1565 -2542.273 -2530.5908 -2519.0093 -2507.5286 -2496.1487 -2484.668 -1861.8896 2111.444 3299.8992 2045.8832 -961.56006 -1853.7323 -2491.516 -2310.9465 -2262.2039 -2458.484 -2447.406 -2436.3281 -2425.5522 -2414.6758 -2404.0007 -2393.3257 -2382.852 -2372.3784 -1730.9692 3299.8992 3299.8992 3299.8992 3299.8992 3299.8992 3299.8992 3299.8992 3299.8992 3299.8992 3299.8992 3299.8992 1771.4539 -2573.593 -2561.3066 -2549.3225 -2537.741 -2525.8574 -2514.2761 -2502.7954 -2491.4153 -2480.136 -1726.8402 2359.79 3299.8992 1458.7555 -1280.5023 -1810.73 -2480.841 -2024.231 -1637.4115 -2455.1604 -2443.982 -2432.904 -2422.0276 -2411.2517 -2400.5767 -2389.9016 -2379.428 -2369.0552 -1224.0051 3299.8992 3299.8992 3299.8992 3299.8992 3299.8992 3299.8992 3299.8992 3299.8992 3299.8992 3299.8992 3299.8992 1175.6653 -2569.5647 -2557.3792 -2545.4956 -2533.7126 -2522.1313 -2510.4492 -2499.069 -2487.5884 -2476.2085 -1420.4865 
3196.0693 3211.1755 3226.3823 3241.287 3255.789 3270.3918 3285.2966 3299.6978 -3286.5051 1688.7726 3299.8992 3288.6199 3274.5208 3260.321 3246.121 3231.9214 3217.6208 3203.3203 3189.1204 3174.5178 3160.1165 3145.6145 3131.2134 3075.2197 2094.4243 1276.8768 617.4408 125.582886 -168.5852 168.78662 114.80713 -44.91577 -251.26648 -464.46533 -1732.5806 3113.8916 3129.904 3145.413 3161.023 3176.4312 3191.6382 3206.7444 3221.9512 3236.554 3251.6602 3266.3635 3280.5632 3295.2666 -3286.1023 2344.4824 3296.173 3282.074 3267.9749 3253.8757 3239.6758 3225.476 3210.974 3196.875 3182.5745 3168.173 3153.772 3139.27 3124.3652 2989.517 1927.1484 1154.718 539.99634 24.472046 -247.54028 129.81262 -33.33435 -364.8651 -529.422 -704.3518 -1978.1067 3116.4092 3132.2205 3147.83 3163.339 3178.7476 3193.8538 3208.96 3223.6633 3238.568 3253.07 3267.6726 3282.5774 3296.9788 -3109.6619 2977.2307 3294.8638 3280.7646 3266.6655 3252.365 3238.2659 3223.9653 3209.8662 3195.6665 3181.366 3166.864 3152.362 3137.9607 3123.4587 2780.4473 1842.2516 1049.9817 440.49683 -50.756836 -230.82275 148.24219 24.069214 -165.46326 -424.68567 -630.63354 -2047.5952 3115.6035 3131.4148 3147.1252 3162.5334 3177.942 3193.048 3208.255 3223.361 3238.0645 3253.1707 3267.7734 3281.8726 3296.576 -2829.5928 3299.8992 3292.749 3278.65 3264.45 3250.3508 3236.1511 3222.052 3207.7515 3193.5515 3179.1504 3164.749 3150.247 3135.846 3120.9412 2633.2122 1577.4902 768.2007 78.552246 -406.75964 -593.3716 -221.65833 -334.95483 -540.9027 -655.2063 -847.15576 -2458.2825 3129.7026 3145.413 3160.922 3176.3306 3191.5374 3206.7444 3221.6492 3236.3525 3251.2573 3265.5579 3280.1604 3294.9646 -3290.7349 -2276.2024 3299.8992 3299.8992 3287.0085 3272.9094 3258.9111 3244.6106 3230.1086 3215.808 3201.6082 3187.207 3172.8057 3158.2031 3143.6003 3128.897 2482.8552 1395.7123 718.4509 173.5199 -296.08154 -410.18372 -50.857544 -26.586914 -191.54663 -347.64404 -641.4093 -2556.0698 3131.7168 3147.528 3163.1377 3178.4453 3193.753 
-3089.3188 -3074.9175 -3061.0198 -3046.6187 -3032.5195 -3018.6218 -3004.724 -2991.2292 -2977.7344 -1665.4083 -178.5553 1835.8063 3299.8992 3299.8992 3299.8992 3299.8992 3299.8992 3299.8992 3299.8992 3299.8992 3299.8992 3299.8992 3299.8992 3299.8992 3299.8992 3299.8992 3299.8992 3299.8992 3299.8992 720.6665 -3243.805 -3227.6917 -3211.9812 -3196.3713 -3180.9631 -3165.756 -3150.7507 -3135.846 -3121.0417 -3106.4392 -3091.9373 -3077.536 -3063.1348 -3049.1362 -3035.138 -3021.2402 -3007.544 -2993.7468 -2980.3528 -1616.8671 -136.76147 1940.4419 3299.8992 3299.8992 3299.8992 3299.8992 3299.8992 3299.8992 3299.8992 3299.8992 3299.8992 3299.8992 3299.8992 3299.8992 3299.8992 3299.8992 3299.8992 3299.8992 3299.8992 289.2334 -3245.6177 -3229.5044 -3213.693 -3198.184 -3182.776 -3167.5688 -3152.4626 -3137.5579 -3122.8545 -3108.1511 -3093.75 -3079.248 -3064.746 -3050.647 -3036.7493 -3022.8516 -3009.1553 -2995.459 -2981.964 -1648.7915 -138.77563 1998.4497 3299.8992 3299.8992 3299.8992 3299.8992 3299.8992 3299.8992 3299.8992 3299.8992 3299.8992 3299.8992 3299.8992 3299.8992 3299.8992 3299.8992 3299.8992 3299.8992 3299.8992 -438.28125 -3244.4092 -3228.3965 -3212.686 -3197.0764 -3181.668 -3166.5618 -3151.5564 -3136.6516 -3121.8474 -3107.144 -3092.642 -3078.3416 -3063.8396 -3049.8413 -3035.9436 -3021.945 -3008.2488 -2994.5525 -2981.0576 -1436.1969 276.34277 2370.9685 3299.8992 3299.8992 3299.8992 3299.8992 3299.8992 3299.8992 3299.8992 3299.8992 3299.8992 3299.8992 3299.8992 3299.8992 3299.8992 3299.8992 3299.8992 3299.8992 3299.8992 -972.83936 -3246.222 -3230.1086 -3214.2974 -3198.7883 -3183.3801 -3168.274 -3153.1677 -3138.263 -3123.4587 -3108.8562 -3094.3542 -3079.8523 -3065.9546 -3051.654 -3037.454 -3023.4558 -3009.7595 -2996.0632 -2982.5684 -1392.0868 258.21533 2427.1636 3299.8992 3299.8992 3299.8992 3299.8992 3299.8992 3299.8992 3299.8992 3299.8992 3299.8992 3299.8992 3299.8992 3299.8992 3299.8992 3299.8992 3299.8992 3299.8992 3299.8992 -1680.716 -3245.114 -3229.0007 -3213.2903 -3197.882 -3182.4736 -3167.2668 -3152.2612 -3137.3564 -3122.5525 -3107.9497 
3155.5847 3171.8994 3187.4084 3203.6223 3219.5342 3235.0432 3250.5522 3266.0613 -3254.8828 865.78674 3271.4995 3256.6956 3241.8914 3226.9866 3212.384 3197.4792 3182.675 3167.9717 3152.765 3137.7593 3122.5525 3107.5469 3084.2834 1524.0143 381.28052 -85.80322 -420.95947 -931.04553 -463.86108 205.0415 434.55505 500.21667 629.7272 643.7256 146.53015 -1750.003 3123.3582 3108.6548 3125.3723 3141.989 3158.2031 3174.417 3190.2283 3206.3416 3222.1526 3237.863 3253.2715 3268.7805 -3150.4485 1138.9069 3272.3052 3257.5012 3242.7979 3227.893 3212.9883 3198.3855 3183.4807 3168.6768 3153.4697 3138.4644 3123.1567 3108.252 3051.8555 1406.8909 245.12329 -197.4884 -487.62817 -980.9967 -544.2261 172.81494 450.0641 585.8185 638.08594 709.4879 55.892944 -1922.7173 3095.9656 3112.683 3129.4006 3146.0173 3162.332 3178.4453 3194.76 3210.3699 3226.0803 3241.5894 3257.199 3272.6074 -2977.1301 1376.8799 3274.3193 3259.4146 3244.6106 3229.8064 3215.0024 3200.1982 3185.4949 3170.59 3155.3833 3140.277 3125.07 3110.0647 2927.481 1089.3585 30.715942 -375.54016 -467.9901 -944.8425 -376.1444 357.2113 476.4496 558.82874 720.06226 795.59326 27.392578 -2112.4512 3099.994 3117.0134 3133.6304 3150.1465 3166.4612 3182.5745 3198.285 3214.2974 3230.1086 3245.819 3261.3281 3276.6357 -2643.283 1881.2256 3275.0244 3260.1196 3245.4163 3230.612 3215.7073 3201.004 3185.9985 3171.0938 3155.9875 3140.8813 3125.7751 3110.669 2812.7747 903.55225 -58.10852 -346.73767 -557.3181 -951.9928 -372.72034 358.5205 621.4691 760.7483 834.56726 781.59485 -190.13672 -2333.5051 3102.713 3119.7327 3136.4502 3152.8655 3169.1802 3185.1929 3200.9033 3216.9158 3232.8276 3248.3367 3263.745 3279.1533 -2179.5227 2581.0454 3273.3123 3258.4075 3243.6035 3228.9001 3213.9954 3199.1912 3184.3872 3169.4824 3154.3762 3139.0686 3124.1638 3109.0576 2772.3906 1040.8173 176.0376 -196.07849 -404.64478 -850.4791 -224.78027 403.33557 635.4675 650.2716 661.6516 592.6666 -402.12708 -2626.364 3101.8066 3118.6248 3135.3423 3151.7578 
-3009.4573 -2995.761 -2982.367 -2968.872 -2955.4778 -2942.1843 -2928.9917 -2915.8997 -2902.9082 -2166.632 -896.5027 128.50342 1219.7754 2451.233 3299.8992 3299.8992 3299.8992 3299.8992 3299.8992 3299.8992 3299.8992 3299.8992 3299.8992 3299.8992 3299.8992 3299.8992 3299.8992 3299.8992 3299.8992 1779.2084 -1131.1523 -3141.687 -3126.7822 -3111.978 -3097.476 -3083.2764 -3068.9758 -3054.8767 -3040.8782 -3026.9805 -3013.2842 -2999.6887 -2986.1938 -2972.699 -2959.204 -2945.8098 -2932.7178 -2919.5251 -2906.6345 -2363.8184 -1150.7904 -3.9276123 1134.7778 2302.2856 3299.8992 3299.8992 3299.8992 3299.8992 3299.8992 3299.8992 3299.8992 3299.8992 3299.8992 3299.8992 3299.8992 3299.8992 3299.8992 3299.8992 3299.8992 1394.5038 -1545.3644 -3137.6587 -3122.754 -3108.0505 -3093.6492 -3079.3486 -3065.149 -3051.1504 -3037.152 -3023.1536 -3009.3567 -2995.8618 -2982.266 -2968.7712 -2955.3772 -2942.1843 -2928.9917 -2915.8997 -2902.8076 -2002.9816 -765.683 237.7716 1319.7784 2627.472 3299.8992 3299.8992 3299.8992 3299.8992 3299.8992 3299.8992 3299.8992 3299.8992 3299.8992 3299.8992 3299.8992 3299.8992 3299.8992 3299.8992 3299.8992 985.73 -1758.9661 -3137.5579 -3122.653 -3108.0505 -3093.6492 -3079.3486 -3065.2495 -3051.0498 -3037.0513 -3023.355 -3009.4573 -2995.8618 -2982.367 -2968.9727 -2955.5786 -2942.2852 -2928.9917 -2916.0002 -2902.9082 -1924.6307 -661.7523 386.51733 1520.3888 2752.3499 3299.8992 3299.8992 3299.8992 3299.8992 3299.8992 3299.8992 3299.8992 3299.8992 3299.8992 3299.8992 3299.8992 3299.8992 3299.8992 3299.8992 3299.8992 766.38794 -2031.1798 -3138.162 -3123.2573 -3108.554 -3094.1528 -3079.8523 -3065.7532 -3051.654 -3037.857 -3023.9592 -3010.1624 -2996.5667 -2982.9712 -2969.577 -2956.1829 -2942.8894 -2929.6965 -2916.6045 -2903.4119 -2009.2255 -739.7003 342.1051 1484.9396 2857.0862 3299.8992 3299.8992 3299.8992 3299.8992 3299.8992 3299.8992 3299.8992 3299.8992 3299.8992 3299.8992 3299.8992 3299.8992 3299.8992 3299.8992 3299.8992 453.38745 -2347.3022 -3134.6375 -3119.7327 -3105.2307 -3090.7288 -3076.5288 -3062.329 -3048.3306 -3034.4329 -3020.5352 

-258.41675 -244.31763 -235.1532 -214.91089 -150.25635 -55.69153 36.758423 105.340576 168.88733 282.18384 391.1499 414.917 356.20422 316.42456 284.198 236.86523 210.47974 137.86926 113.29651 62.942505 -24.472046 -168.5852 -277.45056 -248.74878 -292.35535 -417.6361 -464.66675 -410.68726 -308.36792 -189.43176 -68.07861 74.82605 210.78186 283.19092 318.338 255.49622 175.53406 148.3429 50.958252 -106.04553 -112.18872 37.765503 132.0282 129.91333 96.67969 53.17383 32.730103 -15.710449 -136.05652 -135.25085 -151.56555 -276.14136 -385.71167 -398.40088 -344.5221 -289.63623 -223.16895 -144.51599 -84.99756 -44.714355 9.970093 89.52942 199.9054 336.76758 422.77222 398.19946 254.99268 152.87476 131.22253 36.758423 -21.551514 37.060547 156.19812 220.85266 168.18237 122.46094 84.2926 21.047974 10.675049 68.17932 65.963745 0.10070801 -36.154175 13.092041 99.70093 160.12573 196.1792 164.35547 63.546753 30.715942 37.86621 33.43506 -66.76941 -235.95886 -360.03113 -398.6023 -406.1554 -404.8462 -362.95166 -301.31836 -266.5741 -236.86523 -175.63477 -94.262695 -58.61206 -109.469604 -160.62927 -130.8197 -81.27136 36.85913 159.32007 217.32788 229.51355 246.93604 288.52844 292.75818 318.94226 376.84937 442.6117 444.52515 397.89734 323.172 219.64417 97.18323 -34.744263 -201.2146 -239.38293 -115.008545 -30.514526 16.314697 0.9063721 23.26355 62.942505 62.74109 51.461792 -18.832397 -195.97778 -339.4867 -378.4607 -345.42847 -292.65747 -315.6189 -366.67786 -340.49377 -255.89905 -159.21936 -57.000732 40.182495 112.18872 110.27527 72.509766 21.24939 8.258057 -1.2084961 -36.4563 -111.483765 -27.392578 158.11157 227.29797 258.51746 259.72595 262.44507 228.9093 156.50024 103.326416 96.98181 9.869385 -170.39795 -298.49854 -254.58984 -96.276855 95.269775 227.29797 229.41284 234.34753 267.27905 251.77002 219.54346 90.5365 -79.156494 -223.57178 -318.94226 -324.68262 -351.47095 -358.11768 -328.1067 -246.5332 -127.39563 -45.92285 -48.94409 -51.260376 -12.991333 81.170654 188.52539 214.50806 99.09668 82.88269 160.02502 242.90771 375.33875 560.44006 692.0654 622.2748 350.16174 -32.42798 -309.77783 -386.51733 -365.46936 -458.42285 -511.39526 -435.76355 -245.62683 -75.631714 -19.033813 -38.571167 -9.970093 37.664795 123.87085 298.80066 455.90515 
-24.77417 -39.98108 19.436646 52.468872 77.34375 72.40906 158.4137 195.77637 148.04077 92.248535 73.516846 37.96692 -1.6113281 -61.029053 -110.37598 -136.86218 -159.52148 -161.53564 -180.16663 -233.44116 -212.39319 -147.53723 -81.47278 -44.110107 -36.557007 -2.3162842 17.321777 23.464966 75.631714 191.04309 278.0548 271.8109 217.5293 106.24695 82.37915 147.53723 198.59619 182.98645 201.71814 227.09656 248.34595 192.3523 116.922 51.663208 100.808716 96.37756 62.942505 -15.005493 -62.036133 -123.46802 -150.15564 -130.8197 -156.80237 -174.62769 -187.71973 -223.06824 -213.29956 -195.77637 -159.7229 -116.72058 -64.55383 -37.765503 41.189575 141.99829 155.19104 89.63013 15.408325 -96.780396 -216.42151 -252.8778 -245.62683 -245.72754 -250.56152 -230.72205 -140.99121 -70.999146 -62.438965 -56.09436 -72.61047 -51.461792 -51.461792 -51.461792 -51.461792 -51.461792 -51.461792 -51.461792 -51.461792 -51.461792 -51.461792 -51.461792 -51.461792 -51.461792 -51.461792 -51.461792 -51.461792 -51.461792 -51.461792 -51.461792 -51.461792 -51.461792 34.643555 -204.13513 -335.6598 -288.83057 -168.78662 -100.00305 -60.324097 -31.82373 7.4523926 50.756836 61.23047 35.147095 -25.680542 -14.904785 64.55383 267.8833 378.36 421.76514 434.25293 429.51965 405.55115 287.72278 240.39001 227.29797 154.08325 43.40515 -154.6875 -270.09888 -318.0359 -298.90137 -241.29639 -241.90063 -272.21375 -268.38684 -220.85266 -122.561646 -33.9386 -4.7332764 2.1148682 -39.47754 -86.10535 -75.32959 -74.523926 -91.744995 -49.749756 -8.963013 -35.549927 -102.11792 -195.97778 -318.2373 -449.76196 -478.26233 -440.1947 -388.12866 -366.97998 -269.0918 -194.9707 -133.03528 44.0094 203.32947 268.89038 246.73462 152.57263 62.13684 75.631714 180.16663 195.47424 189.02893 183.89282 139.48059 164.15405 169.49158 141.19263 134.84802 157.10449 124.072266 83.78906 33.737183 14.401245 8.258057 13.293457 33.9386 1.6113281 -38.36975 -8.761597 31.018066 58.61206 27.79541 -12.991333 -44.714355 -112.69226 -135.15015 -87.31384 -89.12659 -104.63562 -31.723022 19.940186 65.25879 119.33899 111.58447 45.01648 -22.558594 -11.782837 53.375244 103.62854 125.079346 142.099 190.33813 229.91638 195.37354 143.10608 112.28943 103.930664 87.716675 117.82837 110.87952 100.305176 31.723022 -58.10852 -61.73401 
2939.9688 2926.3733 2912.1733 2898.578 2885.1836 2870.883 2857.5896 2844.397 -457.6172 2851.0437 2870.2788 2888.91 2907.2388 2925.2654 2943.1914 2960.8154 2978.2378 2995.5596 3012.68 3029.8003 3046.6187 3063.739 3080.2551 3096.2676 3112.5823 -2942.99 -172.2107 3122.9553 3108.6548 3093.9514 3079.248 3064.746 3050.0427 3035.8428 3022.348 3009.0544 2995.3582 2981.5613 2967.5627 2953.5645 2939.566 2925.2654 2911.7705 2897.6714 2884.1765 2870.2788 2857.1868 2843.7927 -2317.4927 2853.964 2872.998 2891.629 2909.9578 2927.9846 2945.8098 2963.333 2980.8562 2998.178 3015.2983 3032.2173 3049.1362 3065.451 3081.967 3098.7854 3115.1 -2563.4216 442.10815 3119.7327 3105.0293 3090.225 3075.7231 3061.1206 3046.4172 3032.2173 3018.8232 3005.6304 2992.035 2978.0364 2964.1387 2950.0396 2936.1418 2922.4456 2908.145 2894.751 2881.3567 2867.157 2853.7627 2840.4692 2833.8225 2853.2593 2872.293 2890.8232 2909.253 2927.2795 2945.0042 2962.6282 2980.0505 2997.2717 3014.4927 3031.5125 3048.3306 3065.3503 3081.4636 3098.3826 3114.6973 -2419.4092 437.87842 3118.3228 3103.72 3088.916 3074.414 3059.8113 3045.0073 3031.0088 3017.7153 3004.4219 2990.8264 2976.9287 2962.9302 2948.932 2934.9333 2921.338 2907.5408 2893.4417 2879.9468 2866.049 2852.957 2839.4622 2835.9375 2855.4749 2874.5085 2893.2402 2911.3677 2929.3945 2947.2197 2964.743 2982.266 2999.588 3016.7083 3033.6272 3050.4456 3066.8608 3083.6792 3099.7925 3116.1072 -2109.9333 722.0764 3117.2148 3102.5115 3087.909 3073.3062 3058.8042 3044.2017 3030.2031 3016.9097 3003.6162 2989.92 2975.9216 2961.923 2948.0254 2934.027 2919.8271 2905.8289 2892.4346 2878.9397 2864.8406 2851.648 2837.9517 2837.3474 2856.8848 2875.717 2894.3481 2912.5762 2930.603 2948.3276 2965.9514 2983.374 3000.595 3017.8162 3034.735 3051.654 3068.573 3084.5854 3101.5044 3117.7185 -1917.3798 926.11084 3116.2078 3101.4038 3086.7004 3072.299 3057.5957 3042.8923 3028.9946 3015.802 3002.3071 2988.8123 2974.8137 2960.916 2946.817 2932.8186 2919.223 2904.9224 2891.629 2878.134 2864.035 2850.6409 2836.8438 2839.2607 2858.798 2877.6306 2896.161 2914.2883 2932.4158 2950.0396 2967.5627 2984.9854 3002.3071 3019.4275 3036.2456 
2744.1924 3299.8992 1426.1261 -1001.1383 -1990.5945 -2386.4775 -2042.5598 -1686.3556 -2453.7505 -2442.4712 -2431.4941 -2420.6177 -2409.8418 -2399.1667 -2388.5925 -2378.018 -2367.6453 -648.761 3299.8992 3299.8992 3299.8992 3299.8992 3299.8992 3299.8992 3299.8992 3299.8992 3299.8992 3299.8992 3299.8992 202.12097 -2566.2415 -2554.1565 -2542.273 -2530.49 -2518.9087 -2507.2266 -2495.8464 -2484.4666 -2473.1873 -1116.0461 3217.1172 3299.8992 1387.5549 -743.4265 -2400.2747 -2480.3374 -2349.5178 -2440.6584 -2447.3052 -2436.3281 -2425.4517 -2414.4744 -2403.7993 -2393.225 -2382.55 -2372.177 -2361.7034 -119.540405 3299.8992 3299.8992 3299.8992 3299.8992 3299.8992 3299.8992 3299.8992 3299.8992 3299.8992 3299.8992 3299.8992 -98.89526 -2561.7095 -2549.6245 -2537.741 -2526.0588 -2514.2761 -2502.7954 -2491.3147 -2479.9346 -2468.756 -733.3557 3299.8992 3299.8992 1274.4598 -807.2754 -2195.636 -2150.5188 -1626.4343 -1843.5608 -2453.65 -2442.4712 -2431.4941 -2420.5168 -2409.6404 -2398.9653 -2388.391 -2378.018 -2367.5444 523.98376 3299.8992 3299.8992 3299.8992 3299.8992 3299.8992 3299.8992 3299.8992 3299.8992 3299.8992 3299.8992 3299.8992 -1393.1946 -2563.1194 -2551.1353 -2539.2517 -2527.4688 -2515.8875 -2504.4067 -2492.8252 -2481.4453 -2470.2666 -350.16174 3299.8992 3299.8992 1418.1702 -251.66931 -2126.3489 -2014.1602 -1418.4723 -2027.9572 -2462.8142 -2451.6357 -2440.457 -2429.48 -2418.704 -2407.8276 -2397.052 -2386.679 -2376.1047 1281.8115 3299.8992 3299.8992 3299.8992 3299.8992 3299.8992 3299.8992 3299.8992 3299.8992 3299.8992 3299.8992 3299.8992 -1694.1101 -2571.4783 -2559.494 -2547.6104 -2535.9282 -2524.347 -2512.6648 -2501.2847 -2489.804 -2478.6255 -373.72742 3299.8992 3299.8992 1207.1869 -275.4364 -2245.285 -2121.9177 -1627.7435 -2325.7507 -2466.2383 -2454.8584 -2443.7805 -2432.904 -2421.9268 -2411.1511 -2400.5767 -2389.9016 -2379.428 1955.4474 3299.8992 3299.8992 3299.8992 3299.8992 3299.8992 3299.8992 3299.8992 3299.8992 3299.8992 3299.8992 3299.8992 -2079.2175 -2574.9023 -2562.918 -2551.1353 -2539.3523 -2527.771 -2516.1895 -2504.7087 -2493.3289 -2480.3374 282.38525 3299.8992 3299.8992 1013.7268 -330.6244 -2075.9949 -1752.3193 -991.2689 -2138.8367 -2480.5388 -2469.058 -2457.7788 -2446.701 -2435.8245 -2424.948 -2414.0715 -2403.3965 -2392.8223 2469.461 3299.8992 3299.8992 
3208.7585 3223.6633 3238.971 3253.473 3268.4783 3283.081 3297.0793 -3288.3179 -2002.0752 3299.8992 3299.8992 3288.4185 3274.2188 3260.0188 3245.7183 3231.5186 3217.1172 3202.716 3188.516 3174.0142 3159.5122 3145.0103 3129.904 2701.7944 1685.2478 1004.36096 348.5504 -218.8385 -238.17444 126.9928 -110.6781 -325.38757 -517.33704 -951.9928 -2967.0593 3131.012 3147.0244 3162.4329 3177.942 3193.1487 3208.255 3223.1597 3237.9639 3252.8687 3267.1692 3281.7717 3296.475 -3289.224 -1466.2079 3299.8992 3298.59 3284.491 3270.291 3256.0913 3241.8914 3227.4902 3213.391 3198.9897 3184.5886 3170.1873 3155.5847 3141.0828 3125.5737 2498.3643 1561.0748 797.406 94.06128 -385.10742 -357.312 -13.092041 -249.55444 -458.62427 -509.68323 -985.12573 -3135.0403 3134.738 3150.4485 3165.9575 3181.366 3196.5728 3211.679 3226.5837 3241.5894 3256.0913 3271.1975 3285.6995 3299.6978 -3285.8 -1106.9824 3299.8992 3299.8992 3286.7065 3272.5066 3258.4075 3243.805 3229.7058 3215.5059 3201.1047 3186.6028 3172.1008 3157.6995 3143.097 3125.07 2470.8708 1464.5966 790.45715 206.55212 -181.67725 24.975586 241.90063 -50.756836 -216.52222 -414.41345 -1004.15955 3134.436 3131.5154 3147.3267 3162.9363 3178.3447 3193.35 3208.6577 3223.6633 3238.2659 3253.1707 3267.572 3282.074 3296.878 -3288.8213 -441.6046 3299.8992 3294.5618 3280.3618 3266.2627 3251.8616 3237.7625 3223.5625 3209.262 3194.9614 3180.4595 3166.0583 3151.5564 3137.0544 3118.4233 2331.5918 1304.1687 679.1748 46.5271 -308.77075 -4.0283203 189.9353 -45.620728 -296.7865 -425.49133 -1097.5159 3114.7979 3130.8105 3146.4202 3162.03 3177.4382 3192.6453 3207.6506 3222.6562 3237.7625 3252.365 3267.3706 3281.8726 3295.9717 -3289.5264 355.29785 3299.8992 3291.0369 3276.8372 3262.738 3248.538 3234.2375 3220.0378 3205.838 3191.5374 3176.834 3162.4329 3148.1323 3133.6304 3113.086 2282.4463 1382.721 759.9426 99.3988 -253.38135 -70.495605 141.39404 -57.60498 -292.65747 -471.01135 -1388.7634 3113.388 3129.4006 3145.111 3160.7207 3176.0283 3191.336 3206.3416 3221.347 3236.1511 3250.955 3265.155 3279.7576 3294.6624 -3291.1377 749.5697 3299.8992 3287.3108 3273.5137 3259.1125 3244.9126 3230.713 3216.4124 3202.3132 3187.9119 3173.41 3159.1094 
-3093.4478 -3079.0466 -3064.6453 -3050.647 -3036.7493 -3022.8516 -3008.9539 -2995.459 -2916.0002 -1100.3357 767.1936 2807.3364 3299.8992 3299.8992 3299.8992 3299.8992 3299.8992 3299.8992 3299.8992 3299.8992 3299.8992 3299.8992 3299.8992 3299.8992 3299.8992 3299.8992 3299.8992 3299.8992 3299.8992 -2513.3696 -3247.0276 -3231.1157 -3215.3044 -3199.7954 -3184.4878 -3169.281 -3154.1748 -3139.3706 -3124.5667 -3109.8633 -3095.462 -3081.0608 -3066.458 -3052.5603 -3038.562 -3024.5635 -3010.7666 -2997.0703 -2805.8257 -1116.3483 675.1465 2635.1257 3299.8992 3299.8992 3299.8992 3299.8992 3299.8992 3299.8992 3299.8992 3299.8992 3299.8992 3299.8992 3299.8992 3299.8992 3299.8992 3299.8992 3299.8992 3299.8992 3139.572 -3208.7585 -3244.5098 -3228.3965 -3212.686 -3197.2778 -3181.8694 -3166.7632 -3151.7578 -3136.853 -3122.0488 -3107.4463 -3092.9443 -3078.6438 -3064.746 -3050.2441 -3036.0442 -3022.348 -3008.3496 -2994.8547 -2740.265 -1013.9282 725.3998 2841.5771 3299.8992 3299.8992 3299.8992 3299.8992 3299.8992 3299.8992 3299.8992 3299.8992 3299.8992 3299.8992 3299.8992 3299.8992 3299.8992 3299.8992 3299.8992 3299.8992 2744.998 -3256.6956 -3240.1794 -3224.3682 -3208.5571 -3193.1487 -3177.942 -3162.7349 -3147.7295 -3132.9253 -3118.1213 -3103.6194 -3089.1174 -3074.716 -3060.9192 -3046.5178 -3032.4187 -3018.521 -3004.9255 -2991.2292 -2643.988 -892.9779 1062.5702 3230.31 3299.8992 3299.8992 3299.8992 3299.8992 3299.8992 3299.8992 3299.8992 3299.8992 3299.8992 3299.8992 3299.8992 3299.8992 3299.8992 3299.8992 3299.8992 3299.8992 2129.773 -3252.7678 -3236.554 -3220.642 -3204.9316 -3189.624 -3174.2156 -3159.1094 -3144.2046 -3129.4006 -3114.5964 -3100.0945 -3085.5925 -3071.3928 -3056.8909 -3043.0938 -3029.0955 -3015.2983 -3001.5015 -2988.0066 -2626.4648 -1038.4003 837.99133 2934.2285 3299.8992 3299.8992 3299.8992 3299.8992 3299.8992 3299.8992 3299.8992 3299.8992 3299.8992 3299.8992 3299.8992 3299.8992 3299.8992 3299.8992 3299.8992 3299.8992 1882.7362 -3245.819 -3229.7058 -3213.794 -3198.0835 -3182.8765 -3167.5688 -3152.664 -3137.5579 -3122.754 -3108.1511 -3093.6492 -3079.248 -3064.8467 -3050.5461 -3036.6484 -3022.8516 -3009.0544 -2995.3582 -2981.8633 -2311.6516 -528.1128 1362.5793 3299.8992 3299.8992 3299.8992 3299.8992 3299.8992 3299.8992 3299.8992 3299.8992 3299.8992 
3167.9717 3184.2864 3199.6948 3215.808 3231.5186 3247.0276 3262.6372 3277.9448 -2085.7634 2595.6482 3271.701 3256.7961 3241.9922 3227.188 3212.384 3197.5798 3182.675 3167.871 3152.664 3137.5579 3122.4517 3107.2449 2619.2139 950.9857 129.6112 -275.235 -521.6675 -977.57263 -314.5111 353.58582 487.02393 585.7178 663.16223 559.8358 -489.0381 -2701.1902 3105.835 3122.4517 3139.1692 3155.6853 3171.7986 3188.0127 3203.421 3219.5342 3235.3455 3250.7537 3266.464 3281.6711 -1485.4431 3126.6814 3270.996 3256.192 3241.4885 3226.5837 3211.7798 3197.0764 3182.2722 3167.166 3152.0598 3136.9536 3121.7468 3106.6406 2491.3147 911.911 216.01868 -57.20215 -318.53943 -741.6138 50.354004 556.31104 684.91516 700.5249 724.0906 514.5172 -723.58704 -2885.2844 3100.0945 3116.9128 3133.6304 3150.0457 3166.2598 3182.4736 3198.184 3214.1968 3230.0078 3245.4163 3261.026 3276.3335 -1155.8258 3278.247 3263.4429 3248.8403 3234.0361 3219.1313 3204.428 3189.7246 3174.7192 3159.915 3144.6074 3129.602 3114.395 3099.1882 2198.2544 626.3031 -95.269775 -344.11926 -521.5668 -868.20374 -13.293457 477.45667 554.6997 653.29285 776.2573 534.6588 -842.926 -2871.6887 3101.303 3118.222 3135.0403 3151.355 3167.7703 3183.783 3199.9968 3215.5059 3231.1157 3246.6248 3262.1338 3277.6428 -610.79407 3275.9307 3261.3281 3246.524 3231.72 3216.9158 3202.1118 3187.3076 3172.5037 3157.5989 3142.3918 3127.2856 3112.1794 3096.8718 2054.0405 600.52185 -53.979492 -327.60315 -499.91455 -830.3375 173.21777 677.6642 703.244 647.7539 716.43677 467.8894 -992.98096 -2951.0466 3098.9868 3115.805 3132.4219 3148.938 3165.1519 3181.2651 3197.4792 3213.1897 3228.7993 3244.3083 3259.8174 3275.125 -230.1178 3271.399 3256.6956 3241.9922 3227.0874 3212.384 3197.4792 3182.8765 3168.173 3152.9663 3137.9607 3122.8545 3107.7483 3089.923 1796.0266 335.7605 -234.85107 -447.44568 -535.968 -737.1826 261.7401 739.1968 763.97095 793.98193 803.5492 390.34424 -1200.238 -3124.2644 3097.9797 3114.8987 3131.5154 3148.0315 3164.3462 3180.359 3196.5728 3212.2832 3227.7922 3243.402 3258.9111 3274.2188 96.57898 3268.3777 3253.775 3239.0715 3224.1667 3209.4634 3194.6594 3180.0566 3165.1519 3150.1465 3134.9395 3119.934 
-3006.7383 -2993.2434 -2979.849 -2966.3542 -2952.9602 -2939.6667 -2926.4739 -2913.4827 -2831.1035 -1709.317 -222.06116 780.38635 1862.6953 3299.8992 3299.8992 3299.8992 3299.8992 3299.8992 3299.8992 3299.8992 3299.8992 3299.8992 3299.8992 3299.8992 3299.8992 3299.8992 3299.8992 3299.8992 3284.793 223.37036 -2491.7175 -3138.7664 -3123.9624 -3109.3596 -3094.9585 -3080.658 -3066.458 -3052.4597 -3038.4612 -3024.765 -3011.0686 -2997.2717 -2983.8774 -2970.3826 -2957.089 -2943.7957 -2930.5022 -2917.4102 -2726.065 -1598.941 -411.0901 473.32764 1434.1827 2944.5007 3299.8992 3299.8992 3299.8992 3299.8992 3299.8992 3299.8992 3299.8992 3299.8992 3299.8992 3299.8992 3299.8992 3299.8992 3299.8992 3299.8992 2973.3032 -192.05017 -2817.6086 -3133.8318 -3119.1284 -3104.425 -3090.0237 -3075.824 -3061.7249 -3047.6257 -3033.728 -3019.8303 -3006.2346 -2992.6392 -2979.2449 -2965.75 -2952.4565 -2939.163 -2926.071 -2912.979 -2640.0603 -1544.2566 -271.10596 769.10706 1906.604 3299.8992 3299.8992 3299.8992 3299.8992 3299.8992 3299.8992 3299.8992 3299.8992 3299.8992 3299.8992 3299.8992 3299.8992 3299.8992 3299.8992 3299.8992 2603.604 -631.74133 -3144.5068 -3131.4148 -3116.9128 -3102.2095 -3087.909 -3073.709 -3059.6099 -3045.5107 -3031.613 -3017.9167 -3004.1199 -2990.5242 -2977.0293 -2963.6353 -2950.3418 -2936.9475 -2923.755 -2910.7634 -2564.4287 -1521.8994 -222.5647 773.3368 1956.6559 3299.8992 3299.8992 3299.8992 3299.8992 3299.8992 3299.8992 3299.8992 3299.8992 3299.8992 3299.8992 3299.8992 3299.8992 3299.8992 3299.8992 3299.8992 2459.1887 -730.5359 -3144.2046 -3129.1992 -3114.395 -3099.994 -3085.5925 -3071.3928 -3057.2937 -3043.2952 -3029.3975 -3015.7012 -3001.9043 -2988.3086 -2974.8137 -2961.4197 -2948.2268 -2935.0342 -2921.8413 -2908.6487 -2507.9314 -1373.1537 -99.298096 883.0078 1914.5599 3299.8992 3299.8992 3299.8992 3299.8992 3299.8992 3299.8992 3299.8992 3299.8992 3299.8992 3299.8992 3299.8992 3299.8992 3299.8992 3299.8992 3299.8992 2100.4668 -1059.8511 -3140.7805 -3125.7751 -3111.0718 -3096.5698 -3082.3699 -3068.1702 -3053.9702 -3040.0725 -3026.1748 -3012.277 -2998.5808 -2985.086 -2971.692 -2958.2976 -2945.0042 -2931.8115 -2918.6187 -2905.6274 -2486.078 -1426.5289 -146.12732 867.29736 2125.7446 3299.8992 3299.8992 3299.8992 3299.8992 3299.8992 3299.8992 3299.8992 

420.65735 288.52844 205.94788 111.8866 -56.396484 -166.87317 -254.69055 -328.2074 -356.90918 -354.7943 -237.97302 -69.89136 54.58374 148.14148 219.44275 175.43335 100.40588 68.78357 57.60498 14.804077 -40.283203 -64.85596 -122.15881 -164.05334 -126.28784 -134.04236 -170.70007 -171.30432 -110.57739 -2.0141602 92.14783 150.75989 232.13196 302.82898 340.9973 426.80054 518.1427 586.72485 601.73035 556.31104 441.3025 244.11621 37.060547 -158.21228 -332.135 -489.0381 -662.8601 -816.94336 -828.9276 -710.2936 -584.10645 -500.92163 -407.5653 -278.75977 -75.22888 28.500366 108.56323 144.01245 59.1156 40.98816 136.05652 240.99426 285.70862 303.1311 177.85034 -55.892944 -187.11548 -197.18628 -116.61987 -33.83789 53.57666 234.85107 405.0476 434.35364 367.78564 280.67322 244.51904 235.1532 104.837036 10.171509 10.171509 10.171509 10.171509 10.171509 10.171509 10.171509 10.171509 10.171509 10.171509 10.171509 10.171509 10.171509 10.171509 10.171509 10.171509 10.171509 10.171509 10.171509 10.171509 10.171509 -131.82678 25.881958 127.79846 158.31299 157.10449 77.041626 -40.48462 -68.38074 -20.343018 5.3375244 -25.982666 -46.224976 -12.890625 14.703369 -35.44922 -67.977905 -58.813477 -35.046387 -68.17932 -137.76855 -175.03052 -199.60327 -164.55688 -142.60254 -154.38538 -178.75671 -132.1289 44.815063 234.95178 431.63452 575.9491 604.14734 605.0537 593.9758 564.5691 465.97595 381.38123 287.62207 196.58203 31.622314 -216.11938 -405.34973 -398.90442 -369.19556 -402.83203 -382.489 -265.2649 -203.83301 -181.77795 -107.65686 -24.27063 53.07312 96.57898 77.948 -16.818237 -173.82202 -301.31836 -263.35144 -177.44751 -142.099 -126.589966 -107.25403 -81.87561 -114.20288 -139.78271 -77.041626 35.95276 71.40198 101.01013 140.8905 116.72058 138.47351 236.26099 365.9729 470.80994 523.0774 444.82727 232.33337 19.436646 -143.91174 -215.21301 -193.6615 -89.63013 -74.2218 -155.59387 -213.8031 -252.47498 -327.60315 -316.9281 -229.31213 -111.68518 -36.053467 10.876465 70.89844 133.3374 206.35071 276.5442 412.09717 581.3873 641.2079 
-1.5106201 -20.443726 -174.92981 -299.00208 -328.71094 -295.27588 -233.03833 -194.87 -179.96521 -171.0022 -195.77637 -200.30823 -142.30042 -65.15808 -26.184082 82.177734 190.33813 230.92346 78.149414 -101.21155 -172.2107 -242.10205 -241.90063 -199.50256 -98.99597 96.8811 211.1847 205.74646 140.08484 22.457886 -50.354004 -60.827637 -47.43347 -33.233643 26.385498 53.57666 119.94324 181.47583 211.2854 166.67175 125.98572 129.40979 120.24536 91.8457 20.645142 -25.076294 -19.23523 58.511353 128.60413 111.78589 42.90161 27.694702 -35.85205 -182.08008 -274.63074 -220.95337 -165.76538 -92.55066 -27.191162 17.422485 52.770996 56.69861 60.827637 49.44763 47.53418 67.474365 63.043213 58.20923 28.80249 -12.084961 2.9205322 5.3375244 35.85205 47.131348 14.904785 -22.155762 -16.113281 25.579834 142.70325 263.35144 304.94385 260.53162 149.45068 110.17456 50.958252 -61.935425 -174.7284 -234.75037 -248.14453 -259.92737 -194.66858 -78.652954 -24.572754 -52.368164 -64.956665 5.1361084 27.29187 -2.9205322 -47.836304 -116.61987 -120.043945 -63.74817 8.560181 9.164429 -34.744263 -27.392578 0.10070801 -1.9134521 -35.34851 -22.961426 -25.479126 -8.862305 -6.3446045 12.588501 -45.822144 -114.505005 -123.66943 -153.88184 -122.15881 -36.254883 -25.177002 -102.01721 -241.69922 -255.2948 -143.00537 25.982666 82.07703 148.24219 302.12402 400.61646 408.5724 414.11133 408.5724 347.2412 314.81323 275.63782 158.31299 47.634888 -23.76709 -138.07068 -236.3617 -233.44116 -151.66626 -49.0448 24.069214 50.05188 -21.047974 -120.043945 -209.47266 -236.76453 -168.88733 -109.26819 -82.27844 -85.90393 -60.72693 36.35559 149.85352 168.18237 142.80396 170.29724 220.65125 234.64966 123.568726 19.436646 0.80566406 -33.132935 -118.33191 -169.29016 -161.53564 -106.34766 -44.110107 -7.5531006 37.564087 -22.055054 -46.5271 -27.392578 -35.95276 -45.41931 -118.43262 -195.77637 -221.15479 -179.46167 -129.91333 -46.627808 31.018066 82.88269 72.81189 119.84253 116.82129 96.57898 59.820557 87.716675 126.28784 81.7749 10.473633 -41.89453 -39.47754 -27.996826 -10.775757 33.535767 
3053.1646 3070.0835 3086.7004 3102.713 3119.0276 -1663.8977 1286.8469 3114.7979 3100.0945 3085.1897 3070.7886 3056.1858 3041.5833 3027.6855 3014.4927 3000.9978 2987.3015 2973.4038 2959.4055 2945.407 2931.3079 2917.3096 2903.7139 2889.7156 2876.1199 2862.4236 2849.3315 2835.3333 2840.7715 2860.208 2879.141 2897.5708 2915.7988 2933.8257 2951.5503 2969.0735 2986.3953 3003.6162 3020.7366 3037.7563 3054.4739 3070.8892 3087.7075 3103.8208 3120.0347 -1301.2482 1775.5829 3111.7766 3096.8718 3082.4707 3067.7673 3053.064 3038.4612 3024.6643 3011.5723 2997.9766 2984.381 2970.3826 2956.3843 2942.3857 2928.3875 2914.1875 2900.2898 2886.9963 2873.6023 2859.6038 2846.2097 2831.8083 2840.973 2860.4094 2879.141 2897.5708 2915.8997 2933.7249 2951.4495 2969.0735 2986.3953 3003.6162 3020.7366 3037.6555 3054.373 3071.3928 3087.4053 3104.2236 3121.7468 -1077.5757 2045.581 3109.561 3094.6562 3080.1543 3065.6523 3050.949 3036.447 3022.7507 3009.558 2996.0632 2982.367 2968.4692 2954.4707 2940.4724 2926.4739 2912.7776 2898.6785 2885.385 2871.8901 2857.8918 2844.5984 2754.7668 2841.98 2861.316 2880.0476 2898.477 2916.7053 2934.6313 2952.4565 2969.8792 2987.201 3004.4219 3021.5422 3038.562 3055.1787 3072.1985 3088.7146 3104.727 3179.956 -865.1825 2117.1843 3108.9568 3094.1528 3079.651 3064.9475 3050.4456 3035.9436 3022.1465 3009.0544 2995.5596 2981.7627 2967.9656 2953.8665 2939.9688 2925.9705 2911.8713 2898.477 2884.378 2870.984 2857.0862 2844.0947 2245.5872 2844.2961 2863.632 2882.3638 2900.7935 2918.82 2936.847 2954.5715 2972.0947 2989.3157 3006.6375 3023.6572 3040.5762 3057.2937 3073.6084 3089.923 3106.842 -3247.8333 -499.411 2609.445 3106.5398 3091.9373 3077.234 3062.631 3047.9277 3033.6272 3019.8303 3006.8389 2993.1426 2979.4463 2965.448 2951.4495 2937.4512 2923.4526 2909.9578 2895.758 2882.5652 2869.0703 2855.072 2841.6777 1279.2938 2845.0012 2864.1357 2882.968 2901.2969 2919.4243 2937.4512 2955.075 2972.5981 2989.92 3007.141 3024.1606 3041.0796 
3299.8992 3299.8992 3299.8992 3299.8992 3299.8992 3299.8992 3299.8992 3299.8992 3290.634 -2594.943 -2586.0808 -2573.9958 -2562.2131 -2550.4302 -2538.6475 -2527.3682 -2515.686 -2504.4067 -2440.7593 464.56604 3299.8992 3020.5352 -134.74731 -1405.481 -2510.5498 -2495.645 -2142.4622 -2477.9204 -2466.641 -2455.4626 -2444.3848 -2433.5083 -2422.531 -2411.856 -2401.2817 -2390.6067 -2380.2336 3299.8992 3299.8992 3299.8992 3299.8992 3299.8992 3299.8992 3299.8992 3299.8992 3299.8992 3299.8992 3299.8992 3098.0803 -2589.6057 -2577.3193 -2565.335 -2553.4514 -2541.6687 -2530.188 -2518.6064 -2507.0251 -2495.7458 -2279.6265 1025.711 3299.8992 2793.4387 -379.8706 -1473.761 -2504.306 -2075.9949 -1680.716 -2475.9062 -2464.5264 -2453.3477 -2442.3706 -2431.2927 -2420.5168 -2409.8418 -2399.1667 -2388.693 -2378.119 3299.8992 3299.8992 3299.8992 3299.8992 3299.8992 3299.8992 3299.8992 3299.8992 3299.8992 3299.8992 3299.8992 2564.328 -2586.4836 -2574.298 -2562.3137 -2550.4302 -2538.748 -2527.1667 -2515.5852 -2504.1045 -2492.7246 -2068.2402 1484.5367 3299.8992 2193.1182 -1103.4576 -1969.1437 -2495.343 -2406.2163 -1974.1791 -2463.8213 -2452.6428 -2441.464 -2430.5876 -2419.7112 -2408.9355 -2398.361 -2387.7869 -2377.3132 -2155.7556 3299.8992 3299.8992 3299.8992 3299.8992 3299.8992 3299.8992 3299.8992 3299.8992 3299.8992 3299.8992 3299.8992 2305.7097 -2577.8228 -2565.6372 -2553.5522 -2541.87 -2530.0872 -2518.6064 -2507.0251 -2495.5444 -2484.1643 -1999.4568 1776.0864 3299.8992 2171.1638 -988.3484 -1901.2665 -2489.099 -2167.7397 -1498.6359 -2460.901 -2449.6216 -2438.6443 -2427.5664 -2416.7908 -2406.1157 -2395.5413 -2384.8662 -2374.3926 -1860.379 3299.8992 3299.8992 3299.8992 3299.8992 3299.8992 3299.8992 3299.8992 3299.8992 3299.8992 3299.8992 3299.8992 1597.5311 -2573.4924 -2561.3066 -2549.423 -2537.5396 -2525.8574 -2514.2761 -2502.7954 -2491.4153 -2480.136 -1614.0472 2425.8545 3299.8992 1959.4757 -943.4326 -1956.7566 -2448.1108 -2029.1656 -1506.3904 -2460.1958 -2448.9165 -2437.8386 -2426.9622 -2416.0857 -2405.4106 -2394.7356 -2384.0605 -2373.7883 -1463.5895 3299.8992 3299.8992 3299.8992 
3144.5068 3129.904 3107.5469 2200.3691 1285.2356 630.3314 40.38391 -361.54175 -103.326416 102.923584 -166.87317 -369.5984 -433.7494 -1354.2206 3112.985 3128.9978 3144.7083 3160.4187 3175.6255 3190.8325 3205.9387 3220.8435 3235.9497 3250.8545 3265.155 3279.7576 3294.461 -3291.1377 1494.6075 3298.3887 3284.491 3270.291 3255.9905 3241.8914 3227.6917 3213.391 3199.1912 3184.8906 3170.4895 3156.0881 3141.5862 3126.9836 3104.2236 2311.853 1535.7971 719.1559 30.917358 -320.05005 -36.557007 79.156494 -186.81335 -292.75818 -376.64795 -1568.4265 3109.0576 3125.07 3140.7805 3156.189 3171.698 3186.9048 3202.1118 3217.0166 3231.8206 3246.4233 3261.4287 3276.0315 3290.0298 3299.8992 2033.8989 3292.5476 3278.4485 3264.45 3250.3508 3236.0503 3221.7498 3207.6506 3193.5515 3179.1504 3164.749 3150.348 3135.846 3121.2432 2989.517 1996.9391 1183.7219 421.3623 -237.26807 -605.1544 -368.5913 -230.82275 -513.81226 -618.9514 -777.86865 -2016.1743 3119.934 3135.846 3151.4556 3166.864 3182.2722 3197.3784 3212.384 3227.2888 3242.1936 3256.6956 3271.399 3285.901 3299.8992 -3133.3281 2821.4355 3299.295 3285.1958 3270.996 3256.7961 3242.5964 3228.3965 3214.1968 3199.8962 3185.4949 3171.0938 3156.5918 3142.1904 3127.588 2882.2632 1972.5677 1250.592 580.9845 16.818237 -324.98474 -16.113281 79.559326 -246.93604 -411.89575 -595.58716 -2016.5771 3118.1213 3133.9324 3149.6428 3165.0513 3180.4595 3195.3643 3210.5713 3225.5767 3240.3809 3254.782 3269.7876 3284.2896 3298.2878 -2935.1348 3292.2454 3295.7703 3281.6711 3267.572 3253.2715 3239.1724 3224.9724 3210.7727 3196.4722 3182.1716 3167.6697 3153.067 3138.8672 3123.9624 2723.245 1692.3981 924.2981 246.73462 -220.1477 -500.92163 -199.30115 -117.42554 -354.19006 -511.49597 -690.152 -2165.4236 3124.4658 3140.1763 3155.7861 3171.2952 3186.502 3201.6082 3216.6138 3231.5186 3246.6248 3261.4287 3275.6287 3290.1306 3299.8992 -2515.5852 3299.8992 3298.2878 3284.2896 3270.0896 3255.89 3241.5894 3227.4902 3213.1897 3198.8892 3184.4878 3170.0867 3155.6853 
3299.8992 3299.8992 3299.8992 3299.8992 3299.8992 3299.8992 3299.8992 3299.8992 1520.4895 -3245.0134 -3228.7993 -3213.0889 -3197.4792 -3181.9702 -3166.7632 -3151.7578 -3136.853 -3122.0488 -3107.3455 -3092.8435 -3078.4424 -3064.1418 -3050.4456 -3036.145 -3022.1465 -3008.2488 -2994.6533 -2981.1584 -1869.342 -179.15955 1593.1 3299.8992 3299.8992 3299.8992 3299.8992 3299.8992 3299.8992 3299.8992 3299.8992 3299.8992 3299.8992 3299.8992 3299.8992 3299.8992 3299.8992 3299.8992 3299.8992 3299.8992 1062.8723 -3246.6248 -3230.612 -3214.801 -3199.1912 -3183.783 -3168.576 -3153.5706 -3138.565 -3123.8616 -3109.0576 -3094.6562 -3080.1543 -3066.0552 -3052.1575 -3037.7563 -3023.7578 -3009.961 -2996.2646 -2982.7698 -2083.4473 -352.47803 1559.6649 3299.8992 3299.8992 3299.8992 3299.8992 3299.8992 3299.8992 3299.8992 3299.8992 3299.8992 3299.8992 3299.8992 3299.8992 3299.8992 3299.8992 3299.8992 3299.8992 3299.8992 361.64246 -3244.0063 -3227.7922 -3211.9812 -3196.5728 -3181.0637 -3165.9575 -3150.9521 -3136.0474 -3121.2432 -3106.5398 -3092.0378 -3077.7373 -3063.4368 -3049.64 -3035.138 -3021.3408 -3007.443 -2993.8477 -2980.3528 -1957.3608 -113.59863 1747.1832 3299.8992 3299.8992 3299.8992 3299.8992 3299.8992 3299.8992 3299.8992 3299.8992 3299.8992 3299.8992 3299.8992 3299.8992 3299.8992 3299.8992 3299.8992 3299.8992 3299.8992 -136.76147 -3242.0928 -3226.0803 -3210.269 -3194.76 -3179.4524 -3164.2456 -3149.24 -3134.3352 -3119.4304 -3104.9285 -3090.4265 -3076.0254 -3061.7249 -3047.4243 -3033.5266 -3019.7295 -3006.0332 -2992.337 -2978.9429 -1535.7971 286.7157 2209.5337 3299.8992 3299.8992 3299.8992 3299.8992 3299.8992 3299.8992 3299.8992 3299.8992 3299.8992 3299.8992 3299.8992 3299.8992 3299.8992 3299.8992 3299.8992 3299.8992 3299.8992 -738.1897 -3243.9055 -3227.893 -3212.0818 -3196.5728 -3181.0637 -3166.0583 -3151.0527 -3135.9465 -3121.2432 -3106.6406 -3092.1387 -3077.7373 -3063.5376 -3049.7405 -3035.44 -3021.4417 -3007.6445 -2994.049 -2980.3528 -1377.0813 678.1677 2435.321 3299.8992 3299.8992 3299.8992 3299.8992 3299.8992 3299.8992 3299.8992 3299.8992 3299.8992 
3104.828 3085.6934 1540.6311 214.81018 -366.17432 -574.942 -638.38806 -910.5011 116.82129 644.2291 773.03467 868.9087 915.5365 419.24744 -1407.0923 3281.1675 3101.7058 3118.5242 3135.0403 3151.657 3167.871 3183.8835 3199.4934 3215.5059 3231.2163 3246.8262 3262.1338 3277.8442 618.6493 3268.7805 3253.9763 3239.3738 3224.6704 3209.8662 3194.9614 3180.1575 3165.3533 3150.247 3135.2417 3120.0347 3105.13 3084.1826 1524.9207 348.349 41.99524 -215.51514 -311.59058 -628.5187 288.1256 661.853 688.9435 754.10156 764.978 193.7622 -1672.9614 3253.372 3097.9797 3114.9993 3131.7168 3147.931 3164.2456 3180.258 3195.868 3211.9812 3227.6917 3243.3013 3258.7097 -3284.0881 869.3115 3263.745 3249.1423 3234.3384 3219.635 3204.8308 3190.1274 3175.3235 3160.62 3145.6145 3130.4077 3115.3015 3100.1953 3054.776 1235.083 90.93933 -410.38513 -635.66895 -691.7633 -867.9016 168.68591 508.1726 558.6273 684.1095 776.1566 210.17761 -1755.0385 3136.9536 3105.835 3122.4517 3139.27 3155.5847 3171.7986 3187.8113 3203.2195 3219.4336 3234.9426 3250.653 3265.9607 -3025.8728 1546.875 3266.867 3252.2644 3237.561 3222.7568 3207.852 3193.2495 3178.4453 3163.6414 3148.4343 3133.429 3118.222 3103.1157 3010.0615 1196.9147 187.01477 -177.14539 -417.73682 -636.77673 -823.9929 142.099 490.448 499.00818 577.0569 681.2897 -132.83386 -2186.3708 3094.757 3111.7766 3128.595 3145.111 3161.325 3177.6396 3193.5515 3209.5642 3225.1738 3240.5823 3256.0913 3271.4995 -2906.836 1733.2855 3271.298 3256.5947 3241.8914 3226.9866 3212.2832 3197.4792 3182.5745 3167.6697 3152.664 3137.4573 3122.351 3107.2449 2959.909 1200.1373 201.81885 -141.39404 -395.78247 -559.3323 -644.8334 306.35376 616.73584 623.6847 661.04736 593.06946 -286.8164 -2410.3455 3097.577 3114.395 3131.2134 3147.6287 3164.0442 3180.1575 3196.0693 3212.1826 3227.6917 3243.3013 3258.609 3274.0173 -2508.737 2373.7883 3269.989 3255.1848 3240.4814 3225.6775 3210.8733 3196.17 3181.2651 3166.3604 3151.355 3136.148 3121.0417 
3299.8992 3299.8992 3299.8992 3299.8992 3299.8992 3299.8992 3299.8992 3299.8992 1969.3451 -1135.08 -3137.86 -3122.754 -3108.0505 -3093.5486 -3079.3486 -3065.2495 -3051.0498 -3037.152 -3023.1536 -3009.558 -2995.8618 -2982.1655 -2968.872 -2955.4778 -2942.1843 -2929.0923 -2915.8997 -2902.9082 -2000.1617 -921.7804 294.4702 1284.1278 2333.5051 3299.8992 3299.8992 3299.8992 3299.8992 3299.8992 3299.8992 3299.8992 3299.8992 3299.8992 3299.8992 3299.8992 3299.8992 3299.8992 3299.8992 3299.8992 1828.3539 -1183.9233 -3142.8955 -3127.7893 -3113.086 -3098.584 -3084.1826 -3069.983 -3055.9844 -3041.986 -3028.0884 -3014.1907 -3000.4944 -2987.1 -2973.6052 -2960.3118 -2946.9177 -2933.7249 -2920.6328 -2907.5408 -2226.2512 -1102.652 248.14453 1362.5793 2532.4036 3299.8992 3299.8992 3299.8992 3299.8992 3299.8992 3299.8992 3299.8992 3299.8992 3299.8992 3299.8992 3299.8992 3299.8992 3299.8992 3299.8992 3299.8992 1444.0521 -1426.4282 -3143.6003 -3128.4941 -3113.8916 -3099.2888 -3084.8877 -3070.7886 -3056.6895 -3042.691 -3028.6926 -3014.9963 -3001.1992 -2987.8052 -2974.6123 -2961.0168 -2947.7234 -2934.5305 -2921.338 -2908.3464 -2286.2732 -1245.758 97.48535 1262.7777 2421.3225 3299.8992 3299.8992 3299.8992 3299.8992 3299.8992 3299.8992 3299.8992 3299.8992 3299.8992 3299.8992 3299.8992 3299.8992 3299.8992 3299.8992 3299.8992 1139.1083 -1748.0896 -3138.4644 -3123.5596 -3108.9568 -3094.5557 -3080.0537 -3066.0552 -3051.956 -3037.9578 -3024.1606 -3010.4644 -2996.768 -2983.2732 -2969.7783 -2956.4849 -2943.0908 -2929.898 -2916.806 -2903.5125 -1869.1406 -849.8749 309.2743 1383.9294 2692.5293 3299.8992 3299.8992 3299.8992 3299.8992 3299.8992 3299.8992 3299.8992 3299.8992 3299.8992 3299.8992 3299.8992 3299.8992 3299.8992 3299.8992 3299.8992 830.9418 -2091.504 -3137.0544 -3122.2502 -3107.5469 -3093.1458 -3078.9458 -3064.746 -3050.647 -3036.6484 -3022.8516 -3008.9539 -2995.459 -2981.964 -2968.4692 -2955.1758 -2941.8823 -2928.6895 -2915.5974 -2837.8508 -1687.4634 -606.2622 437.87842 1418.3716 2642.7795 3299.8992 3299.8992 3299.8992 3299.8992 3299.8992 3299.8992 3299.8992 

644.43054 628.41797 506.662 356.50635 259.62524 244.41833 116.72058 -200.81177 -605.55725 -848.26355 -849.7742 -707.37305 -552.3834 -368.89343 -158.21228 -2.8198242 89.63013 83.48694 -0.20141602 -136.45935 -215.21301 -214.70947 -86.00464 69.58923 179.05884 245.02258 245.224 166.47034 66.16516 -52.06604 -78.75366 -47.836304 -60.424805 -93.15491 -106.54907 -140.7898 -192.453 -216.42151 -247.03674 -204.43726 -86.60889 4.3304443 51.260376 108.26111 132.63245 140.28625 147.03369 192.85583 213.7024 224.57886 214.10522 162.64343 115.008545 122.36023 152.1698 154.6875 166.87317 233.54187 282.18384 279.46472 218.13354 116.82129 51.763916 -27.493286 -118.13049 -200.81177 -250.46082 -298.29712 -306.8573 -359.93042 -428.51257 -405.85327 -312.59766 -251.66931 -233.23975 -253.38135 -223.67249 -148.54431 -82.88269 -80.667114 -137.0636 -163.75122 -84.2926 45.52002 193.6615 267.37976 254.69055 187.01477 101.916504 48.44055 80.163574 141.99829 209.87549 248.9502 209.27124 139.07776 98.0896 123.77014 194.36646 209.77478 64.65454 -88.92517 -83.184814 97.48535 209.37195 202.62451 155.09033 157.30591 171.30432 24.27063 -181.1737 -208.96912 -86.206055 158.5144 393.36548 613.00964 779.27856 848.06213 782.0984 603.7445 334.95483 48.54126 -271.5088 -551.57776 -717.8467 -797.6074 -791.76636 -669.90967 -550.06714 -514.4165 -521.46606 -490.6494 -366.37573 -227.6001 -207.65991 -171.20361 -154.78821 -130.01404 -96.37756 -89.227295 -70.69702 -48.54126 -40.585327 -29.003906 -1.9134521 31.420898 86.8103 90.83862 131.42395 219.64417 276.44348 293.76526 218.93921 104.434204 12.487793 -73.91968 -130.61829 -107.65686 -105.340576 -74.62463 -74.62463 -74.62463 -74.62463 -74.62463 -74.62463 -74.62463 -74.62463 -74.62463 -74.62463 -74.62463 -74.62463 -74.62463 -74.62463 -74.62463 -74.62463 -74.62463 -74.62463 -74.62463 -74.62463 -74.62463 110.27527 261.84082 368.4906 393.26477 366.47644 380.8777 394.17114 318.2373 171.90857 16.415405 -118.43262 -318.2373 -573.5321 -701.4313 -673.23303 -586.1206 -454.59595 -345.7306 -222.26257 -103.427124 -22.860718 46.829224 74.82605 48.239136 36.657715 5.8410645 -76.638794 -120.84961 -93.45703 -39.47754 -50.656128 -195.77637 -291.34827 -203.43018 -54.986572 80.86853 173.21777 163.34839 111.68518 93.255615 
63.24463 50.756836 5.4382324 -32.42798 -55.288696 -92.65137 -190.84167 -213.09814 -226.08948 -233.03833 -205.64575 -154.98962 -50.656128 -15.307617 43.103027 55.892944 2.3162842 1.2084961 82.9834 130.51758 120.44678 172.51282 229.81567 249.15161 139.682 44.815063 -4.1290283 41.088867 39.37683 27.593994 2.0141602 -34.34143 4.5318604 105.13916 82.37915 42.39807 33.233643 23.968506 35.147095 103.62854 127.29492 82.177734 46.728516 34.34143 79.45862 140.18555 148.54431 102.420044 122.76306 108.966064 65.66162 32.528687 47.53418 -25.479126 -75.32959 -33.33435 -47.634888 -151.66626 -233.23975 -248.84949 -262.7472 -271.8109 -301.7212 -294.2688 -262.9486 -203.93372 -147.2351 -92.752075 -79.35791 -48.843384 -37.86621 -77.645874 -82.07703 -87.11243 -219.54346 -259.32312 -212.89673 -175.83618 -95.16907 57.70569 162.44202 183.48999 269.2932 342.50793 370.10193 379.36707 369.29626 343.91785 364.16016 327.90527 184.69849 44.210815 -71.40198 -136.86218 -111.38306 -76.638794 -111.38306 -99.19739 -51.965332 1.7120361 44.41223 144.7174 210.68115 171.70715 117.82837 52.06604 22.457886 6.2438965 -49.346924 -41.793823 -51.461792 -77.545166 -110.37598 -124.4751 -145.62378 -160.83069 -185.30273 -206.75354 -185.00061 -89.02588 34.34143 94.16199 51.05896 2.5177002 -58.410645 -103.427124 -131.62537 -153.3783 -215.21301 -206.35071 -107.455444 57.70569 148.64502 106.75049 72.10693 9.869385 -26.989746 4.5318604 28.198242 20.443726 -1.9134521 69.68994 153.57971 206.85425 239.38293 239.08081 213.29956 214.40735 147.03369 67.474365 4.2297363 -49.850464 -55.993652 -21.652222 -9.970093 10.372925 3.8269043 3.3233643 -6.3446045 15.307617 -9.164429 -107.25403 -158.71582 -182.08008 -183.5907 -150.25635 -108.76465 -80.96924 -59.317017 -42.800903 -41.693115 -9.365845 -12.487793 -49.95117 -40.786743 -34.34143 -64.35242 -52.166748 -31.723022 4.0283203 62.338257 177.85034 179.7638 191.64734 214.70947 263.9557 250.66223 221.3562 148.54431 106.54907 131.52466 -5.7403564 -310.98633 -396.286 -428.714 -425.59204 -349.05396 -217.73071 -86.206055 53.07312 119.4397 14.904785 -46.42639 -27.29187 -6.1431885 -38.671875 -83.48694 -69.38782 -50.354004 -5.9417725 9.063721 -9.265137 -60.525513 -56.396484 114.001465 222.16187 163.65051 58.511353 4.7332764 25.378418 
3057.797 3074.716 3091.333 3107.3455 -3059.0056 -264.55994 2766.3481 3105.0293 3090.326 3075.824 3061.322 3046.6187 3032.2173 3018.6218 3005.6304 2991.934 2978.1372 2964.2395 2950.241 2936.1418 2922.2441 2908.145 2894.751 2880.7524 2867.3584 2853.5613 2840.4692 99.19739 2846.5117 2865.6462 2884.2773 2902.7068 2920.8342 2938.6597 2956.4849 2973.8066 2991.2292 3008.3496 3025.47 3042.389 3059.1064 3075.4211 3091.8364 3108.554 -3012.378 -37.96692 2871.1853 3104.0222 3089.3188 3074.716 3060.214 3045.6116 3031.311 3017.9167 3004.724 2991.0278 2977.2307 2963.2324 2949.234 2935.2356 2921.338 2907.7422 2893.643 2880.4504 2866.9556 2852.957 2839.6636 -1454.8279 2848.4253 2867.5598 2886.1907 2904.5195 2922.647 2940.4724 2958.0962 2975.6194 2992.9412 3010.0615 3027.0813 3044.0002 3060.8184 3077.6367 3093.6492 3110.4675 -2719.2168 339.4867 3116.2078 3102.008 3087.3047 3072.8027 3058.3008 3043.698 3029.3975 3016.0034 3002.8105 2989.215 2975.418 2961.3188 2947.2197 2933.4229 2919.3237 2905.8289 2891.7297 2878.5369 2865.1428 2851.0437 2837.7502 3299.8992 2849.7344 2868.7683 2887.5 2905.8289 2923.755 2941.681 2959.204 2976.7273 2994.1497 3011.1694 3028.189 3045.108 3061.9263 3078.7444 3095.2605 3111.1724 -2458.786 749.469 3113.9922 3099.2888 3084.6863 3070.0835 3055.481 3040.8782 3026.779 3013.4856 3000.1921 2986.6973 2972.7996 2958.9019 2944.8027 2930.905 2917.0073 2902.9082 2889.5142 2875.6165 2862.323 2848.526 2835.2324 2830.7007 2850.54 2869.4731 2888.1042 2906.433 2924.4597 2942.3857 2959.909 2977.4321 2994.754 3011.8743 3028.894 3045.7122 3062.4297 3078.6438 3095.059 3111.7766 -2167.035 818.3533 3112.1794 3097.577 3082.8735 3068.3716 3053.7688 3039.3677 3025.1677 3012.0757 2998.6816 2985.1868 2971.289 2957.2905 2943.2922 2929.2937 2915.396 2901.9011 2887.7014 2874.6094 2861.316 2847.2168 2833.722 2831.8083 2851.547 2870.581 2889.1113 2907.4402 2925.4668 2943.2922 2960.8154 2978.2378 2995.6604 3012.68 3029.8003 3046.6187 3063.2354 3080.1543 3096.167 3112.985 -1823.0164 1366.2048 3108.7554 3093.9514 3079.248 3064.746 3050.2441 3035.5408 3021.643 3008.551 2995.0562 2981.5613 2967.7642 2953.7659 2939.7673 2925.8696 
3299.8992 3299.8992 3299.8992 3299.8992 3299.8992 3299.8992 3299.8992 3299.8992 1053.7079 -2572.183 -2560.0981 -2548.114 -2536.432 -2524.7498 -2513.1682 -2501.6875 -2490.3076 -2478.827 -1663.1927 2441.565 3299.8992 1473.8617 -1101.947 -2418.6035 -2479.7332 -2105.8044 -1627.6428 -2450.83 -2439.7522 -2428.6743 -2417.7979 -2407.1228 -2396.347 -2385.7727 -2375.3997 -2365.0269 -923.59314 3299.8992 3299.8992 3299.8992 3299.8992 3299.8992 3299.8992 3299.8992 3299.8992 3299.8992 3299.8992 3299.8992 768.1 -2565.4358 -2553.3508 -2541.3665 -2529.6843 -2518.103 -2506.5215 -2495.0408 -2483.661 -2472.3816 -1218.2648 3114.2944 3299.8992 1669.4366 -534.4574 -2153.842 -2297.754 -1770.8496 -1587.6617 -2455.7646 -2444.4854 -2433.5083 -2422.6318 -2411.856 -2401.0803 -2390.4053 -2379.8308 -2369.5586 -416.02478 3299.8992 3299.8992 3299.8992 3299.8992 3299.8992 3299.8992 3299.8992 3299.8992 3299.8992 3299.8992 3299.8992 186.1084 -2568.9604 -2556.775 -2544.8914 -2533.1084 -2521.527 -2509.9456 -2498.3643 -2487.085 -2475.8057 -1011.71265 3299.8992 3299.8992 1465.6036 -778.07007 -2495.1416 -2483.56 -2058.8745 -2090.2954 -2452.9448 -2441.7664 -2430.789 -2419.9126 -2409.137 -2398.361 -2387.7869 -2377.3132 -2366.9402 302.32544 3299.8992 3299.8992 3299.8992 3299.8992 3299.8992 3299.8992 3299.8992 3299.8992 3299.8992 3299.8992 3299.8992 -831.0425 -2564.026 -2552.0415 -2540.158 -2528.3752 -2516.7937 -2505.313 -2493.8323 -2482.4524 -2471.173 -802.7435 3299.8992 3299.8992 1586.1511 -264.96277 -2320.3125 -2109.43 -1373.3551 -1727.7466 -2460.5986 -2449.2188 -2438.1409 -2427.2644 -2416.388 -2405.713 -2394.937 -2384.3628 -2373.9897 762.56104 3299.8992 3299.8992 3299.8992 3299.8992 3299.8992 3299.8992 3299.8992 3299.8992 3299.8992 3299.8992 3299.8992 -1427.7374 -2569.464 -2557.4797 -2545.5962 -2533.914 -2522.1313 -2510.6506 -2499.2705 -2487.7898 -2476.6113 -254.0863 3299.8992 3299.8992 1341.6321 -492.16003 -2296.9482 -2176.3 -1463.6902 -2172.0703 -2466.641 -2455.3618 -2444.284 -2433.307 -2422.3296 -2411.554 -2400.9795 -2390.4053 -2379.8308 1497.7295 3299.8992 3299.8992 3299.8992 3299.8992 3299.8992 3299.8992 3299.8992 3299.8992 3299.8992 3299.8992 3299.8992 -1887.1674 -2574.9023 -2562.8174 -2550.833 -2539.151 -2527.5696 -2515.988 -2504.5073 -2493.1274 -2481.7473 -24.77417 3299.8992 
3141.2842 3126.3794 2751.6448 1813.9526 1034.2712 404.64478 -226.19019 -458.32214 -141.79688 -143.50891 -458.52356 -578.97034 -877.771 -2583.1604 3128.6956 3144.5068 3159.8145 3175.2227 3190.631 3205.838 3220.7427 3235.5469 3250.2502 3264.8528 3279.5562 3294.058 -3291.9434 -2239.3433 3299.8992 3299.8992 3286.5051 3272.2046 3258.0046 3243.9055 3229.605 3215.4053 3201.004 3186.7034 3172.1008 3157.6995 3143.097 3128.1921 2676.1138 1759.0668 1070.5261 407.5653 -119.64111 -266.97693 -28.701782 49.649048 -192.15088 -396.286 -781.0913 -2702.902 3125.473 3141.3848 3156.7932 3172.3022 3187.509 3202.6152 3217.6208 3232.6262 3247.6318 3262.3352 3276.6357 3291.1377 3299.8992 -1736.6089 3299.8992 3295.0652 3280.966 3266.9678 3252.7678 3238.568 3224.3682 3210.0676 3195.6665 3181.2651 3166.864 3152.362 3138.162 3122.9553 2420.2148 1402.9633 758.6334 55.288696 -485.4126 -478.46375 -265.3656 -260.63232 -528.0121 -667.7948 -1196.0083 3291.4397 3137.3564 3153.067 3168.4753 3183.8835 3198.9897 3214.096 3229.0007 3243.805 3258.8103 3273.2117 3288.0156 3299.8992 -3283.6853 -1058.139 3299.8992 3299.8992 3289.0227 3274.6216 3260.5225 3246.3225 3232.022 3217.6208 3203.3203 3188.919 3174.417 3159.915 3145.3125 3128.4941 2424.3438 1345.8618 790.155 197.89124 -215.31372 -102.420044 22.961426 -31.622314 -272.31445 -425.89417 -1077.5757 3121.2432 3137.0544 3152.765 3168.274 3183.5815 3198.7883 3213.8945 3228.6987 3243.704 3258.307 3273.0103 3287.21 3299.8992 -3283.786 -311.28845 3299.8992 3298.7915 3284.793 3270.5933 3256.2927 3242.0928 3227.7922 3213.5925 3199.1912 3184.79 3170.3887 3155.7861 3141.1833 3123.2573 2351.9348 1302.1545 525.19226 -114.60571 -513.3087 -96.57898 137.76855 37.060547 -326.09253 -514.6179 -1182.7148 3122.0488 3138.0615 3153.6711 3169.1802 3184.4878 3199.6948 3214.7002 3229.7058 3244.5098 3259.5154 3273.9165 3288.4185 3299.8992 -3282.4768 -55.792236 3299.8992 3298.993 3284.9944 3270.7947 3256.4941 3242.2942 3228.0945 3213.693 3199.3926 3184.9915 3170.4895 3155.9875 3141.3848 3121.1426 2089.087 1105.1697 581.48804 -22.155762 -384.20105 -115.91492 -58.914185 -164.05334 -407.76672 -557.62024 -1298.9319 3127.0842 3143.097 3158.8074 3174.2156 3189.624 3204.6294 3219.8364 
3299.8992 3299.8992 3299.8992 3299.8992 3299.8992 3299.8992 3299.8992 3299.8992 -1728.653 -3245.3154 -3229.2021 -3213.4917 -3198.0835 -3182.675 -3167.3674 -3152.4626 -3137.5579 -3122.754 -3108.1511 -3093.6492 -3079.1472 -3064.9475 -3051.1504 -3036.8499 -3022.8516 -3009.0544 -2995.3582 -2914.6912 -1117.7582 904.86145 2662.9211 3299.8992 3299.8992 3299.8992 3299.8992 3299.8992 3299.8992 3299.8992 3299.8992 3299.8992 3299.8992 3299.8992 3299.8992 3299.8992 3299.8992 3299.8992 3299.8992 3299.8992 -2259.2834 -3248.0347 -3231.9214 -3216.3115 -3200.702 -3185.2935 -3170.1873 -3155.081 -3140.1763 -3125.3723 -3110.7695 -3096.2676 -3081.967 -3067.566 -3053.1646 -3039.2668 -3025.47 -3011.5723 -2997.876 -2751.5442 -1020.0714 935.17456 2748.825 3299.8992 3299.8992 3299.8992 3299.8992 3299.8992 3299.8992 3299.8992 3299.8992 3299.8992 3299.8992 3299.8992 3299.8992 3299.8992 3299.8992 3299.8992 3299.8992 3268.3777 -3211.2761 -3248.236 -3232.2234 -3216.513 -3200.9033 -3185.5957 -3170.3887 -3155.3833 -3140.4785 -3125.7751 -3111.0718 -3096.5698 -3082.1685 -3067.7673 -3053.4668 -3039.569 -3025.772 -3011.8743 -2998.178 -2793.2373 -1290.7745 827.92053 2743.5881 3299.8992 3299.8992 3299.8992 3299.8992 3299.8992 3299.8992 3299.8992 3299.8992 3299.8992 3299.8992 3299.8992 3299.8992 3299.8992 3299.8992 3299.8992 3299.8992 2793.2373 -3258.307 -3241.9922 -3225.9795 -3210.269 -3194.8608 -3179.4524 -3164.447 -3149.4414 -3134.5366 -3119.8333 -3105.2307 -3090.628 -3076.4282 -3062.1277 -3048.3306 -3034.1309 -3020.0317 -3006.3354 -2992.7397 -2796.8628 -1311.7218 932.75757 2851.7485 3299.8992 3299.8992 3299.8992 3299.8992 3299.8992 3299.8992 3299.8992 3299.8992 3299.8992 3299.8992 3299.8992 3299.8992 3299.8992 3299.8992 3299.8992 3299.8992 2533.7126 -3252.365 -3236.1511 -3220.2393 -3204.5288 -3189.1204 -3173.9136 -3158.8074 -3143.9026 -3128.9978 -3114.1936 -3099.6917 -3085.2905 -3070.8892 -3056.6895 -3042.9932 -3028.7932 -3014.795 -3001.0986 -2987.503 -2491.7175 -924.90234 1368.1183 3219.3328 3299.8992 3299.8992 3299.8992 3299.8992 3299.8992 3299.8992 3299.8992 3299.8992 3299.8992 3299.8992 3299.8992 3299.8992 3299.8992 3299.8992 3299.8992 3299.8992 2035.3088 -3250.0488 -3233.8347 -3218.0237 -3202.3132 -3187.0056 -3171.698 -3156.491 -3141.687 -3126.8828 -3112.1794 -3097.6775 -3083.2764 
3106.0364 2822.3418 929.4342 16.314697 -302.72827 -526.6022 -630.63354 -662.6587 238.17444 397.79663 361.13892 454.89807 479.068 -515.22217 -2652.4475 3107.4463 3124.3652 3140.8813 3157.2966 3173.6113 3189.7246 3205.536 3221.5483 3236.9568 3252.4658 3267.874 3283.1816 -2321.7224 2541.2659 3277.6428 3262.9395 3248.236 3233.2305 3218.4265 3203.6223 3188.8184 3173.8127 3158.7065 3143.4998 3128.2927 3113.1865 2727.072 1033.667 196.07849 -100.909424 -258.31604 -321.15784 -370.9076 560.9436 828.4241 799.11804 836.88354 606.4636 -505.85632 -2664.8345 3100.7996 3117.7185 3134.436 3150.8513 3167.166 3183.3801 3199.292 3214.801 3230.8135 3246.3225 3261.9324 3277.24 -1975.7904 2939.9688 3269.0825 3254.3792 3239.7766 3224.9724 3210.0676 3195.3643 3180.4595 3165.5547 3150.5493 3135.1409 3120.1355 3104.9285 2446.4995 655.1056 -125.68359 -391.0492 -661.04736 -801.3336 -717.746 136.76147 422.3694 453.68958 489.54163 352.57874 -788.5437 -2866.3513 3114.8987 3131.8176 3148.233 3164.5476 3180.8623 3196.7742 3212.686 3227.9937 3243.9055 3259.5154 3274.9236 3289.9292 -1660.3729 3192.6453 3279.8584 3265.2556 3250.4517 3235.5469 3220.7427 3205.9387 3191.034 3175.9277 3160.8215 3145.6145 3130.4077 3115.2007 2396.9512 784.21326 120.14465 -170.29724 -435.46143 -471.91772 -286.21216 519.85474 706.9702 710.8978 768.80493 508.57544 -729.02527 -2760.0037 3110.8704 3127.6885 3144.5068 3160.7207 3176.9348 3193.048 3208.96 3224.1667 3240.28 3255.789 3271.298 3286.5051 -1228.8391 3289.4255 3273.5137 3258.9111 3244.0063 3229.303 3214.4988 3199.594 3184.79 3169.7844 3154.4768 3139.4714 3124.2644 3108.554 2022.821 462.45117 -172.91565 -363.85803 -417.5354 -384.60388 -29.608154 880.6915 1025.5096 958.3374 970.22095 626.6052 -803.952 -2860.208 3103.8208 3120.639 3137.2559 3153.8726 3170.1873 3186.099 3202.2124 3217.52 3233.5327 3249.2432 3264.6514 3280.0598 -778.3722 3280.0598 3264.2485 3249.646 3235.0432 3220.0378 3205.3345 3190.5303 3175.7263 3160.62 3145.6145 3130.4077 3115.2007 3097.9797 1903.6835 393.4662 -127.29492 -334.95483 -529.5227 -572.1222 -282.18384 531.23474 739.5996 778.1708 776.66016 317.63306 -1114.5355 -2971.3896 3105.9355 3122.754 3139.3706 3155.6853 3172.1008 
3299.8992 3299.8992 3299.8992 3299.8992 3299.8992 3299.8992 3299.8992 3299.8992 327.90527 -2502.6946 -3133.9324 -3118.927 -3104.425 -3090.1245 -3075.824 -3061.7249 -3047.6257 -3033.6272 -3019.8303 -3006.0332 -2992.4377 -2978.842 -2965.5486 -2952.356 -2938.9617 -2925.8696 -2912.8784 -2843.8933 -1750.708 -670.0104 610.1898 1673.8678 2955.4778 3299.8992 3299.8992 3299.8992 3299.8992 3299.8992 3299.8992 3299.8992 3299.8992 3299.8992 3299.8992 3299.8992 3299.8992 3299.8992 3299.8992 3215.4053 198.7976 -2656.1736 -3132.019 -3117.2148 -3102.5115 -3088.211 -3073.9104 -3059.8113 -3045.813 -3031.8145 -3018.1182 -3004.4219 -2990.8264 -2977.3315 -2963.9373 -2950.6438 -2937.3503 -2924.1577 -2911.0657 -2522.4333 -1346.9696 -295.17517 895.3949 1937.1185 3299.8992 3299.8992 3299.8992 3299.8992 3299.8992 3299.8992 3299.8992 3299.8992 3299.8992 3299.8992 3299.8992 3299.8992 3299.8992 3299.8992 3299.8992 3119.6318 -87.81738 -2653.2532 -3136.9536 -3122.0488 -3107.5469 -3093.1458 -3078.7444 -3064.5447 -3050.5461 -3036.6484 -3022.7507 -3008.9539 -2995.459 -2981.964 -2968.5698 -2955.2764 -2942.0837 -2928.6895 -2915.5974 -2697.061 -1727.7466 -566.68396 691.3605 1804.8889 3299.8992 3299.8992 3299.8992 3299.8992 3299.8992 3299.8992 3299.8992 3299.8992 3299.8992 3299.8992 3299.8992 3299.8992 3299.8992 3299.8992 3299.8992 2783.7708 -315.92102 -3050.647 -3132.5225 -3117.7185 -3103.1157 -3088.8152 -3074.5146 -3060.4155 -3046.4172 -3032.5195 -3018.7224 -3005.0261 -2991.4307 -2977.835 -2964.5415 -2951.1475 -2937.854 -2924.8625 -2911.7705 -2723.8494 -1755.542 -565.17334 751.0803 1917.8833 3299.8992 3299.8992 3299.8992 3299.8992 3299.8992 3299.8992 3299.8992 3299.8992 3299.8992 3299.8992 3299.8992 3299.8992 3299.8992 3299.8992 3299.8992 2686.5874 -584.9121 -3142.8955 -3127.6885 -3113.086 -3098.584 -3084.082 -3069.882 -3055.8838 -3041.8853 -3027.887 -3014.1907 -3000.4944 -2986.8987 -2973.5046 -2960.0098 -2946.817 -2933.5234 -2920.4314 -2907.3394 -2611.6606 -1602.5665 -360.63538 851.6876 1970.6543 3299.8992 3299.8992 3299.8992 3299.8992 3299.8992 3299.8992 3299.8992 3299.8992 3299.8992 3299.8992 3299.8992 3299.8992 3299.8992 3299.8992 3299.8992 2251.9316 -966.7969 -3137.4573 -3122.4517 -3107.6477 -3093.1458 -3078.8452 -3064.6453 -3050.647 -3036.6484 -3022.7507 -3008.9539 -2995.3582 

142.60254 135.7544 49.54834 -16.415405 -119.4397 -208.96912 -172.10999 -27.593994 193.6615 256.80542 183.38928 130.8197 106.64978 -10.574341 -173.82202 -238.57727 -168.4845 -119.64111 -38.772583 48.54126 119.4397 193.46008 226.89514 196.68274 235.55603 365.26794 537.78076 662.558 739.1968 711.8042 711.19995 712.20703 761.1511 736.9812 458.42285 -61.73401 -740.30457 -1187.6495 -1236.2915 -1019.9707 -748.2605 -574.942 -485.21118 -417.83752 -312.09412 -210.98328 -209.47266 -236.56311 -249.0509 -201.2146 -101.916504 -2.4169922 -0.80566406 -73.41614 -85.80322 -68.481445 -58.914185 -79.055786 -115.008545 -167.07458 -162.84485 -68.68286 38.772583 124.97864 202.72522 229.01001 130.41687 17.321777 -69.58923 -114.30359 -42.39807 108.26111 208.7677 266.97693 224.07532 153.27759 172.51282 185.80627 186.2091 206.85425 246.33179 271.91162 286.7157 272.818 197.58911 147.73865 63.546753 -57.70569 -144.21387 -211.08398 -267.48047 -268.89038 -197.68982 -68.28003 163.34839 377.85645 568.396 638.7909 620.76416 514.4165 340.29236 161.93848 -64.956665 -315.92102 -503.43933 -638.28735 -676.8585 -627.713 -489.44092 -306.958 -90.03296 88.32092 121.65527 121.45386 91.744995 24.975586 88.42163 212.4939 315.21606 306.65588 157.80945 2.3162842 -45.92285 -34.140015 -21.450806 -4.3304443 -36.85913 -73.013306 -95.37048 -186.61194 -242.807 -267.17834 -255.89905 -234.95178 -190.53955 -128.302 -55.69153 -66.87012 -40.182495 -70.3949 -141.19263 -78.652954 -2.8198242 -3.1219482 38.269043 129.10767 137.36572 115.31067 122.561646 153.17688 149.45068 114.10217 90.93933 160.22644 212.19177 225.1831 141.49475 60.22339 76.538086 168.88733 195.17212 101.71509 -28.399658 -149.6521 -229.21143 -171.80786 -106.54907 -65.3595 -70.89844 -52.166748 -16.516113 4.1290283 38.671875 18.127441 -59.921265 -173.6206 -291.8518 -333.1421 -349.35608 -285.3058 -176.74255 -47.93701 58.007812 98.99597 79.660034 32.025146 -51.159668 -164.25476 -217.22717 -183.38928 -122.46094 -129.10767 -57.20215 69.68994 132.83386 203.93372 267.37976 322.86987 407.5653 465.87524 
30.413818 89.328 138.07068 129.10767 59.61914 14.904785 -29.406738 -62.23755 17.926025 108.86536 179.46167 274.0265 312.79907 298.90137 284.80225 181.57654 83.184814 48.641968 -1.2084961 -29.80957 -59.71985 -132.83386 -167.37671 -120.7489 -43.103027 30.615234 37.96692 5.1361084 24.874878 17.72461 -95.773315 -239.18152 -351.67236 -390.14282 -386.0138 -392.05627 -313.0005 -172.71423 -90.03296 -38.47046 52.56958 129.91333 169.08875 176.0376 166.57104 155.19104 183.48999 168.88733 129.6112 58.71277 -51.361084 -106.8512 -67.67578 25.177002 -17.523193 -84.2926 -144.91882 -148.74573 -119.94324 -62.539673 3.8269043 -7.7545166 -19.134521 9.768677 9.567261 0.40283203 35.247803 98.89526 138.87634 145.8252 93.15491 4.1290283 -76.7395 -140.8905 -131.12183 -88.82446 -62.942505 -12.286377 48.44055 92.34924 159.52148 194.46716 194.16504 181.77795 167.37671 109.87244 92.248535 65.86304 48.44055 36.254883 -30.413818 -117.62695 -174.22485 -156.80237 -173.72131 -205.34363 -272.61658 -312.19482 -261.438 -81.674194 122.86377 91.54358 8.459473 -76.638794 -176.94397 -266.17126 -254.89197 -214.60876 -169.693 -93.45703 -16.616821 44.210815 79.45862 171.20361 224.78027 251.16577 254.0863 267.8833 268.08472 251.97144 248.74878 191.64734 206.45142 237.87231 191.54663 139.88342 115.20996 76.034546 54.483032 25.27771 45.117188 47.332764 12.387085 -53.17383 -152.57263 -191.34521 -253.78418 -239.18152 -211.78894 -214.60876 -198.39478 -258.61816 -246.73462 -184.69849 -210.17761 -229.31213 -125.88501 99.801636 236.86523 236.05957 182.98645 55.08728 -64.35242 -98.99597 -28.500366 33.132935 95.37048 172.71423 196.78345 143.71033 78.85437 37.261963 24.673462 10.070801 22.659302 19.537354 64.956665 108.86536 82.58057 45.721436 50.958252 97.283936 132.0282 216.2201 307.36084 438.68408 504.4464 436.16638 310.28137 152.97546 15.509033 -129.81262 -222.36328 -275.73853 -316.62598 -401.2207 -423.27576 -365.57007 -249.65515 -181.1737 -131.82678 -84.49402 -99.298096 -109.57031 -72.30835 -34.140015 -2.8198242 13.394165 -30.81665 -67.77649 
2911.8713 2898.3765 2884.8816 2870.984 2857.5896 2843.8933 2830.2979 2831.607 2851.245 2870.1782 2888.809 2907.138 2925.064 2942.8894 2960.5132 2977.9358 2995.2576 3012.378 3029.3975 3046.2158 3062.9333 3079.1472 3096.0662 3111.8774 -1804.2847 1288.3575 3108.554 3093.8506 3079.248 3064.746 3050.1433 3035.44 3021.643 3008.4502 2995.1567 2981.4604 2967.5627 2953.665 2939.566 2925.6682 2911.972 2897.8728 2884.4788 2870.581 2857.2876 2843.4905 2829.7942 2833.722 2853.2593 2872.1924 2890.8232 2909.0515 2926.9775 2944.7021 2962.4268 2979.849 2997.0703 3014.2913 3031.2102 3048.0286 3064.746 3080.96 3097.3755 3114.1936 -1344.1498 1857.2571 3104.828 3090.0237 3075.5217 3061.0198 3046.4172 3031.9153 3018.1182 3004.9255 2991.632 2977.835 2963.9373 2949.939 2936.0413 2922.0427 2908.2458 2894.6501 2880.6519 2867.5598 2854.2664 2840.2678 2826.1687 2833.1177 2852.655 2871.6887 2890.1184 2908.3464 2926.3733 2944.098 2961.7217 2979.1443 2996.466 3013.4856 3030.5054 3047.4243 3064.041 3080.96 3097.476 3113.388 -1371.1395 1956.5552 3104.727 3090.0237 3075.6226 3061.0198 3046.4172 3032.0159 3018.1182 3005.0261 2991.4307 2977.835 2963.8367 2949.939 2936.0413 2922.0427 2908.145 2894.1467 2880.8533 2867.0562 2853.7627 2839.9658 2822.4426 2836.3403 2855.7769 2874.6094 2893.1396 2911.267 2929.2937 2947.0183 2964.6423 2982.0647 2999.286 3016.5068 3033.3252 3050.1433 3066.8608 3083.075 3099.3896 3125.2715 -1072.5403 1983.9478 3104.727 3090.225 3075.5217 3061.1206 3046.5178 3032.0159 3018.4204 3005.2275 2991.7327 2978.0364 2964.1387 2950.1404 2936.1418 2922.2441 2908.3464 2894.8516 2880.8533 2867.6604 2854.4678 2840.4692 2587.793 2839.0593 2858.3953 2877.2278 2895.6572 2913.8855 2931.8115 2949.5361 2967.16 2984.4817 3001.703 3018.8232 3035.7422 3052.6611 3069.1772 3085.9954 3102.1086 3258.609 -643.12134 2595.1445 3102.8137 3088.0095 3073.5076 3059.1064 3044.5037 3029.9011 3016.3054 3003.2134 2989.7185 2975.9216 2962.024 2948.0254 2934.1277 2920.1294 
3299.8992 1133.5693 -357.91626 -1885.9589 -1775.3815 -1187.7502 -1887.0667 -2478.827 -2467.3462 -2456.1675 -2445.0896 -2434.2131 -2423.1353 -2412.4602 -2401.7852 -2391.211 2307.2205 3299.8992 3299.8992 3299.8992 3299.8992 3299.8992 3299.8992 3299.8992 3299.8992 3299.8992 3299.8992 3299.8992 -2394.635 -2585.0737 -2572.9888 -2561.1052 -2549.423 -2537.741 -2526.1597 -2514.679 -2503.3997 -2489.6025 274.93286 3299.8992 3186.4014 446.3379 -895.3949 -2514.7795 -2374.3926 -1762.088 -2486.078 -2474.6978 -2463.3179 -2452.1392 -2441.2627 -2430.3862 -2419.5098 -2408.7341 -2398.1597 -2387.5854 3145.2117 3299.8992 3299.8992 3299.8992 3299.8992 3299.8992 3299.8992 3299.8992 3299.8992 3299.8992 3299.8992 3218.1243 -2590.1091 -2583.261 -2571.2769 -2559.3933 -2547.6104 -2536.029 -2524.4475 -2512.9668 -2501.486 -2422.1282 441.90674 3299.8992 2433.4075 -659.43604 -1845.2728 -2501.587 -2489.804 -1736.0046 -2471.7773 -2460.3972 -2449.2188 -2438.2415 -2427.365 -2416.5894 -2405.9143 -2395.2393 -2384.7656 -2374.3926 3299.8992 3299.8992 3299.8992 3299.8992 3299.8992 3299.8992 3299.8992 3299.8992 3299.8992 3299.8992 3299.8992 2904.016 -2583.3618 -2571.176 -2559.192 -2547.2075 -2535.6262 -2523.944 -2512.3625 -2500.9827 -2489.6025 -2185.3638 1254.5197 3299.8992 2963.2324 48.94409 -1083.9203 -2283.4534 -2011.3403 -1363.5864 -2479.9346 -2468.4539 -2457.1746 -2446.0967 -2435.0188 -2424.1423 -2413.4673 -2402.7922 -2392.218 -2345.59 3299.8992 3299.8992 3299.8992 3299.8992 3299.8992 3299.8992 3299.8992 3299.8992 3299.8992 3299.8992 3299.8992 2273.7854 -2589.203 -2576.9165 -2564.9321 -2553.0486 -2541.4673 -2529.8857 -2518.3044 -2506.9243 -2495.4436 -2108.7249 1573.2605 3299.8992 2348.2085 -478.56445 -2147.5981 -2500.2776 -2433.9111 -1919.8975 -2468.756 -2457.4768 -2446.4995 -2435.5225 -2424.5452 -2413.87 -2403.195 -2392.6208 -2382.0464 -2049.0051 3299.8992 3299.8992 3299.8992 3299.8992 3299.8992 3299.8992 3299.8992 3299.8992 3299.8992 3299.8992 3299.8992 2175.8972 -2582.0525 -2569.766 -2557.782 -2546.0999 -2534.317 -2522.7356 -2511.255 -2499.7742 -2488.2935 -1919.1925 1907.5104 3299.8992 
3234.6404 3249.4446 3264.047 3278.7505 3292.9504 -3292.749 -3278.0457 617.8436 3299.8992 3299.8992 3286.5051 3272.3052 3258.1055 3243.9055 3229.5044 3215.3044 3200.8025 3186.4014 3171.8994 3157.3975 3142.7947 3122.653 2213.9648 1279.9988 635.1654 32.83081 -448.9563 -237.06665 -67.57507 -66.36658 -259.82666 -344.4214 -1263.8855 3125.6743 3141.5862 3157.2966 3172.705 3188.0127 3203.119 3218.225 3233.13 3247.9338 3262.4358 3277.0386 3291.8425 3299.8992 -3280.0598 1161.969 3299.8992 3297.3816 3283.383 3268.982 3254.6814 3240.6829 3226.2817 3212.1826 3197.6807 3183.078 3168.6768 3154.074 3139.572 3099.2888 2052.6306 1194.9005 546.64307 -41.99524 -478.36304 -206.75354 -115.7135 -153.78113 -393.5669 -546.9452 -1611.8317 3128.4941 3144.406 3160.0159 3175.525 3190.8325 3205.9387 3220.7427 3235.6475 3250.653 3265.155 3279.8584 3294.159 -3291.641 -3277.0386 1628.5492 3299.8992 3297.6836 3283.484 3269.284 3254.9834 3240.7837 3226.4832 3212.1826 3197.7812 3183.2793 3168.7773 3154.2754 3139.572 3016.809 2017.7856 1212.9272 444.52515 -169.29016 -420.95947 -32.32727 -38.36975 -128.70483 -467.48657 -666.1835 -1875.8881 3131.012 3146.823 3162.332 3177.841 3193.048 3208.3557 3223.1597 3238.0645 3252.7678 3267.7734 3282.2754 3296.878 -3288.7207 -3269.4854 2361.2 3299.8992 3297.583 3283.484 3269.1833 3254.9834 3240.8843 3226.4832 3212.1826 3197.7812 3183.2793 3168.6768 3154.1748 3139.572 2954.672 2029.065 1163.5803 470.70923 -91.54358 -449.96338 -133.53882 -135.04944 -174.42627 -329.6173 -434.75647 -1771.6553 3130.005 3145.9167 3161.4258 3176.9348 3192.2424 3207.3486 3222.354 3237.2588 3252.063 3266.565 3281.1675 3295.3674 -3290.2312 -3082.0679 2958.499 3299.8992 3293.756 3279.7576 3265.7593 3251.2573 3236.9568 3222.7568 3208.4563 3193.9543 3179.5532 3165.0513 3150.5493 3135.745 2768.5637 1610.4218 842.22107 144.91882 -327.0996 -486.92322 -193.15796 -133.2367 -169.99512 -440.2954 -569.8059 -1960.9863 3135.2417 3151.0527 3166.5618 3181.9702 3197.177 3212.2832 3227.2888 
