wall_time,elapsed_s,F1_N,F2_N
2026-07-22T15:52:15.780,3.9183,39.9301,32.7604
2026-07-22T15:52:15.780,3.9183,39.793,32.5646
2026-07-22T15:52:15.788,3.924,39.793,32.7212
2026-07-22T15:52:15.799,3.928,39.8322,32.8779
2026-07-22T15:52:15.803,3.9341,40.028,32.9758
2026-07-22T15:52:15.811,3.9695,40.1259,32.9366
2026-07-22T15:52:15.827,3.9748,40.0867,32.7408
2026-07-22T15:52:15.833,3.9788,39.9105,32.6233
2026-07-22T15:52:15.851,3.9889,39.6559,32.5058
2026-07-22T15:52:15.853,3.9929,39.3426,32.4862
2026-07-22T15:52:15.869,4.0322,39.2839,32.4079
2026-07-22T15:52:15.886,4.0378,39.2643,32.4862
2026-07-22T15:52:15.886,4.0378,39.3035,32.4862
2026-07-22T15:52:15.906,4.0445,39.4014,32.6429
2026-07-22T15:52:15.910,4.0445,39.6755,32.5646
2026-07-22T15:52:15.918,4.0494,40.028,32.6429
2026-07-22T15:52:15.921,4.0899,40.0867,32.7016
2026-07-22T15:52:15.933,4.0929,40.165,32.7995
2026-07-22T15:52:15.951,4.097,40.0084,32.8191
2026-07-22T15:52:15.951,4.098,39.7538,32.8191
2026-07-22T15:52:15.965,4.105,39.5189,32.6821
2026-07-22T15:52:15.972,4.107,39.2839,32.4862
2026-07-22T15:52:16.005,4.1566,39.0489,32.3296
2026-07-22T15:52:16.006,4.1586,38.9706,32.075
2026-07-22T15:52:16.006,4.1606,38.8335,32.0163
2026-07-22T15:52:16.013,4.1646,38.814,31.9771
2026-07-22T15:52:16.025,4.1706,38.8335,31.9967
2026-07-22T15:52:16.031,4.1754,38.7944,32.0946
2026-07-22T15:52:16.066,4.2146,38.814,32.0359
2026-07-22T15:52:16.066,4.2146,38.7552,32.075
2026-07-22T15:52:16.066,4.2195,38.8335,32.075
2026-07-22T15:52:16.075,4.2256,38.8923,31.9576
2026-07-22T15:52:16.087,4.2326,38.8531,31.938
2026-07-22T15:52:16.096,4.2366,38.814,31.9967
2026-07-22T15:52:16.114,4.2791,38.6965,31.9184
2026-07-22T15:52:16.114,4.2791,38.4615,31.9771
2026-07-22T15:52:16.132,4.2791,38.2657,32.0359
2026-07-22T15:52:16.132,4.2791,38.1874,32.0946
2026-07-22T15:52:16.153,4.2926,38.3049,31.9771
2026-07-22T15:52:16.162,4.2956,38.4028,31.9771
2026-07-22T15:52:16.166,4.3334,38.579,31.9576
2026-07-22T15:52:16.194,4.3382,38.5986,31.7226
2026-07-22T15:52:16.194,4.3382,38.4615,31.6639
2026-07-22T15:52:16.194,4.3382,38.4223,31.6834
2026-07-22T15:52:16.200,4.3457,38.2265,31.7813
2026-07-22T15:52:16.216,4.355,38.2265,31.8988
2026-07-22T15:52:16.241,4.3945,38.3832,31.9771
2026-07-22T15:52:16.241,4.3945,38.4811,31.9771
2026-07-22T15:52:16.241,4.3945,38.5398,31.9771
2026-07-22T15:52:16.254,4.4062,38.4419,31.9967
2026-07-22T15:52:16.272,4.4102,38.4615,31.9771
2026-07-22T15:52:16.276,4.4102,38.3244,31.9576
2026-07-22T15:52:16.290,4.4566,38.3244,32.0163
2026-07-22T15:52:16.290,4.4576,38.4419,32.0359
2026-07-22T15:52:16.308,4.4576,38.5986,32.0946
2026-07-22T15:52:16.308,4.4643,38.7748,32.1142
2026-07-22T15:52:16.331,4.4736,38.8923,32.1925
2026-07-22T15:52:16.331,4.4756,38.7552,32.2317
2026-07-22T15:52:16.347,4.5179,38.8335,32.31
2026-07-22T15:52:16.356,4.5229,38.9119,32.2709
2026-07-22T15:52:16.371,4.5269,38.9902,32.2317
2026-07-22T15:52:16.373,4.5322,38.8531,32.31
2026-07-22T15:52:16.385,4.5382,38.8531,32.075
2026-07-22T15:52:16.393,4.5407,38.5594,31.9967
2026-07-22T15:52:16.402,4.5463,38.5007,31.9967
2026-07-22T15:52:16.430,4.5876,38.5007,32.1534
2026-07-22T15:52:16.430,4.5876,38.6965,32.2904
2026-07-22T15:52:16.430,4.5896,38.814,32.3296
2026-07-22T15:52:16.446,4.5956,38.8727,32.4079
2026-07-22T15:52:16.458,4.6014,38.8727,32.4079
2026-07-22T15:52:16.467,4.6063,38.8531,32.31
2026-07-22T15:52:16.471,4.6381,38.8531,32.2513
2026-07-22T15:52:16.495,4.6441,38.8531,32.3688
2026-07-22T15:52:16.495,4.6461,38.8923,32.2709
2026-07-22T15:52:16.508,4.6487,38.951,32.2904
2026-07-22T15:52:16.522,4.6567,38.8531,32.2317
2026-07-22T15:52:16.525,4.6587,38.8531,32.2317
2026-07-22T15:52:16.542,4.6992,38.6769,32.1925
2026-07-22T15:52:16.557,4.7032,38.6182,32.1338
2026-07-22T15:52:16.557,4.706,38.7552,32.1534
2026-07-22T15:52:16.565,4.706,39.0098,32.1338
2026-07-22T15:52:16.577,4.7121,39.3426,32.2513
2026-07-22T15:52:16.585,4.7162,39.4601,32.2709
2026-07-22T15:52:16.615,4.7555,39.5972,32.4079
2026-07-22T15:52:16.615,4.7555,39.3622,32.2121
2026-07-22T15:52:16.615,4.757,39.0881,32.1534
2026-07-22T15:52:16.627,4.763,38.8727,32.1534
2026-07-22T15:52:16.633,4.7691,38.6573,32.075
2026-07-22T15:52:16.662,4.8112,38.6965,32.0163
2026-07-22T15:52:16.668,4.8132,38.6769,31.9576
2026-07-22T15:52:16.668,4.8132,38.579,31.8597
2026-07-22T15:52:16.668,4.8192,38.4028,31.9184
2026-07-22T15:52:16.684,4.8269,38.4223,31.8401
2026-07-22T15:52:16.696,4.8357,38.4615,31.9184
2026-07-22T15:52:16.705,4.8743,38.5398,31.938
2026-07-22T15:52:16.725,4.8743,38.7944,32.1534
2026-07-22T15:52:16.725,4.8776,39.0293,32.4471
2026-07-22T15:52:16.732,4.8872,39.2643,32.5254
2026-07-22T15:52:16.742,4.892,39.3035,32.6429
2026-07-22T15:52:16.754,4.894,39.421,32.78
2026-07-22T15:52:16.770,4.9318,39.3426,32.7604
2026-07-22T15:52:16.781,4.9338,39.421,32.7212
2026-07-22T15:52:16.781,4.936,39.3035,32.5254
2026-07-22T15:52:16.795,4.9425,39.2447,32.2121
2026-07-22T15:52:16.815,4.9505,39.0881,32.0555
2026-07-22T15:52:16.815,4.9525,38.951,31.9184
2026-07-22T15:52:16.833,4.9926,39.0489,31.9771
2026-07-22T15:52:16.845,4.9926,39.1468,32.0163
2026-07-22T15:52:16.845,4.9946,39.2447,32.2121
2026-07-22T15:52:16.857,5.0007,39.3622,32.2709
2026-07-22T15:52:16.875,5.0046,39.421,32.3492
2026-07-22T15:52:16.877,5.0046,39.3035,32.2904
2026-07-22T15:52:16.892,5.05,39.2056,32.2904
2026-07-22T15:52:16.906,5.05,38.9902,32.31
2026-07-22T15:52:16.906,5.05,38.951,32.31
2026-07-22T15:52:16.913,5.0573,38.8923,32.31
2026-07-22T15:52:16.925,5.0625,38.9314,32.2904
2026-07-22T15:52:16.931,5.0889,39.0685,32.2513
2026-07-22T15:52:16.944,5.1075,39.1273,32.3296
2026-07-22T15:52:16.963,5.1119,39.2643,32.2904
2026-07-22T15:52:16.963,5.1119,39.0685,32.3883
2026-07-22T15:52:16.983,5.1211,38.9706,32.4275
2026-07-22T15:52:16.988,5.1251,39.1273,32.5058
2026-07-22T15:52:16.988,5.175,39.558,32.6233
2026-07-22T15:52:17.010,5.1841,39.9105,32.7016
2026-07-22T15:52:17.010,5.1861,40.1455,32.78
2026-07-22T15:52:17.010,5.1881,40.1259,32.7995
2026-07-22T15:52:17.033,5.1941,39.9301,32.9562
2026-07-22T15:52:17.050,5.1998,39.7343,33.0345
2026-07-22T15:52:17.050,5.239,39.6755,32.9953
2026-07-22T15:52:17.089,5.245,39.6559,32.9366
2026-07-22T15:52:17.089,5.245,39.7343,32.8974
2026-07-22T15:52:17.089,5.247,39.7734,32.7408
2026-07-22T15:52:17.089,5.251,39.4993,32.5646
2026-07-22T15:52:17.117,5.255,39.2643,32.4862
2026-07-22T15:52:17.121,5.257,39.0881,32.6429
2026-07-22T15:52:17.122,5.2588,39.0685,32.6821
2026-07-22T15:52:17.156,5.3081,39.2643,32.7995
2026-07-22T15:52:17.156,5.3091,39.5189,32.7995
2026-07-22T15:52:17.156,5.3135,39.7343,32.8191
2026-07-22T15:52:17.164,5.3195,39.8517,32.7408
2026-07-22T15:52:17.178,5.3245,39.8517,32.6625
2026-07-22T15:52:17.183,5.3275,39.6755,32.5841
2026-07-22T15:52:17.213,5.3806,39.3818,32.5254
2026-07-22T15:52:17.222,5.3827,39.2447,32.4275
2026-07-22T15:52:17.223,5.3827,39.186,32.3883
2026-07-22T15:52:17.228,5.3847,39.1273,32.3492
2026-07-22T15:52:17.240,5.3889,39.0489,32.3688
2026-07-22T15:52:17.248,5.3944,39.0098,32.3883
2026-07-22T15:52:17.248,5.4445,38.9314,32.4079
2026-07-22T15:52:17.280,5.4541,38.9314,32.4471
2026-07-22T15:52:17.292,5.4562,38.8335,32.4471
2026-07-22T15:52:17.292,5.4562,38.7552,32.4079
2026-07-22T15:52:17.292,5.4602,38.7356,32.3883
2026-07-22T15:52:17.310,5.4625,38.7161,32.3296
2026-07-22T15:52:17.318,5.4691,38.7356,32.4079
2026-07-22T15:52:17.320,5.509,38.6573,32.3688
2026-07-22T15:52:17.351,5.5195,38.579,32.31
2026-07-22T15:52:17.351,5.5195,38.5007,32.1925
2026-07-22T15:52:17.351,5.5219,38.4419,32.0163
2026-07-22T15:52:17.365,5.5239,38.3244,31.9967
2026-07-22T15:52:17.383,5.5279,38.3832,32.0555
2026-07-22T15:52:17.383,5.5279,38.6182,32.0946
2026-07-22T15:52:17.395,5.5339,38.7748,32.0555
2026-07-22T15:52:17.427,5.5743,38.9314,32.0946
2026-07-22T15:52:17.427,5.5743,38.9902,32.2317
2026-07-22T15:52:17.427,5.5743,39.0098,32.3296
2026-07-22T15:52:17.455,5.5853,38.9902,32.4275
2026-07-22T15:52:17.455,5.5883,38.8923,32.4667
2026-07-22T15:52:17.457,5.5883,38.8923,32.5841
2026-07-22T15:52:17.491,5.6346,39.0098,32.5841
2026-07-22T15:52:17.491,5.6346,39.0685,32.5646
2026-07-22T15:52:17.491,5.6346,39.0098,32.4079
2026-07-22T15:52:17.495,5.6438,38.9706,32.4471
2026-07-22T15:52:17.509,5.6509,38.8727,32.3296
2026-07-22T15:52:17.509,5.6572,38.814,32.31
2026-07-22T15:52:17.537,5.6957,38.951,32.2904
2026-07-22T15:52:17.537,5.697,39.1664,32.4275
2026-07-22T15:52:17.537,5.701,39.3231,32.5254
2026-07-22T15:52:17.555,5.7037,39.5189,32.5646
2026-07-22T15:52:17.564,5.7133,39.4601,32.5646
2026-07-22T15:52:17.580,5.7174,39.3035,32.6037
2026-07-22T15:52:17.605,5.772,39.0489,32.6625
2026-07-22T15:52:17.611,5.774,39.0685,32.8583
2026-07-22T15:52:17.611,5.775,39.186,32.8583
2026-07-22T15:52:17.615,5.7871,39.3231,32.8779
2026-07-22T15:52:17.624,5.7928,39.2643,32.78
2026-07-22T15:52:17.638,5.7969,39.2643,32.8583
2026-07-22T15:52:17.641,5.8039,39.3622,32.8387
2026-07-22T15:52:17.678,5.8501,39.558,32.9562
2026-07-22T15:52:17.678,5.8516,39.7343,33.0345
2026-07-22T15:52:17.680,5.8516,39.8126,33.1716
2026-07-22T15:52:17.689,5.8577,39.8322,33.2499
2026-07-22T15:52:17.693,5.8577,39.7538,33.2303
2026-07-22T15:52:17.714,5.8677,39.6364,33.2303
2026-07-22T15:52:17.714,5.8677,39.558,33.2499
2026-07-22T15:52:17.725,5.8795,39.4993,33.2107
2026-07-22T15:52:17.761,5.9221,39.4601,33.1324
2026-07-22T15:52:17.761,5.9221,39.4405,33.1324
2026-07-22T15:52:17.761,5.9221,39.421,33.1324
2026-07-22T15:52:17.765,5.9221,39.3622,33.1324
2026-07-22T15:52:17.778,5.9402,39.421,32.9953
2026-07-22T15:52:17.798,5.945,39.3426,32.9953
2026-07-22T15:52:17.800,5.945,39.2839,32.9366
2026-07-22T15:52:17.800,5.952,39.1664,33.0345
2026-07-22T15:52:17.838,5.9987,39.2056,33.0345
2026-07-22T15:52:17.838,6.0007,39.186,33.0149
2026-07-22T15:52:17.838,6.0027,39.186,32.8779
2026-07-22T15:52:17.843,6.0055,39.1664,32.917
2026-07-22T15:52:17.861,6.0135,39.186,33.0345
2026-07-22T15:52:17.863,6.0135,39.2447,33.0737
2026-07-22T15:52:17.873,6.0135,39.1468,33.0149
2026-07-22T15:52:17.885,6.0585,39.0881,32.9758
2026-07-22T15:52:17.909,6.0585,38.9314,32.917
2026-07-22T15:52:17.909,6.0585,38.9706,32.9562
2026-07-22T15:52:17.919,6.0585,38.9119,32.917
2026-07-22T15:52:17.926,6.0585,38.8727,32.9758
2026-07-22T15:52:17.934,6.0743,38.8727,32.8779
2026-07-22T15:52:17.952,6.106,38.8727,32.9562
2026-07-22T15:52:17.952,6.1182,38.9706,32.9758
2026-07-22T15:52:17.968,6.1218,38.9706,32.917
2026-07-22T15:52:17.973,6.1218,39.0098,32.7995
2026-07-22T15:52:17.979,6.1299,38.9902,32.6429
2026-07-22T15:52:17.995,6.1403,38.9314,32.7016
2026-07-22T15:52:17.998,6.1495,38.9119,32.7408
2026-07-22T15:52:18.027,6.1899,38.9119,32.7212
2026-07-22T15:52:18.027,6.1899,38.9314,32.6429
2026-07-22T15:52:18.027,6.1992,38.9902,32.7016
2026-07-22T15:52:18.042,6.2009,38.9706,32.6821
2026-07-22T15:52:18.051,6.2009,39.0293,32.6233
2026-07-22T15:52:18.061,6.2184,38.8727,32.6037
2026-07-22T15:52:18.070,6.2244,38.814,32.4275
2026-07-22T15:52:18.090,6.2636,38.5986,32.3296
2026-07-22T15:52:18.090,6.2636,38.4419,32.1142
2026-07-22T15:52:18.106,6.2701,38.4223,32.0163
2026-07-22T15:52:18.111,6.2701,38.2853,31.9967
2026-07-22T15:52:18.122,6.2793,38.3636,32.0359
2026-07-22T15:52:18.139,6.2793,38.4028,32.1142
2026-07-22T15:52:18.145,6.2966,38.4615,32.0946
2026-07-22T15:52:18.154,6.3023,38.4811,32.1534
2026-07-22T15:52:18.161,6.3347,38.6769,32.2121
2026-07-22T15:52:18.174,6.3387,38.7748,32.2513
2026-07-22T15:52:18.184,6.3448,38.8531,32.2513
2026-07-22T15:52:18.191,6.3528,38.6573,32.2709
2026-07-22T15:52:18.200,6.3588,38.5594,32.1142
2026-07-22T15:52:18.216,6.3646,38.5203,32.0555
2026-07-22T15:52:18.223,6.3706,38.4419,31.9967
2026-07-22T15:52:18.237,6.4162,38.4615,32.0359
2026-07-22T15:52:18.251,6.4182,38.4811,32.0946
2026-07-22T15:52:18.251,6.427,38.4811,32.075
2026-07-22T15:52:18.274,6.4351,38.4419,32.1534
2026-07-22T15:52:18.274,6.4351,38.4028,32.1338
2026-07-22T15:52:18.285,6.4411,38.3636,32.2121
2026-07-22T15:52:18.293,6.4431,38.4811,32.1925
2026-07-22T15:52:18.305,6.4773,38.6573,32.2709
2026-07-22T15:52:18.323,6.4832,38.7552,32.4079
2026-07-22T15:52:18.325,6.4832,38.7161,32.5254
2026-07-22T15:52:18.335,6.4902,38.7356,32.6625
2026-07-22T15:52:18.346,6.493,38.7552,32.6233
2026-07-22T15:52:18.354,6.5004,38.7552,32.5058
2026-07-22T15:52:18.366,6.5454,38.8335,32.5058
2026-07-22T15:52:18.382,6.5539,38.9902,32.5841
2026-07-22T15:52:18.382,6.5567,39.0685,32.6037
2026-07-22T15:52:18.382,6.5567,39.0489,32.6429
2026-07-22T15:52:18.404,6.5668,39.0489,32.5646
2026-07-22T15:52:18.414,6.5726,39.0293,32.78
2026-07-22T15:52:18.425,6.5828,39.0881,32.78
2026-07-22T15:52:18.445,6.6397,39.1468,32.78
2026-07-22T15:52:18.463,6.6414,39.1664,32.6821
2026-07-22T15:52:18.463,6.6414,39.0881,32.78
2026-07-22T15:52:18.466,6.6542,39.1077,32.8779
2026-07-22T15:52:18.482,6.6557,39.3622,33.0541
2026-07-22T15:52:18.487,6.6557,39.4993,33.2303
2026-07-22T15:52:18.493,6.6557,39.5972,33.2695
2026-07-22T15:52:18.503,6.6718,39.8517,33.4065
2026-07-22T15:52:18.513,6.7139,39.9888,33.4457
2026-07-22T15:52:18.513,6.7139,40.0671,33.4261
2026-07-22T15:52:18.544,6.7193,40.0671,33.5044
2026-07-22T15:52:18.544,6.7193,40.3021,33.5632
2026-07-22T15:52:18.559,6.7193,40.4196,33.6415
2026-07-22T15:52:18.562,6.7193,40.4783,33.7003
2026-07-22T15:52:18.576,6.7349,40.5371,33.759
2026-07-22T15:52:18.588,6.7414,40.4979,33.7198
2026-07-22T15:52:18.592,6.7414,40.4979,33.7003
2026-07-22T15:52:18.608,6.7871,40.2825,33.6415
2026-07-22T15:52:18.624,6.7871,40.2238,33.6415
2026-07-22T15:52:18.624,6.7926,40.1063,33.6219
2026-07-22T15:52:18.635,6.7982,40.2825,33.6415
2026-07-22T15:52:18.640,6.7982,40.4783,33.6023
2026-07-22T15:52:18.653,6.8141,40.7133,33.524
2026-07-22T15:52:18.662,6.8221,40.6937,33.4457
2026-07-22T15:52:18.675,6.8614,40.4392,33.3478
2026-07-22T15:52:18.687,6.8614,40.1846,33.1716
2026-07-22T15:52:18.687,6.8614,40.0867,33.0345
2026-07-22T15:52:18.703,6.8614,40.0671,33.0345
2026-07-22T15:52:18.713,6.8771,40.2042,33.1716
2026-07-22T15:52:18.719,6.8855,40.4587,33.2303
2026-07-22T15:52:18.743,6.8877,40.5566,33.2303
2026-07-22T15:52:18.743,6.8877,40.4392,33.2499
2026-07-22T15:52:18.750,6.9248,40.3804,33.2891
2026-07-22T15:52:18.766,6.9294,40.1063,33.0345
2026-07-22T15:52:18.776,6.9294,40.028,33.0737
2026-07-22T15:52:18.782,6.9375,40.1455,32.9953
2026-07-22T15:52:18.782,6.9415,40.2825,32.9758
2026-07-22T15:52:18.806,6.9415,40.4392,33.0932
2026-07-22T15:52:18.808,6.9415,40.4979,33.1912
2026-07-22T15:52:18.831,6.988,40.4392,33.2107
2026-07-22T15:52:18.831,6.988,40.4,33.0149
2026-07-22T15:52:18.831,6.9952,40.2825,32.9953
2026-07-22T15:52:18.850,6.9952,40.3804,32.9953
2026-07-22T15:52:18.862,7.0064,40.4196,32.8387
2026-07-22T15:52:18.876,7.0064,40.4,32.7995
2026-07-22T15:52:18.877,7.0417,40.4783,32.8974
2026-07-22T15:52:18.902,7.0506,40.772,32.8974
2026-07-22T15:52:18.902,7.0506,40.6937,32.8191
2026-07-22T15:52:18.916,7.0557,40.5762,32.78
2026-07-22T15:52:18.927,7.0557,40.4196,32.78
2026-07-22T15:52:18.927,7.0662,40.2825,32.7212
2026-07-22T15:52:18.940,7.0981,40.2042,32.5841
2026-07-22T15:52:18.956,7.1054,40.3804,32.5841
2026-07-22T15:52:18.962,7.1054,40.4392,32.5254
2026-07-22T15:52:18.971,7.1142,40.5175,32.6233
2026-07-22T15:52:18.987,7.1221,40.5175,32.6233
2026-07-22T15:52:18.991,7.1245,40.4783,32.6429
2026-07-22T15:52:19.019,7.156,40.4587,32.6037
2026-07-22T15:52:19.019,7.1644,40.5371,32.6233
2026-07-22T15:52:19.019,7.1707,40.5958,32.6233
2026-07-22T15:52:19.035,7.1763,40.6741,32.6037
2026-07-22T15:52:19.043,7.1798,40.635,32.5254
2026-07-22T15:52:19.051,7.2193,40.5566,32.5254
2026-07-22T15:52:19.066,7.2193,40.4392,32.4471
2026-07-22T15:52:19.066,7.2248,40.4392,32.4079
2026-07-22T15:52:19.082,7.2248,40.4392,32.31
2026-07-22T15:52:19.100,7.236,40.2825,32.2121
2026-07-22T15:52:19.109,7.242,40.1846,32.2317
2026-07-22T15:52:19.114,7.2719,40.1259,32.1338
2026-07-22T15:52:19.130,7.2719,40.0475,32.1142
2026-07-22T15:52:19.130,7.2719,40.0671,32.1534
2026-07-22T15:52:19.146,7.2875,40.0475,32.0946
2026-07-22T15:52:19.157,7.2875,40.0867,32.0359
2026-07-22T15:52:19.163,7.2875,40.0671,32.1925
2026-07-22T15:52:19.180,7.3354,40.1846,32.0946
2026-07-22T15:52:19.193,7.3364,40.2629,32.0946
2026-07-22T15:52:19.193,7.3419,40.2238,32.1142
2026-07-22T15:52:19.208,7.3419,40.165,32.0946
2026-07-22T15:52:19.208,7.3419,40.2434,32.2317
2026-07-22T15:52:19.208,7.3513,40.2629,32.1925
2026-07-22T15:52:19.240,7.3847,40.3413,32.2317
2026-07-22T15:52:19.240,7.3847,40.5175,32.2317
2026-07-22T15:52:19.263,7.3939,40.635,32.2317
2026-07-22T15:52:19.263,7.3984,40.5958,32.2709
2026-07-22T15:52:19.272,7.3984,40.5762,32.2317
2026-07-22T15:52:19.289,7.43,40.5175,32.1338
2026-07-22T15:52:19.303,7.4418,40.4196,32.0163
2026-07-22T15:52:19.305,7.4465,40.165,31.9184
2026-07-22T15:52:19.315,7.4527,39.9692,31.9576
2026-07-22T15:52:19.319,7.4593,39.8517,31.8009
2026-07-22T15:52:19.335,7.4929,39.7734,31.7618
2026-07-22T15:52:19.351,7.4929,39.7538,31.6834
2026-07-22T15:52:19.351,7.4929,39.5776,31.6051
2026-07-22T15:52:19.366,7.4929,39.421,31.6051
2026-07-22T15:52:19.376,7.5089,39.421,31.5464
2026-07-22T15:52:19.383,7.5089,39.4797,31.5072
2026-07-22T15:52:19.398,7.542,39.6364,31.4876
2026-07-22T15:52:19.398,7.542,39.8517,31.5072
2026-07-22T15:52:19.414,7.5587,40.1846,31.6443
2026-07-22T15:52:19.430,7.5674,40.3413,31.7226
2026-07-22T15:52:19.430,7.5725,40.3608,31.8205
2026-07-22T15:52:19.445,7.594,40.3021,31.8009
2026-07-22T15:52:19.463,7.61,40.165,31.8009
2026-07-22T15:52:19.463,7.6107,40.028,31.8988
2026-07-22T15:52:19.463,7.6175,39.8322,31.9184
2026-07-22T15:52:19.491,7.6175,39.7538,31.9184
2026-07-22T15:52:19.493,7.6175,39.8517,31.938
2026-07-22T15:52:19.508,7.6583,40.0084,31.9967
2026-07-22T15:52:19.515,7.6583,40.1063,31.9967
2026-07-22T15:52:19.515,7.6583,40.2042,31.9771
2026-07-22T15:52:19.538,7.6583,40.2042,31.9184
2026-07-22T15:52:19.538,7.6583,40.1063,31.8009
2026-07-22T15:52:19.564,7.7101,40.0084,31.7422
2026-07-22T15:52:19.564,7.7125,39.8517,31.6639
2026-07-22T15:52:19.564,7.7125,39.7538,31.7422
2026-07-22T15:52:19.579,7.7125,39.6755,31.8009
2026-07-22T15:52:19.597,7.7262,39.7734,31.7422
2026-07-22T15:52:19.599,7.7588,39.8126,31.8988
2026-07-22T15:52:19.616,7.7588,39.9105,31.9184
2026-07-22T15:52:19.616,7.7588,39.793,32.0163
2026-07-22T15:52:19.633,7.7588,39.8517,32.0163
2026-07-22T15:52:19.647,7.7783,39.9301,31.9771
2026-07-22T15:52:19.647,7.8084,40.0475,31.9184
2026-07-22T15:52:19.663,7.8084,40.1846,32.1338
2026-07-22T15:52:19.663,7.8084,40.4979,32.0359
2026-07-22T15:52:19.679,7.8084,40.5371,32.2317
2026-07-22T15:52:19.701,7.823,40.4979,32.31
2026-07-22T15:52:19.711,7.8539,40.3217,32.4471
2026-07-22T15:52:19.711,7.8591,40.1846,32.4667
2026-07-22T15:52:19.711,7.8591,40.1259,32.4079
2026-07-22T15:52:19.729,7.8591,40.1846,32.2709
2026-07-22T15:52:19.744,7.8591,40.3021,32.2317
2026-07-22T15:52:19.759,7.8863,40.1455,32.173
2026-07-22T15:52:19.775,7.9018,40.028,32.075
2026-07-22T15:52:19.775,7.9018,39.8909,32.1925
2026-07-22T15:52:19.780,7.9018,39.8126,31.8401
2026-07-22T15:52:19.794,7.9429,39.6364,31.7813
2026-07-22T15:52:19.807,7.9429,39.793,31.703
2026-07-22T15:52:19.807,7.9429,39.8517,31.7618
2026-07-22T15:52:19.822,7.9498,39.9888,31.7813
2026-07-22T15:52:19.822,7.9498,39.9888,31.9184
2026-07-22T15:52:19.840,7.9886,40.0084,31.9967
2026-07-22T15:52:19.854,7.9901,39.9105,31.938
2026-07-22T15:52:19.864,7.9901,39.8909,31.8597
2026-07-22T15:52:19.880,7.9972,39.6559,31.8792
2026-07-22T15:52:19.886,8.029,39.7538,31.938
2026-07-22T15:52:19.904,8.029,39.9301,32.0555
2026-07-22T15:52:19.904,8.029,40.2238,32.173
2026-07-22T15:52:19.918,8.029,40.4979,32.2904
2026-07-22T15:52:19.918,8.0448,40.4783,32.2513
2026-07-22T15:52:19.934,8.0769,40.3608,32.1142
2026-07-22T15:52:19.950,8.0769,40.028,32.0163
2026-07-22T15:52:19.950,8.0769,39.7734,31.8792
2026-07-22T15:52:19.966,8.0894,39.6168,31.8597
2026-07-22T15:52:19.966,8.1087,39.6559,31.7813
2026-07-22T15:52:19.981,8.1246,39.6168,31.703
2026-07-22T15:52:19.981,8.1246,39.4993,31.6051
2026-07-22T15:52:19.998,8.1246,39.3035,31.5268
2026-07-22T15:52:20.013,8.1246,39.2447,31.4289
2026-07-22T15:52:20.029,8.16,39.1468,31.3897
2026-07-22T15:52:20.029,8.16,39.2056,31.2918
2026-07-22T15:52:20.045,8.1727,39.1468,31.3701
2026-07-22T15:52:20.045,8.1727,39.2056,31.468
2026-07-22T15:52:20.061,8.2067,39.3818,31.5072
2026-07-22T15:52:20.081,8.2067,39.558,31.5072
2026-07-22T15:52:20.081,8.2067,39.6951,31.5072
2026-07-22T15:52:20.093,8.2067,39.558,31.5855
2026-07-22T15:52:20.093,8.223,39.4993,31.6443
2026-07-22T15:52:20.126,8.2523,39.5189,31.7422
2026-07-22T15:52:20.127,8.2523,39.5384,31.8009
2026-07-22T15:52:20.127,8.2523,39.5972,31.7813
2026-07-22T15:52:20.144,8.2602,39.5384,31.7618
2026-07-22T15:52:20.144,8.2846,39.421,31.6834
2026-07-22T15:52:20.164,8.3006,39.2447,31.5855
2026-07-22T15:52:20.173,8.3087,39.1468,31.4876
2026-07-22T15:52:20.181,8.3308,39.0293,31.3506
2026-07-22T15:52:20.189,8.3435,39.1468,31.4289
2026-07-22T15:52:20.205,8.3475,39.3231,31.4093
2026-07-22T15:52:20.221,8.3519,39.4405,31.5268
2026-07-22T15:52:20.229,8.3519,39.4601,31.6247
2026-07-22T15:52:20.235,8.3519,39.5384,31.6443
2026-07-22T15:52:20.251,8.3786,39.5189,31.6639
2026-07-22T15:52:20.251,8.3786,39.6168,31.8205
2026-07-22T15:52:20.267,8.3786,39.5972,31.938
2026-07-22T15:52:20.273,8.3943,39.6364,32.0163
2026-07-22T15:52:20.286,8.4262,39.5972,31.938
2026-07-22T15:52:20.299,8.4262,39.4601,31.7813
2026-07-22T15:52:20.299,8.4262,39.2643,31.7618
2026-07-22T15:52:20.315,8.4262,39.1077,31.6247
2026-07-22T15:52:20.331,8.461,39.1273,31.6834
2026-07-22T15:52:20.331,8.461,39.186,31.7226
2026-07-22T15:52:20.331,8.461,39.3231,31.8205
2026-07-22T15:52:20.347,8.474,39.3426,31.7813
2026-07-22T15:52:20.364,8.5059,39.3818,31.6834
2026-07-22T15:52:20.382,8.5059,39.3426,31.6247
2026-07-22T15:52:20.382,8.5059,39.2056,31.6051
2026-07-22T15:52:20.395,8.5059,39.0293,31.5464
2026-07-22T15:52:20.410,8.5436,39.0489,31.5268
2026-07-22T15:52:20.410,8.5436,39.1077,31.5268
2026-07-22T15:52:20.427,8.5532,39.0489,31.4485
2026-07-22T15:52:20.427,8.5532,39.0881,31.4289
2026-07-22T15:52:20.458,8.5876,39.1468,31.5464
2026-07-22T15:52:20.458,8.5887,39.1664,31.5855
2026-07-22T15:52:20.464,8.5916,39.3231,31.6051
2026-07-22T15:52:20.474,8.5944,39.3818,31.7226
2026-07-22T15:52:20.493,8.6252,39.7538,31.8205
2026-07-22T15:52:20.502,8.6252,39.7147,31.8792
2026-07-22T15:52:20.508,8.6252,39.6364,31.7813
2026-07-22T15:52:20.519,8.6252,39.421,31.703
2026-07-22T15:52:20.530,8.6618,39.2447,31.6639
2026-07-22T15:52:20.530,8.6618,39.2252,31.6639
2026-07-22T15:52:20.546,8.6759,39.2447,31.7813
2026-07-22T15:52:20.546,8.6759,39.0489,31.7618
2026-07-22T15:52:20.565,8.7091,38.951,31.703
2026-07-22T15:52:20.582,8.7109,39.0098,31.6051
2026-07-22T15:52:20.582,8.7109,39.0685,31.5855
2026-07-22T15:52:20.596,8.7109,39.1468,31.6443
2026-07-22T15:52:20.610,8.7442,39.2447,31.5855
2026-07-22T15:52:20.618,8.7442,39.2056,31.6051
2026-07-22T15:52:20.625,8.7442,39.186,31.5464
2026-07-22T15:52:20.632,8.762,39.1077,31.468
2026-07-22T15:52:20.632,8.762,39.0881,31.468
2026-07-22T15:52:20.665,8.7939,38.9902,31.468
2026-07-22T15:52:20.665,8.7939,39.0293,31.6051
2026-07-22T15:52:20.665,8.7939,39.0489,31.6834
2026-07-22T15:52:20.683,8.7939,39.1077,31.703
2026-07-22T15:52:20.694,8.8417,39.0293,31.6443
2026-07-22T15:52:20.710,8.8446,38.9119,31.6834
2026-07-22T15:52:20.715,8.8446,38.8727,31.6443
2026-07-22T15:52:20.715,8.8446,38.9902,31.6834
2026-07-22T15:52:20.734,8.8585,39.2252,31.7422
2026-07-22T15:52:20.747,8.8737,39.4993,31.8205
2026-07-22T15:52:20.747,8.8737,39.7538,31.7422
2026-07-22T15:52:20.765,8.8895,39.6755,31.7618
2026-07-22T15:52:20.765,8.8895,39.4993,31.7422
2026-07-22T15:52:20.783,8.9224,39.2252,31.8597
2026-07-22T15:52:20.794,8.9224,39.186,31.8988
2026-07-22T15:52:20.794,8.9224,39.3426,31.8988
2026-07-22T15:52:20.810,8.9375,39.4797,31.8792
2026-07-22T15:52:20.826,8.9625,39.5189,31.938
2026-07-22T15:52:20.843,8.9691,39.6364,32.075
2026-07-22T15:52:20.843,8.9691,39.7343,32.1338
2026-07-22T15:52:20.843,8.9691,39.8909,32.2121
2026-07-22T15:52:50.802,38.9508,31.7257,39.0654
2026-07-22T15:52:50.815,38.9573,31.6082,38.9087
2026-07-22T15:52:50.815,38.9573,31.5103,38.7912
2026-07-22T15:52:50.820,38.9646,31.2558,38.8696
2026-07-22T15:52:50.831,38.9686,31.2949,38.7912
2026-07-22T15:52:50.849,39.0071,31.2558,38.6738
2026-07-22T15:52:50.863,39.0091,31.1187,38.4975
2026-07-22T15:52:50.863,39.0101,31.0012,38.5171
2026-07-22T15:52:50.872,39.0111,30.8642,38.478
2026-07-22T15:52:50.885,39.0194,30.9425,38.4975
2026-07-22T15:52:50.896,39.046,30.9817,38.6738
2026-07-22T15:52:50.907,39.046,31.1187,38.7912
2026-07-22T15:52:50.924,39.0581,31.2362,38.7717
2026-07-22T15:52:50.924,39.0581,31.3537,38.7521
2026-07-22T15:52:50.932,39.0613,31.3537,38.7912
2026-07-22T15:52:50.940,39.0691,31.3341,38.8108
2026-07-22T15:52:50.967,39.1059,31.2558,38.85
2026-07-22T15:52:50.967,39.1059,31.3537,38.8108
2026-07-22T15:52:50.967,39.114,31.3537,38.9087
2026-07-22T15:52:50.982,39.114,31.3341,38.8108
2026-07-22T15:52:50.990,39.1574,31.197,38.8108
2026-07-22T15:52:51.015,39.1574,31.3341,38.9479
2026-07-22T15:52:51.015,39.1574,31.3733,39.1241
2026-07-22T15:52:51.027,39.1694,31.3733,39.222
2026-07-22T15:52:51.035,39.1739,31.3929,39.2808
2026-07-22T15:52:51.049,39.176,31.5495,39.4374
2026-07-22T15:52:51.062,39.2103,31.6278,39.3591
2026-07-22T15:52:51.078,39.2103,31.6278,39.3003
2026-07-22T15:52:51.078,39.2103,31.6082,39.3983
2026-07-22T15:52:51.078,39.2172,31.7453,39.3983
2026-07-22T15:52:51.097,39.2206,31.7061,39.3983
2026-07-22T15:52:51.110,39.2522,31.6278,39.4766
2026-07-22T15:52:51.125,39.2522,31.6278,39.5157
2026-07-22T15:52:51.125,39.2522,31.6278,39.5353
2026-07-22T15:52:51.131,39.2522,31.6474,39.4374
2026-07-22T15:52:51.145,39.2678,31.6082,39.5745
2026-07-22T15:52:51.159,39.2993,31.5103,39.4178
2026-07-22T15:52:51.159,39.2993,31.3733,39.4962
2026-07-22T15:52:51.173,39.2993,31.4124,39.5745
2026-07-22T15:52:51.173,39.3085,31.4516,39.692
2026-07-22T15:52:51.197,39.3407,31.4908,39.7703
2026-07-22T15:52:51.205,39.3427,31.4712,39.8682
2026-07-22T15:52:51.205,39.346,31.4124,39.9661
2026-07-22T15:52:51.220,39.346,31.432,40.0248
2026-07-22T15:52:51.236,39.3537,31.2362,39.9269
2026-07-22T15:52:51.236,39.3786,31.1187,39.7703
2026-07-22T15:52:51.252,39.3786,31.0208,39.5745
2026-07-22T15:52:51.267,39.3905,31.0012,39.5353
2026-07-22T15:52:51.274,39.3939,31.06,39.457
2026-07-22T15:52:51.287,39.4266,31.2166,39.5157
2026-07-22T15:52:51.299,39.4266,31.06,39.4962
2026-07-22T15:52:51.299,39.4266,31.1579,39.6136
2026-07-22T15:52:51.315,39.4373,31.0404,39.5745
2026-07-22T15:52:51.330,39.4672,31.0991,39.5353
2026-07-22T15:52:51.330,39.4672,31.0404,39.3983
2026-07-22T15:52:51.347,39.4703,31.0404,39.3003
2026-07-22T15:52:51.347,39.473,31.0208,39.1045
2026-07-22T15:52:51.362,39.5047,30.8446,38.9871
2026-07-22T15:52:51.378,39.5047,30.7075,38.9087
2026-07-22T15:52:51.388,39.5095,30.6096,38.9675
2026-07-22T15:52:51.397,39.5095,30.6684,38.8892
2026-07-22T15:52:51.410,39.5411,30.6292,38.9283
2026-07-22T15:52:51.410,39.5422,30.6488,38.9087
2026-07-22T15:52:51.425,39.5443,30.8446,38.9871
2026-07-22T15:52:51.430,39.5517,30.9229,39.1045
2026-07-22T15:52:51.444,39.5765,31.06,39.085
2026-07-22T15:52:51.457,39.5765,31.1775,39.1045
2026-07-22T15:52:51.465,39.5857,31.3733,39.1045
2026-07-22T15:52:51.472,39.6147,31.4124,39.1437
2026-07-22T15:52:51.491,39.6227,31.432,39.1437
2026-07-22T15:52:51.491,39.6227,31.2754,39.1829
2026-07-22T15:52:51.506,39.6306,31.0991,39.1633
2026-07-22T15:52:51.520,39.6625,30.7663,38.9871
2026-07-22T15:52:51.521,39.6668,30.6684,38.9479
2026-07-22T15:52:51.543,39.6709,30.6096,38.9675
2026-07-22T15:52:51.547,39.6709,30.6488,38.8892
2026-07-22T15:52:51.556,39.6709,30.7075,38.8892
2026-07-22T15:52:51.567,39.6957,30.8642,38.9283
2026-07-22T15:52:51.567,39.6957,30.9621,39.0654
2026-07-22T15:52:51.583,39.7127,30.9817,39.0654
2026-07-22T15:52:51.592,39.7171,30.9033,39.2416
2026-07-22T15:52:51.599,39.7481,30.9425,39.3591
2026-07-22T15:52:51.616,39.7519,31.1187,39.457
2026-07-22T15:52:51.616,39.7519,31.2558,39.5941
2026-07-22T15:52:51.638,39.7573,31.3145,39.8094
2026-07-22T15:52:51.638,39.7869,31.432,40.0053
2026-07-22T15:52:51.662,39.7889,31.2754,40.0836
2026-07-22T15:52:51.662,39.7889,31.2166,40.1227
2026-07-22T15:52:51.678,39.7889,31.1383,40.0836
2026-07-22T15:52:51.692,39.8212,31.2362,40.0053
2026-07-22T15:52:51.697,39.8212,31.3733,40.0053
2026-07-22T15:52:51.708,39.8212,31.6082,39.9661
2026-07-22T15:52:51.710,39.837,31.7845,40.0836
2026-07-22T15:52:51.725,39.8677,31.7061,40.2598
2026-07-22T15:52:51.742,39.8705,31.6082,40.436
2026-07-22T15:52:51.742,39.8715,31.5691,40.299
2026-07-22T15:52:51.758,39.8766,31.432,40.1815
2026-07-22T15:52:51.758,39.8766,31.3341,40.0444
2026-07-22T15:52:51.775,39.9109,31.2754,39.9465
2026-07-22T15:52:51.775,39.9109,31.2949,39.8094
2026-07-22T15:52:51.797,39.9148,31.1579,39.7507
2026-07-22T15:52:51.804,39.9203,31.1383,39.6528
2026-07-22T15:52:51.820,39.9461,31.2558,39.7899
2026-07-22T15:52:51.820,39.9461,31.432,39.9857
2026-07-22T15:52:51.835,39.9523,31.4908,40.2402
2026-07-22T15:52:51.851,39.9813,31.6082,40.3969
2026-07-22T15:52:51.852,39.9859,31.7061,40.5731
2026-07-22T15:52:51.867,39.9909,31.8432,40.6906
2026-07-22T15:52:51.873,39.9946,31.8432,40.671
2026-07-22T15:52:51.897,40.0264,31.7453,40.7297
2026-07-22T15:52:51.897,40.028,31.6278,40.7689
2026-07-22T15:52:51.917,40.0317,31.4516,40.7297
2026-07-22T15:52:51.917,40.0328,31.432,40.6318
2026-07-22T15:52:51.932,40.0628,31.197,40.4948
2026-07-22T15:52:51.932,40.0628,31.06,40.5144
2026-07-22T15:52:51.944,40.0628,31.1187,40.4556
2026-07-22T15:52:51.956,40.0732,31.2362,40.3381
2026-07-22T15:52:51.978,40.1005,31.2362,40.3185
2026-07-22T15:52:51.978,40.1021,31.2754,40.2402
2026-07-22T15:52:51.983,40.1056,31.2754,40.2598
2026-07-22T15:52:51.994,40.129,31.2949,40.2794
2026-07-22T15:52:52.016,40.1366,31.2558,40.3185
2026-07-22T15:52:52.017,40.1366,31.2362,40.3381
2026-07-22T15:52:52.027,40.1366,31.1187,40.3773
2026-07-22T15:52:52.050,40.1725,31.0991,40.3773
2026-07-22T15:52:52.050,40.1725,31.06,40.3577
2026-07-22T15:52:52.057,40.1769,31.06,40.2402
2026-07-22T15:52:52.065,40.1769,31.06,40.4556
2026-07-22T15:52:52.065,40.2107,31.1775,40.5339
2026-07-22T15:52:52.082,40.2127,31.3145,40.6123
2026-07-22T15:52:52.093,40.2127,31.3537,40.5535
2026-07-22T15:52:52.098,40.2237,31.2362,40.3773
2026-07-22T15:52:52.116,40.25,31.1383,40.2598
2026-07-22T15:52:52.116,40.25,30.8838,40.1032
2026-07-22T15:52:52.133,40.2599,30.6488,39.9074
2026-07-22T15:52:52.144,40.2599,30.5509,39.7311
2026-07-22T15:52:52.165,40.2879,30.3159,39.6528
2026-07-22T15:52:52.165,40.2918,30.3551,39.5941
2026-07-22T15:52:52.171,40.2942,30.453,39.7703
2026-07-22T15:52:52.181,40.2942,30.6292,40.0248
2026-07-22T15:52:52.194,40.3266,30.6879,40.1815
2026-07-22T15:52:52.198,40.3266,30.8054,40.1619
2026-07-22T15:52:52.215,40.3345,30.825,40.1227
2026-07-22T15:52:52.232,40.3624,30.7467,40.1227
2026-07-22T15:52:52.232,40.3624,30.7075,40.1619
2026-07-22T15:52:52.247,40.3653,30.7271,40.064
2026-07-22T15:52:52.255,40.3704,30.7467,40.0836
2026-07-22T15:52:52.259,40.3964,30.6879,40.0444
2026-07-22T15:52:52.276,40.3982,30.6488,40.064
2026-07-22T15:52:52.286,40.4031,30.453,40.0248
2026-07-22T15:52:52.298,40.4181,30.4334,39.8486
2026-07-22T15:52:52.307,40.4341,30.4921,39.6724
2026-07-22T15:52:52.319,40.4341,30.4726,39.5745
2026-07-22T15:52:52.324,40.4341,30.5509,39.5353
2026-07-22T15:52:52.339,40.4658,30.6096,39.5745
2026-07-22T15:52:52.339,40.4658,30.7271,39.6332
2026-07-22T15:52:52.355,40.4736,30.7075,39.5941
2026-07-22T15:52:52.371,40.5019,30.7271,39.5745
2026-07-22T15:52:52.378,40.5019,30.8838,39.6724
2026-07-22T15:52:52.387,40.508,31.1579,39.6724
2026-07-22T15:52:52.394,40.511,31.4908,39.7899
2026-07-22T15:52:52.407,40.529,31.9803,39.7115
2026-07-22T15:52:52.418,40.529,32.3719,39.6528
2026-07-22T15:52:52.429,40.5447,32.7831,39.5157
2026-07-22T15:52:52.434,40.5447,32.8027,39.4374
2026-07-22T15:52:52.450,40.5778,32.7243,39.3199
2026-07-22T15:52:52.450,40.5778,32.4502,39.2024
2026-07-22T15:52:52.465,40.5837,32.4502,38.9675
2026-07-22T15:52:52.481,40.6076,32.274,38.9479
2026-07-22T15:52:52.486,40.6134,32.1369,38.8108
2026-07-22T15:52:52.497,40.6158,31.9999,38.85
2026-07-22T15:52:52.504,40.6217,31.9803,38.85
2026-07-22T15:52:52.515,40.6392,32.039,38.9283
2026-07-22T15:52:52.528,40.6538,31.9607,38.9871
2026-07-22T15:52:52.539,40.6548,31.7845,39.0458
2026-07-22T15:52:52.546,40.6842,31.6278,39.0066
2026-07-22T15:52:52.554,40.6868,31.7649,39.0654
2026-07-22T15:52:52.560,40.6868,31.7845,39.0458
2026-07-22T15:52:52.576,40.6868,31.8628,38.9871
2026-07-22T15:52:52.591,40.7192,31.7845,39.0262
2026-07-22T15:52:52.598,40.7226,31.804,39.1829
2026-07-22T15:52:52.607,40.7256,31.667,39.2024
2026-07-22T15:52:52.607,40.7256,31.4712,39.3003
2026-07-22T15:52:52.627,40.7496,31.4516,39.3787
2026-07-22T15:52:52.627,40.7496,31.5299,39.2612
2026-07-22T15:52:52.646,40.7656,31.6082,39.2416
2026-07-22T15:52:52.656,40.7898,31.7453,39.2612
2026-07-22T15:52:52.670,40.7949,31.6278,39.2808
2026-07-22T15:52:52.670,40.7976,31.5691,39.3199
2026-07-22T15:52:52.686,40.7976,31.5887,39.3003
2026-07-22T15:52:52.699,40.824,31.4908,39.222
2026-07-22T15:52:52.702,40.826,31.4712,39.2024
2026-07-22T15:52:52.718,40.8317,31.4124,39.2416
2026-07-22T15:52:52.718,40.8551,31.5495,39.222
2026-07-22T15:52:52.734,40.8551,31.5495,39.222
2026-07-22T15:52:52.747,40.8618,31.5887,39.2416
2026-07-22T15:52:52.752,40.8656,31.5887,39.3199
2026-07-22T15:52:52.767,40.892,31.6082,39.2808
2026-07-22T15:52:52.776,40.8946,31.5299,39.3395
2026-07-22T15:52:52.786,40.8967,31.4516,39.4178
2026-07-22T15:52:52.799,40.9077,31.5495,39.3787
2026-07-22T15:52:52.808,40.9234,31.5887,39.3395
2026-07-22T15:52:52.817,40.9234,31.5887,39.3003
2026-07-22T15:52:52.828,40.9527,31.6082,39.3787
2026-07-22T15:52:52.828,40.9527,31.4712,39.3199
2026-07-22T15:52:52.844,40.9561,31.4516,39.3395
2026-07-22T15:52:52.860,40.9848,31.5887,39.2808
2026-07-22T15:52:52.860,40.9892,31.6278,39.3983
2026-07-22T15:52:52.877,40.9928,31.6278,39.3983
2026-07-22T15:52:52.892,41.02,31.4908,39.4962
2026-07-22T15:52:52.901,41.0221,31.4712,39.5745
2026-07-22T15:52:52.909,41.0261,31.5495,39.6724
2026-07-22T15:52:52.916,41.0281,31.7257,39.7115
2026-07-22T15:52:52.923,41.0554,31.9411,39.8486
2026-07-22T15:52:52.923,41.0585,32.1369,39.9465
2026-07-22T15:52:52.947,41.0651,32.1957,39.8682
2026-07-22T15:52:52.956,41.0811,32.2544,39.8486
2026-07-22T15:52:52.971,41.0811,32.1369,39.8094
2026-07-22T15:52:52.976,41.094,31.9215,39.8878
2026-07-22T15:52:52.986,41.0994,31.7845,40.0248
2026-07-22T15:52:52.997,41.1234,31.7453,40.0836
2026-07-22T15:52:53.002,41.1244,31.6278,40.1423
2026-07-22T15:52:53.019,41.1279,31.5887,40.2794
2026-07-22T15:52:53.030,41.1598,31.667,40.3185
2026-07-22T15:52:53.041,41.1598,31.7061,40.4165
2026-07-22T15:52:53.046,41.1598,31.6474,40.4752
2026-07-22T15:52:53.054,41.1952,31.6474,40.3969
2026-07-22T15:52:53.073,41.2,31.6082,40.2598
2026-07-22T15:52:53.073,41.2,31.6278,40.2794
2026-07-22T15:52:53.080,41.2081,31.6866,40.2402
2026-07-22T15:52:53.092,41.234,31.7845,40.3381
2026-07-22T15:52:53.113,41.237,31.7649,40.3773
2026-07-22T15:52:53.116,41.24,31.804,40.3773
2026-07-22T15:52:53.127,41.243,31.804,40.3773
2026-07-22T15:52:53.140,41.2602,31.8824,40.5927
2026-07-22T15:52:53.152,41.2602,31.9215,40.6906
2026-07-22T15:52:53.158,41.2746,32.039,40.9256
2026-07-22T15:52:53.165,41.2802,32.1761,40.9647
2026-07-22T15:52:53.181,41.3103,31.9999,40.8472
2026-07-22T15:52:53.181,41.3103,31.9411,40.5144
2026-07-22T15:52:53.201,41.3134,31.6866,40.3185
2026-07-22T15:52:53.201,41.344,31.5887,39.9857
2026-07-22T15:52:53.215,41.344,31.3733,39.8878
2026-07-22T15:52:53.215,41.344,31.1383,39.7507
2026-07-22T15:52:53.234,41.3569,30.9033,39.8094
2026-07-22T15:52:53.249,41.3784,30.8054,39.7507
2026-07-22T15:52:53.261,41.3866,30.7858,39.7115
2026-07-22T15:52:53.265,41.3912,30.7858,39.6528
2026-07-22T15:52:53.265,41.3932,30.7467,39.692
2026-07-22T15:52:53.280,41.424,30.8054,39.5941
2026-07-22T15:52:53.299,41.424,30.8838,39.6136
2026-07-22T15:52:53.307,41.424,30.8054,39.6724
2026-07-22T15:52:53.314,41.424,30.8054,39.7899
2026-07-22T15:52:53.328,41.4544,30.8642,39.6528
2026-07-22T15:52:53.328,41.4544,30.9033,39.6136
2026-07-22T15:52:53.345,41.4544,30.7663,39.4374
2026-07-22T15:52:53.345,41.4859,30.7075,39.3199
2026-07-22T15:52:53.375,41.4859,30.59,39.2612
2026-07-22T15:52:53.375,41.4859,30.5509,39.3787
2026-07-22T15:52:53.375,41.5026,30.6292,39.2808
2026-07-22T15:52:53.401,41.517,30.6684,39.2808
2026-07-22T15:52:53.407,41.5327,30.6292,39.1829
2026-07-22T15:52:53.407,41.5327,30.6096,39.1437
2026-07-22T15:52:53.423,41.5327,30.5313,39.0458
2026-07-22T15:52:53.438,41.5642,30.3747,39.0654
2026-07-22T15:52:53.438,41.5673,30.2572,39.085
2026-07-22T15:52:53.453,41.5705,30.2768,39.1241
2026-07-22T15:52:53.469,41.6003,30.2963,39.1829
2026-07-22T15:52:53.469,41.6003,30.4921,39.3787
2026-07-22T15:52:53.488,41.6063,30.6879,39.3787
2026-07-22T15:52:53.495,41.6063,30.8446,39.4766
2026-07-22T15:52:53.501,41.6386,30.8838,39.5941
2026-07-22T15:52:53.517,41.6431,30.9621,39.7311
2026-07-22T15:52:53.527,41.651,30.9033,39.7311
2026-07-22T15:52:53.533,41.6791,30.9229,39.8878
2026-07-22T15:52:53.548,41.6791,31.06,39.9465
2026-07-22T15:52:53.548,41.6791,31.06,40.0248
2026-07-22T15:52:53.572,41.6945,31.06,40.0248
2026-07-22T15:52:53.572,41.7063,30.9621,40.0444
2026-07-22T15:52:53.579,41.7222,31.06,40.1423
2026-07-22T15:52:53.599,41.7264,31.0796,40.0444
2026-07-22T15:52:53.611,41.7309,31.1579,40.1423
2026-07-22T15:52:53.616,41.7352,31.197,40.2206
2026-07-22T15:52:53.627,41.7545,31.2166,40.299
2026-07-22T15:52:53.627,41.7545,31.2754,40.2402
2026-07-22T15:52:53.647,41.7545,31.2166,40.2794
2026-07-22T15:52:53.656,41.7695,31.2949,40.3773
2026-07-22T15:52:53.675,41.7852,31.3145,40.4948
2026-07-22T15:52:53.675,41.7852,31.4516,40.6514
2026-07-22T15:52:53.690,41.8013,31.4908,40.7102
2026-07-22T15:52:53.700,41.822,31.5691,40.6318
2026-07-22T15:52:53.706,41.8321,31.4124,40.6318
2026-07-22T15:52:53.722,41.8321,31.3537,40.6514
2026-07-22T15:52:53.722,41.8321,31.2362,40.671
2026-07-22T15:52:53.743,41.8642,31.2362,40.6318
2026-07-22T15:52:53.743,41.8642,31.2166,40.6514
2026-07-22T15:52:53.753,41.867,31.2558,40.5339
2026-07-22T15:52:53.768,41.8958,31.1383,40.5144
2026-07-22T15:52:53.768,41.8987,31.0991,40.4165
2026-07-22T15:52:53.788,41.8987,31.1187,40.436
2026-07-22T15:52:53.800,41.9262,31.1187,40.4556
2026-07-22T15:52:53.800,41.9319,31.2362,40.3969
2026-07-22T15:52:53.817,41.9319,31.1775,40.436
2026-07-22T15:52:53.819,41.9612,31.1775,40.5339
2026-07-22T15:52:53.833,41.9646,31.1775,40.6514
2026-07-22T15:52:53.847,41.9685,31.197,40.7493
2026-07-22T15:52:53.853,41.9743,31.1579,40.8472
2026-07-22T15:52:53.866,41.9987,31.0404,40.7493
2026-07-22T15:52:53.878,41.9987,31.0012,40.6906
2026-07-22T15:52:53.889,42.0047,30.9033,40.2402
2026-07-22T15:52:53.900,42.0203,30.9621,40.3381
2026-07-22T15:52:53.910,42.0203,31.0012,40.3773
2026-07-22T15:52:53.919,42.0363,31.0796,40.4556
2026-07-22T15:52:53.929,42.0363,31.0208,40.5339
2026-07-22T15:52:53.937,42.0653,31.1187,40.5927
2026-07-22T15:52:53.941,42.0688,31.0208,40.5535
2026-07-22T15:52:53.941,42.0688,30.9817,40.4556
2026-07-22T15:52:53.973,42.0996,30.9621,40.3969
2026-07-22T15:52:53.973,42.1044,31.0404,40.4752
2026-07-22T15:52:53.989,42.1071,31.2362,40.436
2026-07-22T15:52:53.995,42.1071,31.2166,40.4752
2026-07-22T15:52:54.005,42.1309,31.1775,40.4165
2026-07-22T15:52:54.005,42.1309,31.1579,40.4948
2026-07-22T15:52:54.028,42.1404,31.1187,40.4556
2026-07-22T15:52:54.043,42.1626,31.1579,40.4556
2026-07-22T15:52:54.052,42.1626,31.0012,40.436
2026-07-22T15:52:54.052,42.1626,30.9425,40.4165
2026-07-22T15:52:54.067,42.1785,30.9229,40.3577
2026-07-22T15:52:54.083,42.1943,30.9033,40.3381
2026-07-22T15:52:54.083,42.1943,30.9621,40.3381
2026-07-22T15:52:54.083,42.2118,30.9817,40.436
2026-07-22T15:52:54.101,42.242,31.06,40.3969
2026-07-22T15:52:54.115,42.2457,31.0796,40.4165
2026-07-22T15:52:54.115,42.2527,31.06,40.3773
2026-07-22T15:52:54.132,42.2567,30.9621,40.2794
2026-07-22T15:52:54.159,42.2807,30.8838,40.1032
2026-07-22T15:52:54.159,42.2848,30.8642,40.0248
2026-07-22T15:52:54.172,42.2848,30.8642,40.0836
2026-07-22T15:52:54.177,42.2848,30.9817,40.299
2026-07-22T15:52:54.182,42.3076,31.0208,40.4165
2026-07-22T15:52:54.197,42.3076,31.1579,40.6514
2026-07-22T15:52:54.205,42.3201,31.06,40.6514
2026-07-22T15:52:54.213,42.3485,31.0404,40.5927
2026-07-22T15:52:54.228,42.3505,30.9229,40.5731
2026-07-22T15:52:54.228,42.3525,30.9033,40.4948
2026-07-22T15:52:54.244,42.3595,30.7663,40.3969
2026-07-22T15:52:54.265,42.3857,30.7858,40.3185
2026-07-22T15:52:54.266,42.3857,30.6879,40.2794
2026-07-22T15:52:54.280,42.3937,30.7075,40.0836
2026-07-22T15:52:54.290,42.4186,30.6879,40.0444
2026-07-22T15:52:54.302,42.4186,30.7271,39.9269
2026-07-22T15:52:54.306,42.4253,30.7271,39.9074
2026-07-22T15:52:54.314,42.4253,30.7663,39.829
2026-07-22T15:52:54.330,42.4575,30.7271,39.7703
2026-07-22T15:52:54.330,42.4585,30.6488,39.6724
2026-07-22T15:52:54.346,42.4631,30.5509,39.7311
2026-07-22T15:52:54.346,42.4869,30.4726,39.8094
2026-07-22T15:52:54.363,42.4869,30.4726,39.8094
2026-07-22T15:52:54.378,42.4869,30.5509,39.8878
2026-07-22T15:52:54.384,42.5104,30.4921,39.9857
2026-07-22T15:52:54.402,42.5224,30.4726,40.0248
2026-07-22T15:52:54.402,42.5224,30.4921,39.9661
2026-07-22T15:52:54.417,42.5281,30.59,39.9465
2026-07-22T15:52:54.425,42.5413,30.6096,39.8486
2026-07-22T15:52:54.431,42.5572,30.7467,39.8682
2026-07-22T15:52:54.446,42.5572,30.9425,39.9465
2026-07-22T15:52:54.462,42.5852,31.06,40.0444
2026-07-22T15:52:54.462,42.5852,30.9033,40.0053
2026-07-22T15:52:54.478,42.5886,30.7271,39.9269
2026-07-22T15:52:54.494,42.6044,30.3942,39.9074
2026-07-22T15:52:54.502,42.6201,30.5509,39.9661
2026-07-22T15:52:54.506,42.6221,30.6488,40.1032
2026-07-22T15:52:54.509,42.6472,30.7075,40.2402
2026-07-22T15:52:54.525,42.6496,30.7271,40.4165
2026-07-22T15:52:54.525,42.6539,30.8642,40.5927
2026-07-22T15:52:54.543,42.6839,31.0012,40.6514
2026-07-22T15:52:54.557,42.6839,31.1383,40.7102
2026-07-22T15:52:54.557,42.6839,31.1383,40.7297
2026-07-22T15:52:54.578,42.6897,31.2166,40.7689
2026-07-22T15:52:54.589,42.7172,31.0404,40.7297
2026-07-22T15:52:54.602,42.7192,30.9425,40.7885
2026-07-22T15:52:54.605,42.7192,30.7271,40.7689
2026-07-22T15:52:54.620,42.7506,30.6488,40.6514
2026-07-22T15:52:54.622,42.7526,30.7075,40.5927
2026-07-22T15:52:54.640,42.7526,30.8054,40.6906
2026-07-22T15:52:54.640,42.7526,30.9621,40.9256
2026-07-22T15:52:54.657,42.7819,31.1775,41.1409
2026-07-22T15:52:54.667,42.7819,31.2362,41.3172
2026-07-22T15:52:54.673,42.7819,31.3733,41.5521
2026-07-22T15:52:54.683,42.8163,31.2362,41.6305
2026-07-22T15:52:54.700,42.8163,31.1775,41.6109
2026-07-22T15:52:54.703,42.8254,31.0796,41.5913
2026-07-22T15:52:54.715,42.8516,31.0012,41.5326
2026-07-22T15:52:54.730,42.8536,30.9229,41.4347
2026-07-22T15:52:54.737,42.8573,30.9229,41.4738
2026-07-22T15:52:54.746,42.8573,31.0208,41.6305
2026-07-22T15:52:54.746,42.8864,31.0991,41.7675
2026-07-22T15:52:54.762,42.8899,31.2362,41.7675
2026-07-22T15:52:54.778,42.8931,31.432,41.8654
2026-07-22T15:52:54.785,42.8931,31.432,42.0221
2026-07-22T15:52:54.803,42.9233,31.5495,42.1004
2026-07-22T15:52:54.807,42.9233,31.432,42.0612
2026-07-22T15:52:54.814,42.9233,31.3929,41.9829
2026-07-22T15:52:54.825,42.9612,31.1775,41.7871
2026-07-22T15:52:54.841,42.9612,31.0991,41.5913
2026-07-22T15:52:54.844,42.9678,30.9229,41.3955
2026-07-22T15:52:54.857,42.9684,30.7467,41.3955
2026-07-22T15:52:54.872,42.9924,30.59,41.3955
2026-07-22T15:52:54.872,42.9924,30.4726,41.3955
2026-07-22T15:52:54.889,42.9996,30.4138,41.513
2026-07-22T15:52:54.902,43.0153,30.4334,41.5717
2026-07-22T15:52:54.905,43.0153,30.453,41.5913
2026-07-22T15:52:54.920,43.0314,30.5313,41.6109
2026-07-22T15:52:54.920,43.0359,30.5509,41.6109
2026-07-22T15:52:54.936,43.0591,30.453,41.4738
2026-07-22T15:52:54.936,43.0631,30.3355,41.3172
2026-07-22T15:52:54.957,43.0829,30.1788,41.1214
2026-07-22T15:52:54.974,43.0957,30.1201,41.0039
2026-07-22T15:52:54.979,43.0957,30.0222,40.9256
2026-07-22T15:52:54.984,43.1033,30.0026,40.8864
2026-07-22T15:52:55.004,43.1283,30.1005,40.8864
2026-07-22T15:52:55.004,43.1283,30.0809,41.0039
2026-07-22T15:52:55.016,43.1283,30.1201,41.1409
2026-07-22T15:52:55.024,43.1577,30.0809,41.1997
2026-07-22T15:52:55.031,43.1577,30.0809,41.2388
2026-07-22T15:52:55.049,43.1688,29.9243,41.2388
2026-07-22T15:52:55.049,43.1738,30.0026,41.2388
2026-07-22T15:52:55.067,43.2009,29.8656,41.1214
2026-07-22T15:52:55.078,43.2009,29.8068,40.9256
2026-07-22T15:52:55.089,43.2052,29.6893,41.043
2026-07-22T15:52:55.096,43.2369,29.7677,40.8668
2026-07-22T15:52:55.110,43.241,29.7677,40.7493
2026-07-22T15:52:55.110,43.2415,29.7089,40.6318
2026-07-22T15:52:55.126,43.2415,29.6306,40.7102
2026-07-22T15:52:55.142,43.2715,29.7285,40.6906
2026-07-22T15:52:55.142,43.2715,29.7481,40.8668
2026-07-22T15:52:55.159,43.2808,29.7872,40.8276
2026-07-22T15:52:55.162,43.2838,29.8068,40.9647
2026-07-22T15:52:55.177,43.2995,29.9439,41.0626
2026-07-22T15:52:55.189,43.3122,29.983,41.0626
2026-07-22T15:52:55.192,43.3152,30.1005,41.2388
2026-07-22T15:52:55.204,43.3308,30.0418,41.2193
2026-07-22T15:52:55.204,43.3484,29.9439,41.2388
2026-07-22T15:52:55.233,43.3531,29.8851,41.3563
2026-07-22T15:52:55.236,43.3571,29.8656,41.3759
2026-07-22T15:52:55.251,43.382,29.7089,41.3955
2026-07-22T15:52:55.251,43.3841,29.6502,41.3955
2026-07-22T15:52:55.274,43.3841,29.7285,41.513
2026-07-22T15:52:55.278,43.3841,29.8068,41.4347
2026-07-22T15:52:55.289,43.4146,29.6893,41.3759
2026-07-22T15:52:55.299,43.4146,29.6697,41.1801
2026-07-22T15:52:55.305,43.4209,29.7089,41.1605
2026-07-22T15:52:55.314,43.4404,29.6697,41.0235
2026-07-22T15:52:55.329,43.4404,29.5914,41.1801
2026-07-22T15:52:55.335,43.4548,29.611,41.1018
2026-07-22T15:52:55.348,43.4613,29.611,41.1801
2026-07-22T15:52:55.361,43.4866,29.6697,41.2193
2026-07-22T15:52:55.361,43.4906,29.8068,41.1997
2026-07-22T15:52:55.378,43.4916,29.8851,40.9843
2026-07-22T15:52:55.392,43.5194,29.8068,41.0039
2026-07-22T15:52:55.403,43.5214,29.9635,40.8864
2026-07-22T15:52:55.410,43.5214,29.8068,40.8864
2026-07-22T15:52:55.415,43.5281,29.8264,40.8472
2026-07-22T15:52:55.431,43.553,29.7872,41.0039
2026-07-22T15:52:55.431,43.553,29.7872,41.0235
2026-07-22T15:52:55.447,43.5585,29.6893,40.8864
2026-07-22T15:52:55.457,43.581,29.5914,40.7689
2026-07-22T15:52:55.463,43.581,29.4544,40.8276
2026-07-22T15:52:55.479,43.5892,29.5131,40.8668
2026-07-22T15:52:55.499,43.6147,29.5131,40.9843
2026-07-22T15:52:55.500,43.6147,29.4152,40.7885
2026-07-22T15:52:55.510,43.6191,29.4152,40.8081
2026-07-22T15:52:55.519,43.6518,29.2781,40.671
2026-07-22T15:52:55.531,43.6518,29.2781,40.5339
2026-07-22T15:52:55.535,43.6604,29.2586,40.4948
2026-07-22T15:52:55.563,43.6926,29.2977,40.5144
2026-07-22T15:52:55.563,43.6926,29.2781,40.5535
2026-07-22T15:52:55.565,43.6926,29.3173,40.6514
2026-07-22T15:52:55.579,43.7013,29.3565,40.6906
2026-07-22T15:52:55.581,43.7215,29.2977,40.7689
2026-07-22T15:52:55.610,43.7215,29.239,40.7297
2026-07-22T15:52:55.610,43.7215,29.1998,40.6123
2026-07-22T15:52:55.622,43.7371,29.2781,40.5731
2026-07-22T15:52:55.626,43.7371,29.1019,40.5927
2026-07-22T15:52:55.642,43.7686,29.1019,40.671
2026-07-22T15:52:55.642,43.7686,29.1019,40.7885
2026-07-22T15:52:55.658,43.7737,29.2194,40.8472
2026-07-22T15:52:55.670,43.8009,29.239,40.8864
2026-07-22T15:52:55.677,43.8009,29.2781,40.9843
2026-07-22T15:52:55.689,43.8009,29.1606,40.8864
2026-07-22T15:52:55.694,43.8009,29.0823,40.9843
2026-07-22T15:52:55.706,43.8366,29.0236,40.9256
2026-07-22T15:52:55.706,43.8392,28.9061,40.7493
2026-07-22T15:52:55.722,43.8412,28.7886,40.6514
2026-07-22T15:52:55.752,43.863,28.8669,40.5339
2026-07-22T15:52:55.752,43.863,28.9061,40.5144
2026-07-22T15:52:55.757,43.879,28.9648,40.5144
2026-07-22T15:52:55.770,43.8815,28.9648,40.5731
2026-07-22T15:52:55.770,43.9089,28.9257,40.6318
2026-07-22T15:52:55.784,43.9116,28.9257,40.5731
2026-07-22T15:52:55.802,43.9116,28.8669,40.6514
2026-07-22T15:52:55.807,43.9116,28.8082,40.6514
2026-07-22T15:52:55.819,43.9469,28.7495,40.671
2026-07-22T15:52:55.819,43.9469,28.8278,40.7493
2026-07-22T15:52:55.832,43.9555,28.9844,40.9647
2026-07-22T15:52:55.863,43.9832,29.0823,41.0822
2026-07-22T15:52:55.863,43.9838,29.1215,41.1214
2026-07-22T15:52:55.868,43.9877,29.1411,41.1997
2026-07-22T15:52:55.878,44.0142,29.2781,41.2976
2026-07-22T15:52:55.898,44.0162,29.239,41.3955
2026-07-22T15:52:55.899,44.0162,29.1606,41.3955
2026-07-22T15:52:55.908,44.0219,29.1998,41.4738
