3299.8992 3299.8992 3299.8992 3299.8992 3299.8992 3299.8992 3285.901 3271.1975 3256.4941 3241.69 3227.188 3212.9883 3198.587 3184.6892 3170.288 3155.7861 3002.5085 -2115.573 3156.5918 3172.4028 3188.0127 3203.018 3218.527 3234.137 3248.639 3263.6443 3278.8513 3293.2524 -3292.044 -3277.4414 -3263.04 -3248.538 -3234.3384 -3219.7356 -3205.838 -3192.1416 -3178.244 3299.8992 3299.8992 3299.8992 3299.8992 3299.8992 3299.8992 3299.8992 3299.8992 3299.8992 3287.6128 3272.6074 3257.904 3243.402 3229.1016 3214.7002 3200.1982 3185.9985 3172 3157.0952 3128.9978 -1554.5288 3155.2825 3171.2952 3186.9048 3202.1118 3217.52 3233.2305 3247.8333 3262.738 3277.6428 3292.3462 -3292.9504 -3278.0457 -3263.8457 -3249.5452 -3235.2446 -3221.045 -3206.9458 -3193.048 -3179.0496 3160.8215 3299.8992 3299.8992 3299.8992 3299.8992 3299.8992 3299.8992 3299.8992 3299.8992 3287.6128 3273.1108 3258.7097 3244.2078 3229.7058 3215.5059 3200.8025 3186.502 3172.4028 3157.901 3139.1692 -1117.456 3153.6711 3169.4824 3169.4824 3169.4824 3169.4824 3169.4824 3169.4824 3169.4824 3169.4824 3169.4824 3169.4824 3169.4824 3169.4824 3169.4824 3169.4824 3169.4824 3169.4824 3169.4824 3169.4824 3169.4824 3169.4824 3169.4824 3299.8992 3299.8992 3299.8992 3299.8992 3299.8992 3299.8992 3288.922 3274.2188 3259.8174 3245.3154 3230.713 3216.11 3201.9104 3187.8113 3173.108 3158.606 3143.7012 -557.016 3151.7578 3167.7703 3183.3801 3198.587 3214.3982 3229.1016 3244.7112 3259.8174 3274.7222 3289.4255 3299.8992 -3281.067 -3266.6655 -3252.365 -3237.9639 -3223.764 -3209.7656 -3195.5657 -3181.7688 1827.7496 3299.8992 3299.8992 3299.8992 3299.8992 3299.8992 3299.8992 3299.8992 3299.8992 3289.4255 3274.6216 3260.0188 3245.2148 3230.8135 3216.513 3202.1118 3187.9119 3173.5107 3159.1094 3144.2046 -301.62048 3150.8513 3166.7632 3182.1716 3197.882 3213.2903 3227.893 3243.5027 3258.5083 3273.3123 3288.4185 3299.8992 -3282.6782 -3268.0754 -3253.775 -3239.1724 -3224.9724 -3210.7727 -3197.0764 -3182.8765 1050.0824 3299.8992 3299.8992 
3214.7002 3230.5115 3246.121 3261.8315 3277.24 3292.6482 3299.8992 -3276.9377 -3262.033 -3247.0276 -3232.3242 -3217.6208 -3203.2195 -3188.617 -3174.3164 -3160.1165 -2491.2139 3299.8992 3299.8992 3299.8992 3299.8992 3299.8992 3299.8992 3299.8992 3299.8992 3299.8992 3299.8992 3285.1958 3270.0896 3254.9834 3239.978 3225.2747 3210.6719 3196.17 3181.8694 3167.871 3125.8757 3164.8499 3181.2651 3197.6807 3213.5925 3229.4036 3245.114 3260.7239 3276.132 3291.5405 3299.8992 -3277.9448 -3262.9395 -3248.1353 -3233.2305 -3218.628 -3204.0251 -3189.624 -3175.2227 -3161.023 -3147.1252 3299.8992 3299.8992 3299.8992 3299.8992 3299.8992 3299.8992 3299.8992 3299.8992 3299.8992 3299.8992 3286.8071 3271.701 3256.5947 3241.5894 3226.6846 3212.0818 3197.6807 3183.3801 3169.281 3154.5776 3163.9434 3180.4595 3196.6736 3212.686 3228.598 3244.3083 3259.8174 3275.3264 3290.8354 3299.8992 -3278.7505 -3263.6443 -3248.7395 -3233.9355 -3219.3328 -3204.7302 -3190.2283 -3175.827 -3161.7278 -3147.6287 3299.8992 3299.8992 3299.8992 3299.8992 3299.8992 3299.8992 3299.8992 3299.8992 3299.8992 3299.8992 3288.3179 3273.2117 3258.1055 3242.9993 3228.195 3213.4917 3199.0906 3184.8906 3170.691 3156.2896 3163.037 3179.5532 3195.868 3211.8804 3227.893 3243.6035 3258.9111 3274.6216 3289.9292 3299.8992 -3279.657 -3264.5508 -3249.646 -3234.8418 -3220.0378 -3205.536 -3191.034 -3176.6326 -3162.4329 -3148.4343 3299.8992 3299.8992 3299.8992 3299.8992 3299.8992 3299.8992 3299.8992 3299.8992 3299.8992 3299.8992 3289.627 3274.4202 3259.314 3244.3083 3229.5044 3214.801 3200.299 3186.099 3171.8994 3157.6995 3161.9292 3178.4453 3194.76 3210.8733 3226.6846 3242.4956 3258.206 3273.6145 3289.0227 3299.8992 -3280.4626 -3265.457 -3250.5522 -3235.7483 -3221.045 -3206.543 -3191.9402 -3177.539 -3163.44 -3149.3408 3299.8992 3299.8992 3299.8992 3299.8992 3299.8992 3299.8992 3299.8992 3299.8992 3299.8992 3299.8992 3291.4397 3276.132 3261.2273 3246.121 3231.2163 3216.6138 3202.011 3187.7104 3173.6113 3159.5122 3161.1235 3177.7405 3194.1558 
3053.6682 3039.569 3025.0671 3010.8672 2996.768 2982.367 2968.7712 2955.1758 2941.58 2927.9846 2914.7917 2901.6997 2888.3057 2874.8108 2858.2947 1723.4161 -2035.1074 2869.3726 2887.802 2906.0303 2923.9563 2941.278 2959.1033 2975.8208 2992.9412 3010.0615 3026.88 3043.4966 3060.0127 3076.126 3092.5415 3108.6548 3124.8687 -1514.1449 1049.3774 3121.2432 3107.2449 3093.045 3078.8452 3064.3433 3049.8413 3035.3394 3021.0388 3006.7383 2992.8406 2978.4392 2964.743 2951.1475 2937.5518 2923.9563 2910.562 2897.5708 2884.1765 2870.6816 2851.3457 1333.1726 -2227.1575 2868.567 2887.0972 2905.1238 2923.1506 2940.3716 2957.6934 2975.3174 2992.4377 3009.1553 3025.772 3042.288 3058.905 3075.2197 3091.5344 3107.5469 3124.768 -1579.1016 746.1456 3097.476 3108.3525 3094.1528 3079.8523 3065.451 3050.8484 3036.8499 3021.8445 3008.2488 2994.351 2979.7485 2965.9514 2952.356 2938.6597 2925.064 2911.7705 2898.6785 2885.385 2871.991 2858.3953 2240.2495 -1025.9125 2860.0066 2878.7383 2897.0671 2914.9932 2933.02 2950.0396 2967.7642 2984.784 3001.602 3018.219 3034.8357 3051.5532 3067.868 3084.1826 3100.296 3116.4092 -2105.3008 137.0636 2593.936 3108.4534 3094.3542 3080.0537 3065.9546 3051.2512 3037.152 3022.1465 3008.7524 2994.6533 2980.0505 2966.0522 2952.4565 2938.7603 2925.2654 2912.1733 2898.7793 2885.4858 2871.991 2857.5896 2041.7542 -1775.2808 2864.8406 2883.5723 2901.599 2919.5251 2937.4512 2955.075 2971.7925 2988.9128 3006.0332 3022.8516 3039.569 3056.0852 3072.5005 3088.7146 3104.828 3120.8403 -1779.5105 561.54785 3004.3213 3107.9497 3093.8506 3079.55 3065.149 3050.647 3036.0442 3021.8445 3007.443 2993.4448 2979.0435 2965.448 2951.8523 2938.156 2924.6611 2911.3677 2898.2756 2885.083 2871.6887 2856.2805 2029.3671 -818.454 2859.3018 2878.0334 2896.2615 2914.2883 2931.61 2949.0325 2966.757 2983.8774 3000.6958 3017.3125 3034.03 3050.5461 3066.9617 3083.1755 3099.3896 3115.503 -3106.9426 -1091.3727 1560.3699 3122.0488 3107.9497 3093.5486 3079.0466 
293.26172 -966.29333 -435.36072 -1505.0812 -2756.781 -2743.991 -2731.604 -2719.6196 -2707.6355 -2695.752 -2254.248 -1708.5114 -1757.3547 -2001.7731 -2213.6626 -2440.3564 -2631.0974 -2619.818 -2608.6394 -2597.763 -2468.9575 -2089.087 -2566.8457 -2451.132 -1699.7498 643.42346 3041.8853 3299.8992 3299.8992 3299.8992 3299.8992 3299.8992 3299.8992 3299.8992 3299.8992 3299.8992 3299.8992 3299.8992 3299.8992 2194.226 787.93945 -508.67615 -121.75598 -1270.2301 -2699.0752 -2752.249 -2740.0635 -2727.777 -2715.6921 -2703.7078 -2619.9187 -2022.2168 -2341.3604 -2610.0493 -2648.6206 -2618.0054 -2628.2776 -2617.1997 -2606.021 -2595.044 -2552.4443 -2136.4197 -2563.7236 -2526.4617 -1537.3077 908.1848 3299.8992 3299.8992 3299.8992 3299.8992 3299.8992 3299.8992 3299.8992 3299.8992 3299.8992 3299.8992 3299.8992 3299.8992 3299.8992 2048.3 481.5857 -855.4138 -364.26086 -1335.4889 -2680.243 -2747.3145 -2734.9272 -2722.8423 -2710.8582 -2698.8738 -2570.7732 -1882.4341 -1808.9172 -1983.2428 -1837.0148 -1998.1476 -2266.333 -2626.062 -2614.8833 -2561.206 -2256.4636 -1906.2012 -2574.6 -2409.5398 -1330.957 987.442 3299.8992 3299.8992 3299.8992 3299.8992 3299.8992 3299.8992 3299.8992 3299.8992 3299.8992 3299.8992 3299.8992 3299.8992 3294.461 2063.91 663.46436 -573.3307 157.10449 -898.61755 -2385.3699 -2765.8447 -2753.4575 -2741.272 -2729.0862 -2716.7998 -2698.3704 -2035.5103 -1867.3279 -2131.787 -2283.0505 -2409.137 -2647.5127 -2636.1328 -2624.954 -2613.8762 -2602.7983 -2419.2078 -2581.2468 -2570.3704 -1734.2926 556.51245 3127.3865 3299.8992 3299.8992 3299.8992 3299.8992 3299.8992 3299.8992 3299.8992 3299.8992 3299.8992 3299.8992 3299.8992 3299.8992 2301.8828 928.3264 -445.43152 45.01648 -989.4562 -2693.5364 -2768.7651 -2756.2773 -2744.0918 -2731.8054 -2719.821 -2705.1177 -2112.149 -2019.0948 -2256.665 -2393.527 -2460.6995 -2597.9644 -2637.2405 -2625.9612 -2614.8833 -2503.7017 -2239.8467 -2583.4624 -2572.586 -1716.9708 445.43152 2947.0183 3299.8992 3299.8992 3299.8992 3299.8992 3299.8992 3299.8992 3299.8992 3299.8992 3299.8992 3299.8992 3299.8992 3299.8992 2229.071 
3299.8992 3299.8992 3299.8992 3299.8992 3299.8992 3299.8992 3295.8708 3280.5632 3265.8599 3251.5593 3237.2588 3222.9583 3209.1614 3194.8608 3180.8623 3166.5618 2783.7708 3159.0088 3174.9207 3190.5303 3205.9387 3221.2463 3236.6545 3251.6602 3266.867 3281.7717 3296.0723 -3288.922 -3274.3193 -3259.7168 -3245.2148 -3231.015 -3216.7144 -3202.716 -3188.7175 -3174.7192 -2545.2942 3299.8992 3299.8992 3299.8992 3299.8992 3299.8992 3299.8992 3299.8992 3299.8992 3299.8992 3295.6694 3280.2612 3265.8599 3251.2573 3236.9568 3222.7568 3208.7585 3194.8608 3180.7617 3166.2598 2586.1816 3158.7065 3174.5178 3190.2283 3205.6365 3220.8435 3236.3525 3251.4587 3266.3635 3281.369 3295.8708 -3289.224 -3274.6216 -3260.1196 -3245.6177 -3231.3171 -3217.1172 -3202.9175 -3188.919 -3175.122 -3112.683 3299.8992 3299.8992 3299.8992 3299.8992 3299.8992 3299.8992 3299.8992 3299.8992 3299.8992 3299.8992 3284.6924 3269.8882 3255.487 3241.1865 3227.0874 3212.7869 3198.6877 3184.6892 3170.4895 3155.2825 3156.3904 3172.705 3188.0127 3203.6223 3218.8293 3234.2375 3249.1423 3264.5508 3279.5562 3293.8567 -3291.1377 -3276.3335 -3262.033 -3247.4304 -3233.13 -3219.0308 -3204.8308 -3190.7317 -3177.2368 -3163.339 3299.8992 3299.8992 3299.8992 3299.8992 3299.8992 3299.8992 3299.8992 3299.8992 3299.8992 3298.6907 3283.484 3269.4854 3254.6814 3240.6829 3226.3823 3212.2832 3197.9827 3184.085 3169.9858 3154.9805 3155.182 3171.2952 3186.9048 3202.3132 3217.7214 3232.727 3247.9338 3262.5366 3277.542 3292.749 -3292.6482 -3278.3477 -3263.8457 -3249.3438 -3234.8418 -3220.7427 -3206.6436 -3192.6453 -3178.8481 -3164.8499 3299.8992 3299.8992 3299.8992 3299.8992 3299.8992 3299.8992 3299.8992 3299.8992 3299.8992 3299.6978 3284.2896 3269.7876 3255.1848 3240.8843 3226.5837 3212.7869 3198.4863 3184.5886 3170.288 3155.484 3162.2314 3169.3816 3184.9915 3200.5005 3215.808 3231.3171 3246.121 3261.6301 3276.4343 3290.8354 3299.8992 -3279.4556 -3264.7522 -3250.5522 -3236.0503 -3221.7498 -3207.6506 -3193.6523 -3179.7546 -3166.159 3299.8992 3299.8992 3299.8992 
3299.8992 3299.8992 3299.8992 3299.8992 3299.8992 3297.4822 3281.7717 3265.9607 3249.8474 3234.439 3219.2322 3204.0251 3188.919 3173.7122 3158.5051 3143.1975 2627.2705 3140.1763 3149.0386 3165.756 3182.2722 3198.7883 3215.4053 3231.5186 3247.6318 3263.745 3279.7576 3295.3674 -3288.922 -3273.2117 -3257.8032 -3242.5964 -3227.3894 -3212.1826 -3197.2778 -3182.5745 -2610.4521 3299.8992 3299.8992 3299.8992 3299.8992 3299.8992 3299.8992 3299.8992 3299.8992 3298.59 3282.7788 3267.1692 3250.955 3235.5469 3220.3398 3205.133 3189.926 3174.8198 3159.613 3144.3054 2878.134 -2972.0947 3147.4272 3164.2456 3180.8623 3197.4792 3213.9954 3230.2092 3246.3225 3262.2344 3278.247 3294.159 -3290.1306 -3274.5208 -3259.2131 -3243.9055 -3228.598 -3213.4917 -3198.587 -3183.783 -2836.2395 3299.8992 3299.8992 3299.8992 3299.8992 3299.8992 3299.8992 3299.8992 3299.8992 3299.295 3283.484 3267.7734 3251.358 3236.0503 3220.8435 3205.7373 3190.5303 3175.424 3160.2173 3144.9097 3057.898 -2496.8535 3145.816 3162.5334 3179.1504 3195.6665 3211.7798 3228.296 3244.6106 3260.623 3276.6357 3292.4468 -3291.8425 -3276.3335 -3260.9253 -3245.4163 -3230.2092 -3215.103 -3200.1982 -3185.3943 -3081.7656 3299.8992 3299.8992 3299.8992 3299.8992 3299.8992 3299.8992 3299.8992 3299.8992 3299.7986 3284.1887 3268.4783 3252.2644 3236.856 3221.5483 3206.4421 3191.2354 3176.2297 3160.922 3145.6145 3121.646 -2045.9839 3144.406 3161.023 3177.841 3194.2566 3210.269 3226.886 3243.2007 3259.314 3275.3264 3291.1377 -3293.1519 -3277.6428 -3262.033 -3246.8262 -3231.6191 -3216.513 -3201.6082 -3186.8042 -3171.698 3299.8992 3299.8992 3299.8992 3299.8992 3299.8992 3299.8992 3299.8992 3299.8992 3299.8992 3284.3901 3268.6797 3252.4658 3237.1582 3221.8506 3206.6436 3191.4368 3176.3306 3161.2244 3145.9167 3126.48 -1541.5375 3142.1904 3158.908 3175.6255 3192.041 3208.1543 3224.771 3241.287 3257.199 3273.2117 3289.1235 3299.8992 -3279.657 -3264.047 -3248.538 -3233.3313 -3218.3257 -3203.421 -3188.516 -3173.9136 2542.9778 3299.8992 3299.8992 
3299.8992 3299.8992 3299.8992 3299.8992 3299.8992 3299.8992 3294.159 3278.4485 3262.6372 3246.3225 3231.015 3215.9087 3200.702 3185.6963 3170.4895 3154.8796 2260.9954 3148.8372 3165.857 3182.4736 3198.7883 3215.3044 3231.5186 3247.8333 3263.745 3279.8584 3295.8708 -3288.5193 -3272.9094 -3257.2998 -3241.9922 -3226.6846 -3211.5784 -3196.5728 -3181.7688 -3167.166 -2696.9604 3299.8992 3299.8992 3299.8992 3299.8992 3299.8992 3299.8992 3299.8992 3299.8992 3299.8992 3295.468 3279.657 3263.8457 3247.6318 3232.2234 3217.1172 3202.011 3186.8042 3171.4966 3156.0881 2636.1328 3147.4272 3164.3462 3181.1646 3197.5798 3213.9954 3230.4106 3246.4233 3262.6372 3278.65 3294.5618 -3289.627 -3274.0173 -3258.5083 -3242.9993 -3227.893 -3212.7869 -3197.7812 -3182.8765 -3168.274 -2934.9333 3299.8992 3299.8992 3299.8992 3299.8992 3299.8992 3299.8992 3299.8992 3299.8992 3299.8992 3295.8708 3280.0598 3264.2485 3248.0347 3232.727 3217.4194 3202.4138 3187.207 3172 3156.491 3013.4856 3144.2046 3161.1235 3177.841 3194.3572 3210.8733 3227.3894 3243.402 3259.5154 3275.5278 3291.4397 3299.8992 -3277.1392 -3261.5295 -3246.0205 -3230.713 -3215.7073 -3200.702 -3185.797 -3171.0938 -3156.6924 3299.8992 3299.8992 3299.8992 3299.8992 3299.8992 3299.8992 3299.8992 3299.8992 3299.8992 3296.0723 3280.2612 3264.45 3248.1353 3232.9285 3217.7214 3202.5146 3187.4084 3172.2014 3156.6924 3060.5164 3143.6003 3160.7207 3177.539 3193.9543 3210.3699 3226.886 3242.9993 3259.0117 3275.125 3291.0369 3299.8992 -3277.542 -3262.033 -3246.6248 -3231.2163 -3216.11 -3201.2053 -3186.3005 -3171.5972 -3157.0952 3299.8992 3299.8992 3299.8992 3299.8992 3299.8992 3299.8992 3299.8992 3299.8992 3299.8992 3297.3816 3281.5703 3265.7593 3249.4446 3234.137 3218.93 3203.8237 3188.7175 3173.41 3158.1023 3139.7734 -2671.0784 3157.5989 3174.3164 3190.933 3207.2478 3223.764 3239.7766 3255.9905 3272.1038 3288.1165 3299.8992 -3280.4626 -3264.8528 -3249.3438 -3234.137 -3218.8293 -3203.9246 -3189.1204 -3174.417 -3159.8145 3299.8992 3299.8992 3299.8992 
3299.8992 3299.8992 3299.8992 3299.8992 3299.8992 3299.8992 3286.1023 3270.5933 3255.1848 3240.0786 3224.2676 3209.5642 3194.9614 3180.4595 3165.9575 3151.4556 3130.307 3141.1833 3157.901 3174.417 3190.631 3206.7444 3222.7568 3238.6687 3254.3792 3270.0896 3285.8 3299.8992 -3283.1816 -3267.874 -3252.5664 -3237.3596 -3222.2534 -3207.2478 -3192.4438 -3177.6396 -2474.7986 3299.8992 3299.8992 3299.8992 3299.8992 3299.8992 3299.8992 3299.8992 3299.8992 3299.8992 3285.6995 3270.0896 3254.6814 3239.5752 3223.8647 3209.1614 3194.5586 3180.0566 3165.5547 3151.0527 3135.6445 3139.1692 3155.8867 3172.4028 3188.7175 3204.7302 3220.8435 3236.7554 3252.5664 3268.1763 3283.8867 3299.4963 -3284.9944 -3269.6868 -3254.3792 -3239.1724 -3224.0662 -3209.0605 -3194.1558 -3179.5532 -3165.0513 3299.8992 3299.8992 3299.8992 3299.8992 3299.8992 3299.8992 3299.8992 3299.8992 3299.8992 3288.217 3272.708 3257.199 3242.0928 3226.3823 3211.4775 3196.9756 3182.373 3167.9717 3153.4697 3138.0615 3137.155 3154.074 3170.4895 3186.9048 3203.018 3219.1313 3235.0432 3250.8545 3266.565 3282.1746 3297.6836 -3286.8071 -3271.298 -3255.89 -3240.8843 -3225.6775 -3210.7727 -3195.868 -3181.1646 -3166.6626 3299.8992 3299.8992 3299.8992 3299.8992 3299.8992 3299.8992 3299.8992 3299.8992 3299.8992 3288.6199 3273.0103 3257.6018 3242.395 3226.6846 3211.8804 3197.2778 3182.675 3168.274 3153.772 3138.7664 3135.2417 3152.0598 3168.6768 3184.8906 3200.9033 3217.0166 3232.9285 3248.8403 3264.6514 3280.2612 3295.8708 -3288.6199 -3273.413 -3258.0046 -3242.697 -3227.5908 -3212.4846 -3197.6807 -3182.9773 -3168.3745 3299.8992 3299.8992 3299.8992 3299.8992 3299.8992 3299.8992 3299.8992 3299.8992 3299.8992 3288.3179 3272.708 3257.2998 3241.9922 3226.2817 3211.679 3196.875 3182.4736 3167.9717 3153.4697 3138.565 -2560.0981 3148.938 3165.454 3181.7688 3197.7812 3213.794 3229.7058 3245.6177 3261.5295 3277.24 3292.749 -3291.742 -3276.535 -3261.026 -3245.819 -3230.5115 -3215.5059 -3200.601 -3185.8977 -3171.2952 3299.8992 3299.8992 3299.8992 

3189.2212 3174.9207 3160.3179 3145.6145 133.3374 3149.7437 3165.6555 3181.0637 3196.9756 3212.1826 3226.886 3242.5964 3257.8032 3272.3052 3287.5122 3299.8992 -3283.2825 -3268.982 -3254.6814 -3240.28 -3225.778 -3211.5784 -3197.6807 -3183.9844 191.94946 3299.8992 3299.8992 3299.8992 3299.8992 3299.8992 3299.8992 3299.8992 3299.8992 3292.044 3277.3406 3262.738 3248.1353 3233.7341 3219.5342 3204.8308 3190.631 3176.4312 3162.1306 3147.528 702.1362 3148.0315 3164.0442 3179.8552 3195.2637 3210.7727 3226.4832 3240.985 3256.3933 3270.996 3285.8 3299.8992 -3284.6924 -3269.989 -3255.5876 -3241.287 -3227.2888 -3213.1897 -3199.1912 -3185.1929 -535.968 3299.8992 3299.8992 3299.8992 3299.8992 3299.8992 3299.8992 3299.8992 3299.8992 3293.756 3278.7505 3264.45 3249.8474 3235.3455 3220.944 3206.2407 3192.041 3177.942 3163.5405 3148.6357 1158.0414 3146.7224 3163.037 3163.037 3163.037 3163.037 3163.037 3163.037 3163.037 3163.037 3163.037 3163.037 3163.037 3163.037 3163.037 3163.037 3163.037 3163.037 3163.037 3163.037 3163.037 3163.037 3163.037 3299.8992 3299.8992 3299.8992 3299.8992 3299.8992 3299.8992 3294.3604 3279.7576 3265.0542 3250.4517 3235.8489 3221.5483 3207.2478 3192.9473 3178.5461 3164.2456 3149.5422 1682.428 3144.406 3160.7207 3176.4312 3191.7388 3207.2478 3222.9583 3237.561 3252.8687 3267.4712 3282.4768 3297.1802 -3288.217 -3273.715 -3259.0117 -3244.5098 -3230.5115 -3216.513 -3202.1118 -3188.1133 -1555.5359 3299.8992 3299.8992 3299.8992 3299.8992 3299.8992 3299.8992 3299.8992 3299.8992 3294.461 3279.7576 3265.0542 3250.4517 3235.9497 3221.5483 3207.2478 3192.9473 3178.3447 3163.8428 3149.24 1970.6543 3142.7947 3159.0088 3174.7192 3190.0269 3205.536 3221.347 3235.9497 3251.2573 3266.2627 3281.1675 3295.7703 -3289.5264 -3274.9236 -3260.5225 -3246.0205 -3232.1228 -3218.0237 -3203.8237 -3189.624 -2176.9043 3299.8992 3299.8992 
-3192.5444 -3178.1433 -3163.9434 -3149.8442 3299.8992 3299.8992 3299.8992 3299.8992 3299.8992 3299.8992 3299.8992 3299.8992 3299.8992 3299.8992 3293.2524 3277.9448 3262.8386 3247.8333 3232.8276 3218.1243 3203.7231 3189.3218 3175.2227 3161.1235 3160.4187 3176.9348 3193.35 3209.4634 3225.3752 3241.0857 3256.6956 3272.3052 3287.7136 3299.8992 -3281.7717 -3266.7664 -3251.8616 -3236.9568 -3222.2534 -3207.6506 -3193.1487 -3178.8481 -3164.447 -3150.4485 3299.8992 3299.8992 3299.8992 3299.8992 3299.8992 3299.8992 3299.8992 3299.8992 3299.8992 3299.8992 3295.166 3279.959 3264.8528 3249.8474 3234.8418 3220.2393 3205.6365 3191.336 3177.1362 3163.037 3159.613 3176.3306 3192.6453 3208.6577 3224.6704 3240.28 3255.89 3271.4995 3286.908 3299.8992 -3282.5774 -3267.4712 -3252.5664 -3237.7625 -3222.9583 -3208.3557 -3193.8538 -3179.4524 -3165.2527 -3151.1536 3299.8992 3299.8992 3299.8992 3299.8992 3299.8992 3299.8992 3299.8992 3299.8992 3299.8992 3299.8992 3296.3745 3281.067 3265.9607 3250.955 3236.0503 3221.2463 3206.6436 3192.343 3178.1433 3163.9434 3158.5051 3175.424 3191.6382 3207.852 3223.764 3239.1724 3255.1848 3270.7947 3286.203 3299.8992 -3283.383 -3268.1763 -3253.372 -3238.4673 -3223.764 -3209.0605 -3194.5586 -3180.258 -3165.9575 -3151.9592 3299.8992 3299.8992 3299.8992 3299.8992 3299.8992 3299.8992 3299.8992 3299.8992 3299.8992 3299.8992 3298.1873 3282.8796 3267.6726 3252.7678 3237.6616 3223.059 3208.3557 3194.0552 3179.8552 3165.6555 3157.6995 3174.6184 3190.933 3207.0464 3223.059 3238.6687 3254.48 3269.8882 3285.2966 3299.8992 -3284.1887 -3269.0825 -3254.0771 -3239.273 -3224.469 -3209.8662 -3195.3643 -3180.8623 -3166.6626 -3152.664 2772.29 3299.8992 3299.8992 3299.8992 3299.8992 3299.8992 3299.8992 3299.8992 3299.8992 3299.8992 3299.4963 3284.2896 3269.0825 3254.0771 3239.1724 3224.3682 3209.8662 3195.465 3181.0637 3167.0654 3158.7065 3173.41 3189.8254 
2884.4788 2870.984 2606.021 68.68286 2864.2363 2883.2703 2901.2969 2919.223 2937.3503 2954.2693 2971.994 2989.1143 3005.9326 3022.5493 3039.2668 3055.783 3072.299 3088.5132 3104.6265 3120.5383 -2540.158 314.81323 2984.683 3112.3809 3098.0803 3083.9812 3069.7815 3055.2795 3040.979 3025.8728 3012.1765 2998.3794 2983.5754 2969.8792 2956.1829 2942.2852 2928.6895 2915.4968 2902.2034 2888.91 2875.6165 2861.4165 2138.8367 -396.1853 2859.8052 2878.6377 2896.9666 2914.9932 2933.02 2950.5432 2967.4622 2984.683 3001.602 3018.7224 3035.3394 3051.956 3068.2708 3084.6863 3100.7996 3116.812 -2648.4192 -521.46606 2102.3804 3116.7114 3102.9143 3088.7146 3074.5146 3060.0127 3045.3093 3031.2102 3016.6077 3002.9114 2988.3086 2974.7131 2961.1174 2947.3206 2933.7249 2920.4314 2907.138 2893.9453 2880.551 2866.8547 2637.2405 377.75574 2857.489 2876.2207 2894.751 2912.677 2930.2002 2947.522 2965.2466 2982.4675 2999.286 3016.0034 3032.8215 3049.3376 3065.7532 3082.2693 3098.1812 3114.1936 -2939.566 -1099.1272 1597.229 3120.1355 3106.0364 3092.0378 3077.4353 3063.034 3048.7334 3033.6272 3019.8303 3005.9326 2991.2292 2977.3315 2963.6353 2949.939 2936.5447 2922.647 2909.555 2896.161 2882.666 2869.1711 2387.384 -29.910278 2863.33 2881.961 2900.1892 2918.2158 2936.2427 2953.2622 2970.9868 2988.1072 3004.8247 3021.5422 3038.1592 3054.6753 3071.0906 3087.4053 3103.5186 3119.5312 -2948.6296 -1013.4247 1720.7977 3124.4658 3110.3667 3096.0662 3081.665 3067.0623 3052.8625 3038.2598 3023.6572 3009.86 2995.3582 2981.7627 2968.0664 2954.37 2940.573 2927.179 2913.7847 2900.6926 2887.1978 2873.8037 2855.6763 1225.3143 -3221.347 2874.9114 2893.341 2911.4685 2928.9917 2946.9177 2963.7358 2981.0576 2998.178 3015.1978 3032.0159 3048.532 3064.8467 3081.2622 3097.476 3113.5894 3197.177 -1718.985 1103.8605 3126.5808 3112.4817 3098.2817 3083.8806 
-2203.9946 -2670.172 -2658.5906 -2647.2107 -2635.9314 -2624.7527 -2613.7756 -2602.6978 -2591.7205 -2580.7434 -2569.9675 -2057.2632 -145.01953 2415.4814 3299.8992 3299.8992 3299.8992 3299.8992 3299.8992 3299.8992 3299.8992 3299.8992 3299.8992 3299.8992 3299.8992 3299.8992 2655.6702 1293.6951 -145.12024 123.97156 -911.4075 -2228.8696 -2768.3623 -2755.8745 -2743.689 -2731.4026 -2719.2168 -2707.434 -2114.4653 -1785.8551 -1974.7833 -2130.9814 -2270.2605 -2488.9983 -2640.9668 -2629.6875 -2618.6096 -2508.9385 -2203.894 -2586.9873 -2552.7466 -1737.9181 131.62537 2677.2217 3299.8992 3299.8992 3299.8992 3299.8992 3299.8992 3299.8992 3299.8992 3299.8992 3299.8992 3299.8992 3299.8992 3299.8992 2422.4304 1149.1791 -213.29956 168.08167 -931.04553 -2296.4446 -2775.4119 -2763.025 -2750.6377 -2738.4521 -2726.3672 -2629.486 -1987.2711 -1548.7885 -1777.9999 -2063.91 -2335.7207 -2515.3838 -2650.6348 -2639.2546 -2627.9753 -2611.963 -2307.8247 -2595.6482 -2584.7717 -2173.6816 -355.8014 2295.337 3299.8992 3299.8992 3299.8992 3299.8992 3299.8992 3299.8992 3299.8992 3299.8992 3299.8992 3299.8992 3299.8992 3299.8992 2903.009 1649.0936 375.943 707.6752 -359.93042 -1771.756 -2793.4387 -2780.4473 -2767.758 -2755.4717 -2743.0847 -2730.9998 -2351.532 -2273.6846 -2404.8064 -2562.2131 -2677.6245 -2666.043 -2654.663 -2643.3838 -2632.205 -2621.0266 -2547.006 -2599.2737 -2588.3972 -2081.1309 -419.85168 2448.6145 3299.8992 3299.8992 3299.8992 3299.8992 3299.8992 3299.8992 3299.8992 3299.8992 3299.8992 3299.8992 3299.8992 3299.8992 2669.6685 1084.5245 -237.46948 119.33899 -864.9811 -2199.1606 -2784.677 -2771.7864 -2759.2986 -2747.113 -2734.9272 -2722.943 -2426.4587 -2035.8124 -2162.201 -2090.396 -2288.388 -2584.671 -2652.951 -2641.7725 -2630.4932 -2568.0542 -2247.9033 -2598.468 -2587.4907 -1959.4757 -416.83044 2103.5889 3299.8992 3299.8992 3299.8992 3299.8992 3299.8992 3299.8992 3299.8992 3299.8992 3299.8992 3299.8992 3299.8992 3299.8992 2716.1956 
3199.8962 3185.8977 3171.5972 3156.9946 -2750.839 3168.576 3184.4878 3199.8962 3215.3044 3230.31 3245.6177 3260.321 3275.2258 3290.4326 3299.8992 -3280.664 -3266.0613 -3251.5593 -3237.0574 -3222.9583 -3208.96 -3194.8608 -3180.9631 -3167.166 3299.8992 3299.8992 3299.8992 3299.8992 3299.8992 3299.8992 3299.8992 3299.8992 3299.8992 3299.8992 3286.1023 3271.8018 3257.5012 3243.0999 3228.7993 3214.7002 3200.601 3186.7034 3172.5037 3158.1023 -1242.7368 3165.5547 3181.1646 3196.875 3212.1826 3227.2888 3242.1936 3257.5012 3272.5066 3287.0085 3299.8992 -3283.1816 -3268.6797 -3254.3792 -3239.8772 -3225.6775 -3211.377 -3197.3784 -3183.5815 -3169.6838 2621.228 3299.8992 3299.8992 3299.8992 3299.8992 3299.8992 3299.8992 3299.8992 3299.8992 3299.8992 3286.203 3271.4995 3256.9976 3242.697 3228.598 3214.1968 3200.1982 3186.3005 3172.1008 3157.8003 -753.4973 3163.6414 3179.4524 3194.8608 3210.269 3225.778 3240.985 3255.789 3270.6938 3285.901 3299.8992 -3284.9944 -3270.291 -3255.9905 -3241.5894 -3227.2888 -3213.1897 -3199.0906 -3185.1929 -3171.3958 1500.8514 3299.8992 3299.8992 3299.8992 3299.8992 3299.8992 3299.8992 3299.8992 3299.8992 3299.8992 3286.908 3272.1038 3257.904 3243.5027 3229.0007 3214.9016 3200.9033 3186.9048 3172.8057 3158.3037 -145.32166 3162.6343 3178.3447 3193.8538 3209.1614 3224.771 3239.7766 3255.0842 3269.989 3284.491 3299.4963 -3285.5986 -3271.1975 -3256.6956 -3242.1936 -3227.893 -3213.693 -3199.9968 -3185.797 -3172 430.72815 3299.8992 3299.8992 3299.8992 3299.8992 3299.8992 3299.8992 3299.8992 3299.8992 3299.8992 3288.0156 3273.3123 3258.9111 3244.5098 3230.2092 3216.0095 3201.9104 3188.1133 3173.9136 3159.5122 840.91187 3160.62 3176.3306 3191.9402 3207.3486 3222.7568 3238.0645 3252.7678 3267.7734 3282.9802 3297.7844 -3287.915 -3273.0103 -3258.9111 -3244.5098 -3230.2092 -3215.9087 -3201.9104 -3187.9119 -3174.115 -745.9442 3299.8992 3299.8992 
3177.841 3162.7349 3147.528 3131.7168 -905.1636 3140.7805 3157.6995 3174.417 3190.8325 3207.4492 3223.6633 3239.7766 3255.9905 3272.0032 3287.8142 3299.8992 -3280.8655 -3265.3564 -3249.8474 -3234.5398 -3219.3328 -3204.6294 -3189.7246 -3175.122 2228.064 3299.8992 3299.8992 3299.8992 3299.8992 3299.8992 3299.8992 3299.8992 3299.8992 3286.3037 3270.4924 3254.1777 3238.87 3223.462 3208.3557 3193.1487 3178.0425 3162.9363 3147.6287 3132.2205 -267.8833 3137.9607 3154.9805 3171.5972 3188.214 3204.7302 3220.944 3237.0574 3253.2715 3269.284 3284.9944 3299.8992 -3283.383 -3267.9749 -3252.4658 -3237.1582 -3221.9512 -3207.0464 -3192.2424 -3177.539 1395.6116 3299.8992 3299.8992 3299.8992 3299.8992 3299.8992 3299.8992 3299.8992 3299.8992 3286.7065 3270.996 3254.6814 3239.4744 3224.0662 3208.96 3193.753 3178.5461 3163.44 3148.233 3132.8247 327.90527 3135.5437 3152.5635 3169.281 3185.797 3201.8096 3218.4265 3234.8418 3250.8545 3267.0684 3282.9802 3298.6907 -3285.8 -3270.1904 -3254.5806 -3239.4744 -3224.2676 -3209.1614 -3194.3572 -3179.6538 715.9332 3299.8992 3299.8992 3299.8992 3299.8992 3299.8992 3299.8992 3299.8992 3299.8992 3287.0085 3271.399 3255.0842 3239.4744 3224.3682 3209.1614 3193.9543 3178.8481 3163.6414 3148.4343 3133.1267 539.1907 3134.8389 3151.7578 3168.3745 3185.092 3201.004 3217.6208 3233.9355 3250.0488 3266.162 3282.1746 3297.7844 -3286.5051 -3270.8953 -3255.3862 -3240.0786 -3224.9724 -3210.0676 -3194.8608 -3180.359 -104.03137 3299.8992 3299.8992 3299.8992 3299.8992 3299.8992 3299.8992 3299.8992 3299.8992 3289.4255 3273.6145 3257.4004 3242.0928 3226.5837 3211.4775 3196.3713 3181.0637 3166.0583 3150.7507 3135.443 1188.9587 3133.429 3150.5493 3167.166 3183.783 3200.3997 3216.6138 3232.727 3248.8403 3264.9536 3280.7646 3296.7773 -3287.6128 -3272.1038 -3256.6956 -3241.388 -3226.181 -3211.2761 -3196.2708 -3181.5674 -346.63696 3299.8992 3299.8992 
3188.4155 3173.3093 3157.8003 3141.989 -2259.384 3155.7861 3172.5037 3189.0198 3205.6365 3222.052 3238.2659 3254.2786 3270.3918 3286.3037 3299.8992 -3282.1746 -3266.565 -3251.056 -3235.8489 -3220.5413 -3205.536 -3190.7317 -3176.0283 -3161.4258 3299.8992 3299.8992 3299.8992 3299.8992 3299.8992 3299.8992 3299.8992 3299.8992 3299.8992 3298.0864 3282.2754 3266.464 3250.1494 3234.8418 3219.635 3204.428 3189.3218 3174.115 3158.8074 3143.097 -1681.9244 3154.4768 3171.2952 3187.8113 3204.3274 3220.2393 3236.856 3253.07 3269.284 3285.0952 3299.8992 -3283.1816 -3267.7734 -3252.2644 -3236.9568 -3221.5483 -3206.543 -3191.8396 -3177.1362 -3162.5334 2775.1099 3299.8992 3299.8992 3299.8992 3299.8992 3299.8992 3299.8992 3299.8992 3299.8992 3298.892 3283.1816 3267.3706 3250.8545 3235.6475 3220.3398 3205.2336 3190.1274 3175.0212 3159.7136 3144.0032 -659.9396 3151.355 3168.274 3184.9915 3201.4067 3217.3186 3233.8347 3249.948 3266.2627 3282.376 3298.0864 -3286.1023 -3270.5933 -3255.1848 -3239.7766 -3224.5696 -3209.4634 -3194.5586 -3179.7546 -3165.1519 1594.6106 3299.8992 3299.8992 3299.8992 3299.8992 3299.8992 3299.8992 3299.8992 3299.8992 3299.1943 3283.2825 3267.4712 3251.1565 3235.8489 3220.642 3205.536 3190.3289 3175.3235 3159.915 3144.3054 -126.589966 3149.5422 3166.4612 3182.9773 3199.594 3215.6067 3232.022 3248.236 3264.45 3280.3618 3296.2737 -3287.8142 -3272.406 -3256.897 -3241.4885 -3226.181 -3211.1755 -3196.0693 -3181.366 -3166.7632 669.80896 3299.8992 3299.8992 3299.8992 3299.8992 3299.8992 3299.8992 3299.8992 3299.8992 3299.8992 3284.2896 3268.3777 3251.9622 3236.6545 3221.4478 3206.2407 3191.2354 3176.0283 3160.7207 3145.3125 590.8539 3147.6287 3164.5476 3181.0637 3197.4792 3213.8945 3230.2092 3246.4233 3262.3352 3278.4485 3294.2595 -3289.7278 -3274.3193 -3258.609 -3243.402 -3228.195 -3212.9883 -3197.882 -3183.2793 -3168.4753 61.12976 3299.8992 3299.8992 
3182.2722 3167.871 3153.4697 3138.4644 -1741.8457 3146.9238 3163.339 3179.7546 3195.868 3211.8804 3227.7922 3243.6035 3259.4146 3275.125 3290.8354 -3293.6553 -3278.4485 -3263.04 -3247.6318 -3232.5256 -3217.52 -3202.4138 -3187.8113 -3173.2085 3299.8992 3299.8992 3299.8992 3299.8992 3299.8992 3299.8992 3299.8992 3299.8992 3299.8992 3289.0227 3273.5137 3258.1055 3242.8984 3227.188 3212.4846 3197.7812 3183.2793 3168.8782 3154.3762 3139.572 -858.0322 3145.7153 3162.2314 3178.5461 3194.6594 3210.6719 3226.4832 3242.4956 3258.206 3273.9165 3289.5264 -3294.9646 -3279.5562 -3264.047 -3248.7395 -3233.6333 -3218.527 -3203.6223 -3188.919 -3174.3164 2787.1948 3299.8992 3299.8992 3299.8992 3299.8992 3299.8992 3299.8992 3299.8992 3299.8992 3290.1306 3274.6216 3259.1125 3243.805 3227.9937 3213.4917 3198.8892 3184.2864 3169.583 3155.182 3140.4785 431.2317 3143.1975 3159.7136 3176.0283 3192.343 3208.3557 3224.2676 3240.0786 3255.9905 3271.6003 3287.21 3299.8992 -3281.6711 -3266.2627 -3251.056 -3235.8489 -3220.7427 -3205.838 -3191.1345 -3176.4312 1681.0181 3299.8992 3299.8992 3299.8992 3299.8992 3299.8992 3299.8992 3299.8992 3299.8992 3289.8284 3274.3193 3258.8103 3243.704 3227.893 3213.0889 3198.3855 3183.9844 3169.4824 3154.8796 3140.3777 1137.6984 3140.7805 3157.3975 3173.7122 3190.0269 3206.1401 3222.052 3237.863 3253.775 3269.3848 3284.9944 3299.8992 -3283.8867 -3268.3777 -3253.372 -3238.0645 -3222.9583 -3208.0535 -3193.1487 -3178.3447 135.65369 3299.8992 3299.8992 3299.8992 3299.8992 3299.8992 3299.8992 3299.8992 3299.8992 3290.7349 3275.125 3259.616 3244.5098 3228.7993 3213.8945 3199.292 3184.6892 3170.1873 3155.5847 3141.1833 2006.5063 3138.6658 3155.2825 3171.698 3187.8113 3203.9246 3219.937 3235.7483 3251.6602 3267.3706 3283.081 3298.59 -3285.901 -3270.4924 -3255.3862 -3240.0786 -3224.9724 -3210.0676 -3195.1628 -3180.4595 -1010.907 3299.8992 3299.8992 

3299.8992 3299.8992 3299.8992 3299.8992 3299.8992 3299.8992 3295.5688 3280.8655 3266.162 3251.6602 3237.0574 3222.6562 3208.3557 3194.0552 3179.4524 3164.9504 3150.348 2303.6956 -3187.1062 3157.6995 3173.41 3188.919 3204.9316 3219.7356 3235.446 3250.2502 3265.3564 3280.4626 3294.8638 -3290.2312 -3275.6287 -3261.3281 -3247.0276 -3232.8276 -3218.4265 -3204.2266 -3190.3289 -2529.08 3299.8992 3299.8992 3299.8992 3299.8992 3299.8992 3299.8992 3299.8992 3299.8992 3296.3745 3281.5703 3266.9678 3252.4658 3237.9639 3223.2605 3209.1614 3194.76 3180.5603 3166.159 3151.4556 2536.5325 -2946.7163 3156.8938 3172.8057 3188.617 3203.9246 3218.7285 3234.5398 3249.646 3264.3494 3279.2542 3293.9575 -3291.0369 -3276.535 -3262.033 -3247.9338 -3233.432 -3219.2322 -3205.133 -3191.2354 -2866.9556 3299.8992 3299.8992 3299.8992 3299.8992 3299.8992 3299.8992 3299.8992 3299.8992 3297.9858 3283.1816 3268.4783 3253.775 3239.3738 3224.9724 3210.5713 3196.17 3182.0708 3167.5688 3153.067 2728.482 -2610.855 3156.8938 3172.6042 3188.3147 3203.6223 3218.3257 3234.2375 3249.0417 3264.2485 3279.1533 3293.8567 -3291.339 -3277.0386 -3262.6372 -3248.236 -3233.7341 -3219.5342 -3205.536 -3191.7388 -3177.841 3299.8992 3299.8992 3299.8992 3299.8992 3299.8992 3299.8992 3299.8992 3299.8992 3299.8992 3286.1023 3271.4995 3256.7961 3242.2942 3227.893 3213.5925 3199.3926 3184.9915 3170.4895 3156.0881 2981.5613 -1985.257 3156.3904 3172.3022 3188.0127 3203.018 3218.8293 3233.5327 3248.639 3263.8457 3278.7505 3293.5547 -3292.2454 -3277.6428 -3263.04 -3248.3367 -3234.0361 -3220.2393 -3206.0393 -3191.8396 -3178.1433 3299.8992 3299.8992 3299.8992 3299.8992 3299.8992 3299.8992 3299.8992 3299.8992 3299.8992 3299.8992 3299.8992 3299.8992 3299.8992 3299.8992 3299.8992 3299.8992 3299.8992 3299.8992 3299.8992 3299.8992 3299.8992 3299.8992 3171.2952 3187.0056 3202.716 3218.3257 3233.029 3248.3367 3263.04 3277.9448 3292.749 -3292.2454 -3278.1462 -3263.6443 -3249.1423 -3234.5398 -3220.8435 -3206.6436 -3192.6453 -3178.7476 2873.703 3299.8992 3299.8992 3299.8992 3299.8992 3299.8992 3299.8992 3299.8992 3299.8992 3289.224 3274.5208 3259.8174 3245.2148 3230.713 3216.11 3201.709 3187.4084 3173.2085 3158.5051 3137.4573 -1382.1167 3155.5847 
3205.838 3221.9512 3237.6616 3253.473 3268.982 3284.3901 3299.7986 -3285.0952 -3269.989 -3254.9834 -3240.1794 -3225.476 -3210.7727 -3196.3713 -3181.9702 -3167.5688 -3153.5706 909.494 3299.8992 3299.8992 3299.8992 3299.8992 3299.8992 3299.8992 3299.8992 3299.8992 3299.8992 3299.8992 3285.8 3270.5933 3255.487 3240.4814 3225.778 3211.1755 3196.6736 3182.4736 3168.274 -999.527 3172.4028 3188.8184 3204.8308 3220.8435 3236.6545 3252.365 3267.874 3283.2825 3298.59 -3286.203 -3270.996 -3256.0913 -3241.1865 -3226.4832 -3211.7798 -3197.177 -3182.776 -3168.576 -3154.3762 -541.0034 3299.8992 3299.8992 3299.8992 3299.8992 3299.8992 3299.8992 3299.8992 3299.8992 3299.8992 3299.8992 3286.8071 3271.701 3256.4941 3241.4885 3226.6846 3212.0818 3197.6807 3183.3801 3169.281 1067.5049 3170.993 3187.3076 3203.421 3219.5342 3235.3455 3250.955 3266.6655 3282.074 3297.3816 -3287.3108 -3272.1038 -3257.199 -3242.2942 -3227.5908 -3212.8875 -3198.3855 -3183.9844 -3169.6838 -3155.484 -1668.0267 3299.8992 3299.8992 3299.8992 3299.8992 3299.8992 3299.8992 3299.8992 3299.8992 3299.8992 3299.8992 3287.7136 3272.5066 3257.4004 3242.2942 3227.5908 3213.0889 3198.587 3184.2864 3170.1873 2639.2546 3168.9788 3185.4949 3201.8096 3217.6208 3233.432 3249.1423 3264.8528 3280.2612 3295.6694 -3289.1235 -3274.0173 -3259.0117 -3244.107 -3229.4036 -3214.7002 -3199.9968 -3185.6963 -3171.3958 -3157.196 -2423.7395 3299.8992 3299.8992 3299.8992 3299.8992 3299.8992 3299.8992 3299.8992 3299.8992 3299.8992 3299.8992 3287.7136 3272.6074 3257.6018 3242.4956 3227.6917 3213.0889 3198.587 3184.2864 3170.0867 3154.2754 3166.5618 3182.9773 3199.1912 3215.2039 3231.015 3246.8262 3262.3352 3277.9448 3293.3533 -3291.4397 -3276.3335 -3261.2273 -3246.3225 -3231.6191 -3217.0166 -3202.3132 -3187.9119 -3173.5107 -3159.3108 -3085.9954 3299.8992 3299.8992 3299.8992 3299.8992 3299.8992 3299.8992 3299.8992 3299.8992 3299.8992 3299.8992 3288.0156 3272.9094 3257.8032 3242.697 3227.893 3213.2903 3198.7883 3184.5886 3170.4895 3155.8867 3164.2456 3180.7617 3196.9756 3212.8875 3228.6987 3244.6106 3260.1196 3275.6287 3290.9363 3299.8992 -3278.65 -3263.4429 -3248.538 -3233.8347 -3219.1313 -3204.5288 -3190.0269 -3175.6255 -3161.4258 -3147.4272 3299.8992 3299.8992 
3069.3787 3054.5745 3040.3748 3025.8728 3012.0757 2997.5737 2983.7769 2969.9797 2956.2834 2942.4866 2928.9917 2915.6982 2902.4048 2888.809 2875.3142 2751.6448 12.286377 2867.157 2885.9893 2904.419 2922.0427 2939.566 2957.492 2974.3103 2991.7327 3008.4502 3025.1677 3041.7847 3059.0056 3247.1282 -3241.4885 -3230.0078 -2920.23 -1836.8134 104.03137 2858.496 3116.3086 3102.5115 3088.5132 3074.3132 3060.0127 3045.813 3030.606 3016.809 3002.8105 2988.4094 2974.7131 2961.0168 2947.2197 2933.322 2919.7266 2906.5337 2893.4417 2880.0476 2858.9995 2298.4587 362.75024 2997.9766 2876.2207 2894.6501 2912.677 2930.0994 2947.522 2965.2466 2982.1655 2999.286 3016.3054 3032.9224 3137.6587 3299.8992 -3229.7058 -3275.125 -3240.8843 -3142.0898 -2836.038 -558.6273 1517.569 3134.5366 3120.5383 3106.2378 3091.7358 3077.0325 3062.4297 3047.7263 3033.9294 3019.3267 3005.6304 2991.632 2977.835 2963.9373 2950.241 2936.746 2923.4526 2909.7563 2896.06 2879.141 1672.2565 -2244.1772 2890.6218 2909.0515 2927.0781 2944.5007 2962.326 2979.1443 2996.3652 3013.4856 3030.4045 3047.122 3063.5376 3079.953 3096.2676 3112.2803 3128.2927 3144.2046 -1082.0068 1625.3265 3135.6445 3121.344 3107.144 3092.642 3078.1401 3063.5376 3048.9348 3034.3323 3020.4346 3006.0332 2992.1355 2978.54 2964.743 2950.8452 2937.2498 2923.8555 2910.6628 2897.2686 2883.673 2865.9485 1508.7067 -2369.9614 2880.551 2898.9807 2917.0073 2934.5305 2952.4565 2969.3755 2986.4958 3003.717 3020.636 3037.454 3053.9702 3070.4863 3086.7004 3102.9143 3118.8262 3134.8389 -1943.4631 732.55005 2392.7214 3124.063 3109.9639 3095.5627 3081.1614 3066.458 3051.5532 3037.555 3023.7578 3009.0544 2995.0562 2981.1584 2967.3613 2953.5645 2940.0696 2926.6753 2913.3818 2899.9878 2886.392 2872.293 2108.1206 -1444.8578 2876.3213 2894.8516 2912.979 2931.1064 2948.3276 2966.1528 2983.2732 3000.1921 3016.9097 3033.6272 3050.2441 3066.7603 3082.974 3099.3896 3115.3015 3131.314 -2122.2197 516.32996 3062.9333 3120.337 3106.0364 3091.635 3077.4353 3063.034 3047.6257 3033.8286 3019.931 3005.2275 2991.1284 2977.4321 2963.6353 2950.1404 2936.3433 2922.8484 2909.555 2896.3623 2882.5652 2865.8477 1648.9929 -1855.1422 2876.9255 2895.5566 
1433.9813 173.01636 731.24084 -354.19006 -1704.0802 -2793.5393 -2780.548 -2768.0603 -2755.673 -2743.4875 -2731.3018 -2405.8135 -1991.1987 -2148.5046 -2421.7253 -2596.4539 -2669.467 -2658.0872 -2646.8079 -2635.4277 -2624.3499 -2487.5884 -2602.597 -2591.6199 -2147.3967 -760.9497 1719.8914 3299.8992 3299.8992 3299.8992 3299.8992 3299.8992 3299.8992 3299.8992 3299.8992 3299.8992 3299.8992 3299.8992 3299.8992 2947.2197 1598.4375 234.95178 522.171 -589.14185 -2159.0789 -2791.0217 -2778.131 -2765.6433 -2753.357 -2741.1711 -2728.9856 -2596.9573 -2153.6406 -2292.2148 -2453.65 -2567.1477 -2663.7268 -2654.1594 -2642.6787 -2631.5002 -2515.8875 -2241.9617 -2599.777 -2588.8 -2193.1182 -745.9442 1796.6309 3299.8992 3299.8992 3299.8992 3299.8992 3299.8992 3299.8992 3299.8992 3299.8992 3299.8992 3299.8992 3299.8992 3299.8992 2873.8037 1628.7506 379.7699 715.329 -325.18616 -1538.5162 -2794.7478 -2781.6558 -2769.168 -2756.6802 -2744.4946 -2732.611 -2484.2651 -1865.8173 -1949.9084 -2174.7893 -2349.115 -2460.901 -2663.626 -2652.1453 -2640.7654 -2629.5867 -2616.0918 -2607.431 -2596.5544 -2313.7664 -1053.0029 1529.4525 3299.8992 3299.8992 3299.8992 3299.8992 3299.8992 3299.8992 3299.8992 3299.8992 3299.8992 3299.8992 3299.8992 3299.8992 3213.1897 1954.6417 596.79565 801.93787 -302.22473 -1712.8418 -2801.8982 -2788.7053 -2776.2175 -2763.8306 -2751.4434 -2739.3584 -2722.1375 -2202.9875 -2162.4023 -2329.6782 -2499.6733 -2581.2468 -2665.1367 -2653.7566 -2642.4773 -2631.2988 -2436.5295 -2609.6465 -2598.5686 -2084.3535 -909.2926 1586.3525 3299.8992 3299.8992 3299.8992 3299.8992 3299.8992 3299.8992 3299.8992 3299.8992 3299.8992 3299.8992 3299.8992 3299.8992 2951.9531 1642.4469 349.5575 641.7114 -468.9972 -1629.3549 -2801.4954 -2788.4033 -2775.9155 -2763.5283 -2751.0405 -2738.855 -2520.52 -1866.2201 -1833.6914 -2020.3033 -2207.62 -2358.1787 -2671.7834 -2660.7056 -2649.3254 -2620.6238 -2333.1023 -2616.8975 -2605.8196 -2444.8882 -1270.2301 1215.7471 3299.8992 3299.8992 3299.8992 3299.8992 3299.8992 3299.8992 3299.8992 3299.8992 3299.8992 3299.8992 3299.8992 3299.8992 3299.8992 2238.1348 916.9464 1103.5583 42.700195 -1256.0303 -2620.221 -2804.2144 -2791.3237 -2778.836 -2766.449 -2754.1626 -2704.9163 -2435.2202 -2424.3438 -2554.1565 -2691.7236 -2686.7888 -2675.308 -2663.9282 -2652.548 
3299.8992 3299.8992 3299.8992 3299.8992 3299.8992 3299.8992 3299.8992 3288.7207 3274.5208 3260.1196 3245.7183 3231.3171 3217.1172 3203.119 3189.2212 3175.122 3160.7207 1268.1152 3160.3179 3176.1292 3191.7388 3207.2478 3222.2534 3237.2588 3252.5664 3267.572 3282.074 3297.0793 -3288.1165 -3273.715 -3259.0117 -3244.5098 -3230.31 -3216.11 -3202.4138 -3188.1133 -3174.2156 -1682.0251 3299.8992 3299.8992 3299.8992 3299.8992 3299.8992 3299.8992 3299.8992 3299.8992 3299.8992 3290.7349 3276.132 3261.731 3247.1282 3232.8276 3218.527 3204.5288 3190.7317 3176.532 3162.1306 2049.6094 3158.4045 3174.3164 3189.926 3205.3345 3220.8435 3236.0503 3250.8545 3265.7593 3281.067 3295.8708 -3289.7278 -3275.2258 -3260.5225 -3246.4233 -3232.022 -3217.7214 -3203.7231 -3189.624 -3175.9277 -2400.9795 3299.8992 3299.8992 3299.8992 3299.8992 3299.8992 3299.8992 3299.8992 3299.8992 3299.8992 3291.742 3277.0386 3262.6372 3248.3367 3233.7341 3219.5342 3205.536 3191.4368 3177.4382 3163.1377 2402.3894 3158.2031 3173.8127 3189.5232 3204.9316 3220.4407 3235.3455 3250.8545 3265.8599 3280.2612 3295.3674 -3289.8284 -3275.125 -3260.7239 -3246.222 -3232.022 -3218.0237 -3203.7231 -3189.7246 -3175.9277 -2848.123 3299.8992 3299.8992 3299.8992 3299.8992 3299.8992 3299.8992 3299.8992 3299.8992 3299.8992 3293.2524 3278.4485 3264.047 3249.646 3235.3455 3221.1455 3207.0464 3193.2495 3178.949 3164.6484 2633.2122 3158.2031 3174.3164 3189.7246 3205.133 3220.5413 3235.5469 3251.056 3265.9607 3280.4626 3295.468 -3289.627 -3275.0244 -3260.5225 -3246.0205 -3232.022 -3217.7214 -3203.5217 -3189.5232 -3175.827 -3162.2314 3299.8992 3299.8992 3299.8992 3299.8992 3299.8992 3299.8992 3299.8992 3299.8992 3299.8992 3295.9717 3281.6711 3267.1692 3252.7678 3238.3667 3224.2676 3209.8662 3196.0693 3181.9702 3167.7703 3007.443 3158.4045 3174.417 3190.0269 3205.3345 3220.642 3235.6475 3250.955 3265.9607 3280.5632 3295.5688 -3289.627 -3275.0244 -3260.4216 -3246.0205 -3231.72 -3217.6208 -3203.5217 -3189.5232 -3175.6255 -3162.03 3299.8992 3299.8992 3299.8992 3299.8992 3299.8992 3299.8992 3299.8992 3299.8992 3299.8992 3298.0864 3283.2825 3268.982 3254.1777 3239.978 3225.6775 3211.5784 3197.6807 3183.4807 3169.1802 3108.554 3158.8074 3174.6184 
3299.8992 3299.8992 3299.8992 3299.8992 3299.8992 3299.8992 3289.0227 3273.3123 3257.0984 3241.5894 3226.3823 3211.0747 3195.868 3180.8623 3165.756 3150.348 3135.0403 1560.4706 3131.2134 3148.3337 3165.0513 3181.668 3198.3855 3214.4988 3230.612 3246.8262 3262.9395 3278.8513 3294.6624 -3289.7278 -3274.118 -3258.7097 -3243.402 -3228.0945 -3213.1897 -3198.184 -3183.3801 -1101.3428 3299.8992 3299.8992 3299.8992 3299.8992 3299.8992 3299.8992 3299.8992 3299.8992 3290.2312 3274.3193 3258.206 3242.7979 3227.4902 3212.1826 3196.875 3181.8694 3166.7632 3151.4556 3136.2488 2023.8281 3129.0984 3146.1182 3162.9363 3179.4524 3196.17 3212.4846 3228.4973 3244.7112 3260.8245 3276.8372 3292.6482 -3291.641 -3276.132 -3260.623 -3245.4163 -3230.1086 -3215.103 -3200.0977 -3185.2935 -1623.2117 3299.8992 3299.8992 3299.8992 3299.8992 3299.8992 3299.8992 3299.8992 3299.8992 3290.8354 3275.125 3258.8103 3243.3013 3227.893 3212.7869 3197.5798 3182.4736 3167.2668 3152.1606 3136.853 2178.5156 3129.0984 3146.2188 3162.9363 3179.6538 3195.5657 3212.2832 3228.598 3244.812 3260.9253 3276.8372 3292.6482 -3291.742 -3275.9307 -3260.5225 -3245.3154 -3230.1086 -3215.103 -3200.0977 -3185.2935 -2192.6147 3299.8992 3299.8992 3299.8992 3299.8992 3299.8992 3299.8992 3299.8992 3299.8992 3293.5547 3277.9448 3261.6301 3246.222 3230.713 3215.5059 3200.3997 3185.1929 3169.9858 3154.779 3139.4714 2497.055 3129.2998 3146.3196 3163.037 3179.6538 3195.767 3212.4846 3228.7993 3245.0134 3261.026 3277.0386 3292.6482 -3291.4397 -3275.83 -3260.4216 -3244.9126 -3229.8064 -3214.801 -3199.7954 -3184.9915 -2743.7896 3299.8992 3299.8992 3299.8992 3299.8992 3299.8992 3299.8992 3299.8992 3299.8992 3297.1802 3281.369 3265.2556 3249.7466 3234.3384 3219.0308 3203.7231 3188.7175 3173.5107 3158.3037 3142.996 2857.5896 -3028.5918 3146.521 3163.339 3179.956 3196.4722 3212.686 3228.9001 3245.114 3261.1267 3277.1392 3293.051 -3291.2383 -3275.7292 -3260.2202 -3245.0134 -3229.7058 -3214.5996 -3199.6948 -3184.8906 -2947.824 3299.8992 3299.8992 3299.8992 3299.8992 3299.8992 3299.8992 3299.8992 3299.8992 3298.6907 3282.8796 3266.565 3251.1565 3235.7483 3220.4407 3205.133 3190.0269 3174.8198 3159.613 3144.3054 2943.997 -2917.9138 3147.0244 
3299.8992 3299.8992 3299.8992 3299.8992 3299.8992 3299.8992 3299.7986 3284.0881 3268.0754 3251.8616 3236.554 3221.2463 3206.1401 3191.034 3175.9277 3160.62 3145.2117 919.3634 3146.0173 3162.9363 3179.4524 3195.9685 3211.9812 3228.4973 3244.812 3261.026 3277.1392 3292.8496 -3291.2383 -3275.83 -3260.2202 -3244.6106 -3229.4036 -3214.3982 -3199.3926 -3184.5886 -3169.9858 -805.8655 3299.8992 3299.8992 3299.8992 3299.8992 3299.8992 3299.8992 3299.8992 3299.8992 3299.8992 3285.1958 3269.3848 3253.07 3237.863 3222.5554 3207.3486 3192.1416 3177.0354 3161.8286 3146.3196 1460.8704 3144.5068 3161.4258 3178.0425 3194.5586 3211.0747 3227.188 3243.3013 3259.5154 3275.5278 3291.641 3299.8992 -3277.1392 -3261.5295 -3246.121 -3230.9143 -3215.7073 -3200.8025 -3185.8977 -3171.2952 -1650 3299.8992 3299.8992 3299.8992 3299.8992 3299.8992 3299.8992 3299.8992 3299.8992 3299.8992 3286.8071 3270.996 3254.6814 3239.4744 3223.9653 3208.8591 3193.753 3178.5461 3163.339 3147.931 1848.3948 3144.2046 3161.1235 3177.841 3194.2566 3210.8733 3226.9866 3243.2007 3259.4146 3275.4272 3291.339 3299.8992 -3277.24 -3261.731 -3246.222 -3231.1157 -3215.9087 -3200.9033 -3186.099 -3171.3958 -2240.9546 3299.8992 3299.8992 3299.8992 3299.8992 3299.8992 3299.8992 3299.8992 3299.8992 3299.8992 3289.1235 3273.2117 3256.897 3241.5894 3226.2817 3210.974 3195.868 3180.7617 3165.454 3149.945 2137.326 3144.7083 3161.6272 3178.244 3194.76 3211.2761 3227.3894 3243.6035 3259.8174 3275.83 3291.742 3299.8992 -3276.8372 -3261.3281 -3245.9197 -3230.612 -3215.5059 -3200.5005 -3185.5957 -3170.8923 -2787.094 3299.8992 3299.8992 3299.8992 3299.8992 3299.8992 3299.8992 3299.8992 3299.8992 3299.8992 3292.3462 3276.3335 3260.0188 3244.7112 3229.303 3214.096 3198.8892 3183.783 3168.4753 3152.9663 2542.575 3145.2117 3162.1306 3178.7476 3195.3643 3212.0818 3227.9937 3244.3083 3260.321 3276.4343 3292.3462 -3291.9434 -3276.3335 -3260.623 -3245.3154 -3230.0078 -3214.9016 -3199.9968 -3185.092 -3170.3887 -3105.5327 3299.8992 3299.8992 3299.8992 3299.8992 3299.8992 3299.8992 3299.8992 3299.8992 3299.8992 3295.2666 3279.4556 3263.04 3247.6318 3232.2234 3217.0166 3201.8096 3186.7034 3171.4966 3155.8867 2875.5156 3145.2117 3162.2314 
3299.8992 3299.8992 3299.8992 3299.8992 3299.8992 3299.8992 3291.1377 3275.6287 3260.2202 3244.9126 3229.2021 3214.2974 3199.594 3185.092 3170.691 3156.2896 3141.4856 2253.9458 3138.162 3154.9805 3171.3958 3187.6099 3203.5217 3219.635 3235.446 3251.358 3266.9678 3282.6782 3298.0864 -3286.203 -3270.7947 -3255.5876 -3240.3809 -3225.3752 -3210.3699 -3195.465 -3180.7617 -1776.4893 3299.8992 3299.8992 3299.8992 3299.8992 3299.8992 3299.8992 3299.8992 3299.8992 3292.749 3277.1392 3261.6301 3246.4233 3230.612 3215.808 3201.1047 3186.6028 3172 3157.5989 3142.996 2794.5464 3136.5508 3153.2683 3169.6838 3185.8977 3202.011 3218.0237 3233.9355 3249.7466 3265.457 3281.1675 3296.576 -3287.915 -3272.406 -3256.9976 -3241.7908 -3226.886 -3211.9812 -3196.9756 -3182.2722 -2619.818 3299.8992 3299.8992 3299.8992 3299.8992 3299.8992 3299.8992 3299.8992 3299.8992 3294.058 3278.549 3263.04 3247.6318 3231.8206 3217.218 3202.4138 3187.9119 3173.3093 3158.8074 3144.5068 3084.8877 3135.6445 3152.362 3168.6768 3184.9915 3201.004 3217.0166 3232.9285 3248.7395 3264.3494 3280.1604 3295.6694 -3288.8213 -3273.413 -3258.0046 -3242.7979 -3227.7922 -3212.686 -3197.882 -3183.078 -3143.2983 3299.8992 3299.8992 3299.8992 3299.8992 3299.8992 3299.8992 3299.8992 3299.8992 3295.8708 3280.3618 3264.8528 3249.646 3233.7341 3219.1313 3204.2266 3189.624 3175.122 3160.7207 3146.3196 3126.7822 3135.443 3152.1606 3168.6768 3185.092 3201.1047 3217.1172 3232.9285 3248.8403 3264.5508 3280.1604 3295.8708 -3288.8213 -3273.2117 -3257.904 -3242.7979 -3227.7922 -3212.7869 -3197.882 -3183.1787 -3168.576 3299.8992 3299.8992 3299.8992 3299.8992 3299.8992 3299.8992 3299.8992 3299.8992 3298.6907 3282.9802 3267.4712 3251.9622 3236.2517 3221.5483 3206.7444 3192.1416 3177.539 3163.1377 3148.6357 3133.1267 3135.9465 3152.765 3169.281 3185.4949 3201.5076 3217.4194 3233.3313 3249.2432 3265.0542 3280.664 3296.173 -3288.3179 -3272.8088 -3257.4004 -3242.2942 -3227.0874 -3212.1826 -3197.2778 -3182.5745 -3167.9717 3299.8992 3299.8992 3299.8992 3299.8992 3299.8992 3299.8992 3299.8992 3299.8992 3299.8992 3285.3972 3269.8882 3254.48 3238.6687 3223.9653 3209.1614 3194.3572 3179.8552 3165.2527 3150.8513 3135.5437 3135.6445 3152.4626 

3171.7986 3187.1062 3202.6152 3218.527 3233.13 3248.236 3263.3423 3278.0457 3292.8496 -3292.4468 -3277.9448 -3263.3423 -3249.0417 -3234.7412 -3220.642 -3206.2407 -3192.5444 -3178.7476 2296.0417 3299.8992 3299.8992 3299.8992 3299.8992 3299.8992 3299.8992 3299.8992 3299.8992 3290.9363 3276.132 3261.8315 3246.9268 3232.4248 3218.0237 3203.7231 3189.5232 3175.122 3160.922 3144.8088 -721.47217 3154.5776 3170.3887 3185.6963 3201.3062 3217.1172 3231.9214 3247.229 3262.2344 3276.8372 3291.9434 3299.8992 -3278.8513 -3264.6514 -3250.2502 -3235.9497 -3221.7498 -3207.2478 -3193.2495 -3179.7546 1526.8341 3299.8992 3299.8992 3299.8992 3299.8992 3299.8992 3299.8992 3299.8992 3299.8992 3292.5476 3277.7434 3262.738 3248.1353 3234.0361 3219.635 3205.2336 3190.933 3176.7334 3162.1306 3147.3267 -406.45752 3153.772 3169.6838 3185.2935 3200.9033 3216.7144 3231.3171 3246.4233 3261.731 3276.3335 3291.1377 3299.8992 -3279.5562 -3264.7522 -3250.3508 -3236.0503 -3222.1526 -3208.0535 -3193.753 -3180.1575 887.13684 3299.8992 3299.8992 3299.8992 3299.8992 3299.8992 3299.8992 3299.8992 3299.8992 3293.8567 3279.4556 3264.45 3249.8474 3235.3455 3221.2463 3206.9458 3192.5444 3177.841 3163.339 3149.0386 170.29724 3152.765 3168.3745 3183.9844 3200.0977 3214.9016 3230.612 3245.5168 3260.623 3275.5278 3290.5334 3299.8992 -3280.1604 -3265.7593 -3251.2573 -3236.9568 -3223.059 -3208.6577 -3194.5586 -3180.661 254.58984 3299.8992 3299.8992 3299.8992 3299.8992 3299.8992 3299.8992 3299.8992 3299.8992 3295.166 3280.4626 3265.7593 3251.1565 3236.7554 3222.1526 3208.0535 3193.753 3179.251 3164.749 3150.247 757.82776 3150.5493 3166.5618 3182.4736 3197.4792 3213.391 3228.0945 3243.6035 3258.206 3273.1108 3287.915 3299.8992 -3282.4768 -3267.9749 -3253.473 -3239.1724 -3225.3752 -3211.0747 -3196.875 -3183.1787 -331.63147 3299.8992 3299.8992 3299.8992 3299.8992 3299.8992 3299.8992 3299.8992 3299.8992 3295.3674 3280.5632 3265.8599 3251.1565 3236.6545 3222.2534 3208.1543 3193.753 3179.3518 3164.8499 3150.247 1149.7833 3148.8372 
3299.8992 3299.8992 3299.8992 3299.8992 3299.8992 3299.8992 3299.8992 3299.8992 3287.915 3272.708 3257.5012 3242.5964 3227.7922 3212.9883 3198.587 3184.2864 3170.288 3155.8867 3161.9292 3178.4453 3194.76 3210.6719 3226.5837 3242.395 3258.0046 3273.5137 3288.8213 3299.8992 -3280.664 -3265.6584 -3250.653 -3235.8489 -3221.1455 -3206.6436 -3192.1416 -3177.7405 -3163.44 -3149.4414 3299.8992 3299.8992 3299.8992 3299.8992 3299.8992 3299.8992 3299.8992 3299.8992 3299.8992 3299.8992 3288.6199 3273.413 3258.4075 3243.402 3228.4973 3213.8945 3199.3926 3185.092 3170.993 3156.7932 3160.4187 3177.0354 3193.2495 3209.3628 3225.2747 3241.0857 3256.6956 3272.2046 3287.6128 3299.8992 -3281.8726 -3266.867 -3251.9622 -3237.1582 -3222.4548 -3207.7515 -3193.2495 -3178.949 -3164.6484 -3150.5493 3299.8992 3299.8992 3299.8992 3299.8992 3299.8992 3299.8992 3299.8992 3299.8992 3299.8992 3299.8992 3289.7278 3274.6216 3259.4146 3244.5098 3229.605 3214.9016 3200.5005 3186.2 3172 3157.901 3159.1094 3175.827 3192.041 3208.1543 3223.9653 3239.8772 3255.3862 3270.996 3286.4043 3299.8992 -3283.1816 -3268.0754 -3253.07 -3238.2659 -3223.5625 -3208.96 -3194.458 -3180.0566 -3165.756 -3151.7578 3299.8992 3299.8992 3299.8992 3299.8992 3299.8992 3299.8992 3299.8992 3299.8992 3299.8992 3299.8992 3291.641 3276.3335 3261.3281 3246.3225 3231.3171 3216.7144 3202.1118 3187.8113 3173.6113 3159.4116 3158.5051 3175.122 3191.4368 3207.4492 3223.361 3239.1724 3254.8828 3270.4924 3285.8 3299.8992 -3283.6853 -3268.6797 -3253.6743 -3238.87 -3224.0662 -3209.4634 -3194.9614 -3180.661 -3166.3604 -3152.2612 3299.8992 3299.8992 3299.8992 3299.8992 3299.8992 3299.8992 3299.8992 3299.8992 3299.8992 3299.8992 3293.6553 3278.3477 3263.2415 3248.236 3233.2305 3218.527 3203.9246 3189.7246 3175.424 3161.4258 3158.0017 3174.7192 3191.034 3207.1472 3222.9583 3238.7695 3254.5806 3270.0896 3285.498 3299.8992 -3284.0881 -3268.881 -3253.9763 -3239.0715 -3224.469 -3209.8662 -3195.2637 -3180.7617 -3166.6626 -3152.4626 3299.8992 3299.8992 
2913.3818 2931.61 2949.234 2966.2537 2983.374 3000.595 3017.6147 3034.4329 3050.949 3067.3645 3083.5784 3099.893 3116.0063 3131.9182 -2074.9878 361.64246 2773.9014 3121.9482 3107.7483 3093.3472 3078.8452 3064.041 3049.539 3034.8357 3021.1394 3006.7383 2992.9412 2979.1443 2965.448 2951.651 2938.0554 2924.6611 2911.4685 2898.0742 2884.6802 2870.984 2378.3203 -825.70496 2870.4802 2889.1113 2907.3394 2924.8625 2942.4866 2960.3118 2977.4321 2994.452 3011.1694 3028.0884 3044.6045 3061.2212 3077.536 3093.75 3109.8633 3125.7751 -2707.3333 -418.13965 2154.6477 3124.8687 3110.4675 3096.0662 3081.665 3067.465 3052.4597 3038.4612 3024.463 3009.7595 2995.5596 2981.964 2967.9656 2954.1687 2940.6738 2927.3804 2913.8855 2900.4912 2886.8958 2873.3 1557.9529 -1516.4612 2880.0476 2898.477 2916.6045 2934.732 2951.7517 2969.577 2986.798 3003.6162 3020.3337 3037.0513 3053.7688 3070.0835 3086.2976 3102.5115 3118.7256 3134.436 -2227.359 88.62305 2460.3972 3127.7893 3113.2874 3098.9868 3084.4849 3070.285 3055.0781 3041.0796 3026.9805 3012.378 2998.0774 2984.4817 2970.6848 2956.9885 2943.1914 2929.6965 2916.6045 2903.311 2889.8162 2875.8179 2229.5745 -595.68787 2873.3 2891.9312 2910.1592 2928.3875 2946.112 2963.2324 2980.3528 2997.5737 3014.694 3031.4116 3048.0286 3064.5447 3080.8594 3097.174 3113.1865 3129.1992 -3045.2087 -835.2722 1877.298 3132.5225 3118.3228 3103.9214 3089.5203 3074.716 3060.214 3045.3093 3031.4116 3017.111 3003.3142 2989.517 2975.7202 2961.8225 2948.1262 2934.43 2921.237 2907.843 2894.2473 2880.3496 2422.531 -130.92041 2875.6165 2894.2473 2912.4756 2930.0994 2948.0254 2965.1458 2982.266 2999.4873 3016.5068 3033.3252 3049.942 3066.458 3082.672 3098.886 3115.1 3131.012 -2214.3677 168.28308 2678.6316 3122.9553 3108.7554 3094.4548 3079.953 3065.2495 3050.949 3036.145 3022.1465 3007.846 2993.8477 2980.252 2966.3542 2952.5574 2938.861 2925.4668 2912.3748 2899.0813 2885.5864 2871.8901 2526.361 80.76782 2865.1428 2883.975 
-2641.1682 -2506.2195 -2619.4153 -2608.5388 -2523.0376 -1584.137 1038.6017 3299.8992 3299.8992 3299.8992 3299.8992 3299.8992 3299.8992 3299.8992 3299.8992 3299.8992 3299.8992 3299.8992 3299.8992 3214.096 1740.4358 457.51648 763.266 -321.05713 -1507.196 -2758.5938 -2794.7478 -2782.0586 -2769.5708 -2757.3853 -2745.1995 -2704.4128 -2054.7454 -1949.1028 -1900.9644 -2092.6116 -2293.4233 -2644.29 -2666.4458 -2654.965 -2643.7866 -2518.9087 -2621.6309 -2610.553 -2382.55 -1417.4652 770.8191 2993.2434 3299.8992 3299.8992 3299.8992 3299.8992 3299.8992 3299.8992 3299.8992 3299.8992 3299.8992 3299.8992 3299.8992 3274.0173 2110.5376 835.87646 1351.1993 236.56311 -1124.4049 -2504.306 -2806.128 -2793.338 -2780.7495 -2768.4631 -2756.076 -2642.3767 -1954.541 -1784.1431 -2061.2915 -2305.6091 -2697.4639 -2685.8826 -2674.301 -2662.9211 -2651.6418 -2640.2617 -2629.3853 -2618.3074 -2598.77 -1683.2336 477.65808 2804.6172 3299.8992 3299.8992 3299.8992 3299.8992 3299.8992 3299.8992 3299.8992 3299.8992 3299.8992 3299.8992 3299.8992 3299.8992 2427.4658 1097.4152 1304.5715 123.87085 -1482.3212 -2822.8455 -2809.6526 -2797.0642 -2784.375 -2772.1892 -2759.8022 -2747.7173 -2240.2495 -1950.412 -2123.3276 -2290.402 -2488.092 -2688.1987 -2676.6174 -2665.1367 -2653.8574 -2552.6458 -2631.6008 -2620.523 -2529.6843 -1534.4879 447.44568 2737.5457 3299.8992 3299.8992 3299.8992 3299.8992 3299.8992 3299.8992 3299.8992 3299.8992 3299.8992 3299.8992 3299.8992 3299.8992 2276.6052 995.19653 1157.6385 18.22815 -1207.9926 -2539.3523 -2812.1704 -2799.4812 -2786.8926 -2774.5056 -2762.2192 -2701.6936 -2064.0105 -1845.1721 -2095.8342 -2328.1677 -2467.8496 -2561.1052 -2680.7463 -2669.2656 -2657.8857 -2646.5056 -2635.6292 -2624.652 -2564.4287 -1657.6538 295.3766 2658.49 3299.8992 3299.8992 3299.8992 3299.8992 3299.8992 3299.8992 3299.8992 3299.8992 3299.8992 3299.8992 3299.8992 3299.8992 2575.6072 1270.935 1424.5148 193.46008 -1080.7983 -2381.2407 -2820.63 -2807.9407 -2795.352 -2782.7637 -2770.578 -2758.3923 -2561.8103 -2264.7217 -2461.6057 -2612.97 -2703.6072 -2691.8242 -2680.3435 -2668.9636 
3190.1274 3205.6365 3221.045 3236.1511 3251.5593 3266.565 3281.067 3295.9717 -3289.0227 -3274.6216 -3260.0188 -3245.5168 -3231.2163 -3217.218 -3202.9175 -3188.919 -3175.122 -3161.4258 3299.8992 3299.8992 3299.8992 3299.8992 3299.8992 3299.8992 3299.8992 3299.8992 3299.8992 3299.8992 3286.6057 3271.9023 3257.5012 3243.0999 3228.9001 3214.4988 3200.601 3186.6028 3172.5037 3157.3975 3157.0952 3173.007 3188.7175 3204.2266 3219.3328 3234.7412 3249.3438 3264.45 3279.7576 3294.3604 -3291.2383 -3276.3335 -3262.033 -3247.531 -3233.2305 -3219.1313 -3204.8308 -3191.034 -3177.1362 -3163.339 3299.8992 3299.8992 3299.8992 3299.8992 3299.8992 3299.8992 3299.8992 3299.8992 3299.8992 3299.8992 3286.1023 3271.701 3257.0984 3242.9993 3228.3965 3214.1968 3200.299 3186.2 3172.2014 3157.196 3155.484 3171.3958 3187.3076 3202.5146 3218.1243 3233.13 3248.639 3263.6443 3278.1462 3293.1519 -3291.9434 -3277.3406 -3262.738 -3248.3367 -3233.9355 -3219.7356 -3205.6365 -3191.6382 -3177.7405 -3164.0442 3299.8992 3299.8992 3299.8992 3299.8992 3299.8992 3299.8992 3299.8992 3299.8992 3299.8992 3299.8992 3287.7136 3273.1108 3258.609 3244.2078 3229.9072 3215.5059 3201.6082 3187.6099 3173.6113 3158.5051 -2405.5115 3169.6838 3185.3943 3200.9033 3216.0095 3231.3171 3246.222 3261.1267 3276.535 3291.2383 3299.8992 -3279.657 -3265.2556 -3250.5522 -3236.3525 -3222.1526 -3208.0535 -3194.0552 -3180.0566 -3166.4612 3299.8992 3299.8992 3299.8992 3299.8992 3299.8992 3299.8992 3299.8992 3299.8992 3299.8992 3299.8992 3287.7136 3273.2117 3258.7097 3244.2078 3229.9072 3215.808 3201.8096 3187.7104 3173.5107 3158.8074 -1447.3755 3167.2668 3182.9773 3198.285 3213.8945 3228.9001 3244.4092 3259.5154 3274.0173 3289.1235 3299.8992 -3281.5703 -3266.867 -3252.365 -3237.9639 -3223.8647 -3209.7656 -3195.6665 -3181.7688 -3167.7703 2829.19 3299.8992 3299.8992 3299.8992 3299.8992 3299.8992 3299.8992 3299.8992 3299.8992 3299.8992 3287.8142 3273.3123 3258.9111 3244.3083 3230.0078 3216.0095 3201.8096 3187.9119 3173.6113 3159.1094 -834.66797 3165.5547 
3163.8428 3180.4595 3197.177 3213.391 3229.605 3245.7183 3261.8315 3277.7434 3293.6553 -3290.634 -3275.0244 -3259.616 -3244.2078 -3229.0007 -3213.9954 -3198.9897 -3184.2864 -3123.3582 3299.8992 3299.8992 3299.8992 3299.8992 3299.8992 3299.8992 3299.8992 3299.8992 3299.8992 3285.6995 3269.4854 3254.0771 3238.568 3223.2605 3208.0535 3192.8467 3177.6396 3162.332 3147.1252 3122.0488 -2000.766 3145.6145 3162.5334 3179.1504 3195.868 3212.1826 3228.3965 3244.5098 3260.623 3276.535 3292.3462 -3291.742 -3276.233 -3260.8245 -3245.3154 -3230.1086 -3215.103 -3200.1982 -3185.3943 -3170.7915 3278.952 3299.8992 3299.8992 3299.8992 3299.8992 3299.8992 3299.8992 3299.8992 3299.8992 3286.7065 3270.4924 3254.9834 3239.4744 3224.1667 3208.8591 3193.753 3178.6467 3163.339 3148.0315 3127.185 -1717.4744 3145.2117 3162.03 3178.7476 3194.9614 3211.5784 3228.0945 3244.2078 3260.321 3276.3335 3292.1448 -3292.2454 -3276.535 -3261.026 -3245.7183 -3230.5115 -3215.4053 -3200.5005 -3185.6963 -3171.0938 2886.2915 3299.8992 3299.8992 3299.8992 3299.8992 3299.8992 3299.8992 3299.8992 3299.8992 3287.915 3271.6003 3256.192 3240.6829 3225.2747 3210.0676 3194.8608 3179.8552 3164.447 3149.24 3133.6304 -665.4785 3141.3848 3158.3037 3174.9207 3191.1345 3207.852 3224.2676 3240.3809 3256.4941 3272.5066 3288.4185 3299.8992 -3280.3618 -3264.6514 -3249.3438 -3234.0361 -3218.93 -3204.0251 -3189.2212 -3174.6184 1816.9739 3299.8992 3299.8992 3299.8992 3299.8992 3299.8992 3299.8992 3299.8992 3299.8992 3288.3179 3272.0032 3256.3933 3240.985 3225.5767 3210.3699 3195.1628 3180.0566 3164.6484 3149.5422 3134.0332 -325.7904 3139.9749 3156.8938 3173.5107 3190.2283 3206.6436 3222.7568 3238.971 3255.0842 3271.0967 3287.0085 3299.8992 -3281.5703 -3266.0613 -3250.7537 -3235.3455 -3220.2393 -3205.3345 -3190.5303 -3175.827 1403.8696 3299.8992 3299.8992 3299.8992 3299.8992 3299.8992 3299.8992 3299.8992 3299.8992 3288.3179 3272.1038 3256.5947 3241.0857 3225.6775 3210.4705 3195.3643 3180.0566 3164.9504 3149.6428 3134.3352 163.85193 3137.7593 
3178.949 3195.465 3211.9812 3228.0945 3244.3083 3260.4216 3276.4343 3292.3462 -3291.742 -3276.132 -3260.5225 -3245.114 -3229.9072 -3214.7002 -3199.7954 -3184.9915 -3170.288 -3155.8867 3299.8992 3299.8992 3299.8992 3299.8992 3299.8992 3299.8992 3299.8992 3299.8992 3299.8992 3296.9788 3281.1675 3264.6514 3249.2432 3233.8347 3218.628 3203.3203 3188.214 3172.9065 3157.498 3066.8608 3144.3054 3161.4258 3177.942 3194.5586 3210.6719 3227.2888 3243.402 3259.7168 3275.6287 3291.641 3299.8992 -3276.9377 -3261.3281 -3245.9197 -3230.612 -3215.6067 -3200.601 -3185.6963 -3170.993 -3156.491 3299.8992 3299.8992 3299.8992 3299.8992 3299.8992 3299.8992 3299.8992 3299.8992 3299.8992 3298.59 3282.6782 3266.162 3250.7537 3235.446 3220.1384 3204.9316 3189.8254 3174.6184 3159.1094 3137.2559 3276.233 3160.8215 3177.539 3194.1558 3210.1685 3226.7852 3242.9993 3259.1125 3275.3264 3291.1377 3299.8992 -3277.4414 -3261.8315 -3246.3225 -3231.1157 -3215.808 -3201.004 -3186.099 -3171.4966 -3156.9946 3299.8992 3299.8992 3299.8992 3299.8992 3299.8992 3299.8992 3299.8992 3299.8992 3299.8992 3299.8992 3284.793 3268.3777 3252.8687 3237.4602 3222.2534 3207.0464 3191.7388 3176.532 3161.1235 3145.111 -2147.7996 3158.606 3175.3235 3192.041 3208.0535 3224.6704 3240.8843 3257.0984 3273.1108 3289.1235 3299.8992 -3279.4556 -3263.8457 -3248.3367 -3233.13 -3217.9229 -3202.9175 -3188.1133 -3173.41 -3158.8074 3299.8992 3299.8992 3299.8992 3299.8992 3299.8992 3299.8992 3299.8992 3299.8992 3299.8992 3299.8992 3285.1958 3268.6797 3253.2715 3237.7625 3222.6562 3207.3486 3192.041 3177.0354 3161.5264 3145.816 -1618.0756 3156.8938 3173.7122 3190.4297 3206.543 3222.9583 3239.3738 3255.5876 3271.4995 3287.5122 3299.8992 -3281.067 -3265.457 -3250.0488 -3234.5398 -3219.5342 -3204.3274 -3189.624 -3174.7192 -3160.2173 2720.929 3299.8992 3299.8992 3299.8992 3299.8992 3299.8992 3299.8992 3299.8992 3299.8992 3299.8992 3285.3972 3268.881 3253.473 3238.0645 3222.6562 3207.55 3192.2424 3177.0354 3161.7278 3146.0173 -792.97485 3154.2754 
3168.8782 3185.3943 3201.3062 3217.3186 3233.432 3249.2432 3264.8528 3280.664 3296.173 -3288.4185 -3273.0103 -3257.6018 -3242.395 -3227.188 -3212.1826 -3197.4792 -3182.675 -3168.173 3299.8992 3299.8992 3299.8992 3299.8992 3299.8992 3299.8992 3299.8992 3299.8992 3299.8992 3287.6128 3272.1038 3256.5947 3240.6829 3225.9795 3211.2761 3196.4722 3181.7688 3167.4683 3152.8655 3137.86 3134.8389 3151.7578 3168.173 3184.3872 3200.5005 3216.513 3232.3242 3248.236 3263.9465 3279.657 3295.2666 -3289.224 -3273.715 -3258.4075 -3243.2007 -3228.0945 -3213.1897 -3198.285 -3183.4807 -3168.9788 3299.8992 3299.8992 3299.8992 3299.8992 3299.8992 3299.8992 3299.8992 3299.8992 3299.8992 3289.0227 3273.413 3258.1055 3242.1936 3227.188 3212.384 3197.6807 3183.078 3168.6768 3154.1748 3139.27 -2889.8162 3150.1465 3166.7632 3182.9773 3199.0906 3215.103 3231.015 3247.0276 3262.6372 3278.3477 3293.9575 -3290.5334 -3275.0244 -3259.8174 -3244.6106 -3229.303 -3214.2974 -3199.4934 -3184.79 -3170.288 3299.8992 3299.8992 3299.8992 3299.8992 3299.8992 3299.8992 3299.8992 3299.8992 3299.8992 3289.9292 3274.4202 3259.0117 3243.2007 3228.195 3213.391 3198.6877 3184.085 3169.583 3155.081 3140.277 -1677.8961 3148.233 3164.8499 3181.1646 3197.4792 3213.391 3229.4036 3245.2148 3260.9253 3276.6357 3292.3462 -3292.044 -3276.6357 -3261.4287 -3246.3225 -3231.1157 -3216.11 -3201.2053 -3186.4014 -3171.698 3299.8992 3299.8992 3299.8992 3299.8992 3299.8992 3299.8992 3299.8992 3299.8992 3299.8992 3290.9363 3275.3264 3260.0188 3244.107 3229.2021 3214.2974 3199.4934 3184.9915 3170.4895 3155.9875 3141.1833 -800.9308 3147.1252 3163.6414 3179.956 3196.17 3212.0818 3228.195 3243.9055 3259.7168 3275.5278 3291.0369 -3293.4539 -3277.9448 -3262.6372 -3247.3296 -3232.1228 -3217.0166 -3202.2124 -3187.4084 -3172.8057 2619.5159 3299.8992 3299.8992 3299.8992 3299.8992 3299.8992 3299.8992 3299.8992 3299.8992 3291.8425 3276.233 3260.8245 3244.9126 3229.9072 3215.2039 3200.3997 3185.797 3171.2952 3156.6924 3142.0898 40.585327 3145.7153 

3164.8499 3180.5603 3195.9685 3210.8733 3226.7852 3241.5894 3256.5947 3271.8018 3286.4043 3299.8992 -3284.0881 -3269.5862 -3255.0842 -3240.7837 -3226.5837 -3212.4846 -3198.3855 -3184.3872 -1071.7346 3299.8992 3299.8992 3299.8992 3299.8992 3299.8992 3299.8992 3299.8992 3299.8992 3296.0723 3281.4697 3266.7664 3252.1636 3237.4602 3223.059 3208.6577 3194.3572 3180.0566 3165.857 3151.1536 1526.532 3147.4272 3163.2385 3179.251 3194.76 3209.6648 3225.3752 3240.5823 3255.5876 3270.5933 3285.498 3299.8992 -3285.1958 -3270.7947 -3256.192 -3241.8914 -3227.6917 -3213.5925 -3199.4934 -3185.6963 -1493.4998 3299.8992 3299.8992 3299.8992 3299.8992 3299.8992 3299.8992 3299.8992 3299.8992 3296.0723 3281.4697 3266.7664 3252.063 3237.9639 3223.5625 3208.96 3194.458 3180.5603 3166.0583 3151.1536 2029.8706 3146.1182 3160.5193 3176.0283 3191.5374 3207.55 3222.2534 3237.4602 3252.7678 3267.7734 3282.5774 3296.9788 -3288.3179 -3273.715 -3259.314 -3245.0134 -3230.713 -3216.513 -3202.1118 -3188.214 -2186.975 3299.8992 3299.8992 3299.8992 3299.8992 3299.8992 3299.8992 3299.8992 3299.8992 3297.1802 3282.376 3267.3706 3252.6672 3238.568 3223.764 3209.5642 3195.2637 3181.1646 3166.3604 3151.8584 2425.5522 -3004.9255 3158.4045 3173.8127 3189.5232 3205.435 3220.2393 3235.7483 3250.653 3265.3564 3280.2612 3295.0652 -3290.332 -3275.4272 -3261.1267 -3246.6248 -3232.4248 -3218.527 -3204.428 -3190.1274 -2500.2776 3299.8992 3299.8992 3299.8992 3299.8992 3299.8992 3299.8992 3299.8992 3299.8992 3296.2737 3281.5703 3267.2698 3252.5664 3237.7625 3223.361 3209.0605 3194.9614 3180.4595 3165.9575 3151.4556 2497.8606 -2860.3088 3157.196 3172.705 3188.3147 3204.428 3219.0308 3234.3384 3249.7466 3264.5508 3279.0527 3294.058 -3291.339 -3276.7363 -3262.033 -3247.7324 -3233.432 -3219.2322 -3205.133 -3191.1345 -2891.226 3299.8992 3299.8992 3299.8992 3299.8992 3299.8992 3299.8992 3299.8992 3299.8992 3297.885 3283.1816 3268.579 3253.8757 3239.3738 3224.8718 3210.6719 3196.2708 3182.0708 3167.871 3152.9663 2921.0356 -2087.2742 
3299.8992 3299.8992 3299.8992 3299.8992 3299.8992 3299.8992 3299.8992 3299.8992 3295.5688 3280.2612 3265.155 3250.0488 3235.144 3220.3398 3205.838 3191.5374 3177.2368 3163.2385 3157.2966 3174.0142 3190.5303 3206.543 3222.4548 3238.2659 3253.9763 3269.4854 3284.8938 3299.8992 -3284.5916 -3269.3848 -3254.48 -3239.6758 -3224.9724 -3210.3699 -3195.767 -3181.366 -3167.166 -3152.9663 3299.8992 3299.8992 3299.8992 3299.8992 3299.8992 3299.8992 3299.8992 3299.8992 3299.8992 3299.8992 3297.2808 3281.9731 3266.9678 3251.7607 3236.856 3222.052 3207.4492 3193.1487 3178.8481 3164.8499 3156.491 3173.3093 3189.7246 3205.838 3221.7498 3237.4602 3253.2715 3268.7805 3284.1887 3299.5972 -3285.2966 -3270.1904 -3255.1848 -3240.28 -3225.6775 -3210.974 -3196.4722 -3181.9702 -3167.7703 -3153.6711 2475.7048 3299.8992 3299.8992 3299.8992 3299.8992 3299.8992 3299.8992 3299.8992 3299.8992 3299.8992 3298.7915 3283.5845 3268.4783 3253.372 3238.3667 3223.6633 3209.0605 3194.5586 3180.359 3166.2598 3221.4478 3172.4028 3188.8184 3205.0322 3221.045 3236.7554 3252.5664 3268.0754 3283.484 3298.7915 -3285.901 -3270.7947 -3255.789 -3240.985 -3226.2817 -3211.679 -3196.9756 -3182.675 -3168.3745 -3154.2754 604.6509 3299.8992 3299.8992 3299.8992 3299.8992 3299.8992 3299.8992 3299.8992 3299.8992 3299.8992 3299.8992 3285.2966 3270.1904 3255.0842 3240.0786 3225.2747 3210.6719 3196.17 3181.9702 3167.9717 -538.2843 3171.4966 3187.8113 3203.9246 3219.937 3235.7483 3251.358 3267.1692 3282.4768 3297.885 -3286.908 -3271.8018 -3256.897 -3241.9922 -3227.188 -3212.5854 -3197.9827 -3183.5815 -3169.3816 -3155.182 -1001.3397 3299.8992 3299.8992 3299.8992 3299.8992 3299.8992 3299.8992 3299.8992 3299.8992 3299.8992 3299.8992 3286.8071 3271.701 3256.5947 3241.5894 3226.6846 3212.0818 3197.7812 3183.3801 3169.281 1262.7777 3170.59 3187.1062 3203.3203 3219.2322 3235.144 3250.7537 3266.2627 3281.8726 3297.1802 -3287.6128 -3272.5066 -3257.5012 -3242.5964 -3227.893 -3213.1897 -3198.6877 -3184.2864 -3169.8853 -3155.7861 -2182.544 3299.8992 
2902.304 2919.928 2937.4512 2955.3772 2972.5981 2989.618 3006.3354 3023.2544 3039.7705 3056.3872 3072.8027 3089.1174 3105.13 3121.1426 -2968.7712 -958.74023 815.43274 3124.8687 3117.2148 3102.8137 3088.5132 3074.3132 3059.6099 3044.806 3030.9082 3016.5068 3002.6091 2988.8123 2975.0151 2961.2183 2947.522 2933.9263 2920.6328 2907.3394 2893.643 2880.0476 2727.1729 561.64856 2868.466 2887.1978 2905.5266 2923.1506 2941.1772 2958.3984 2975.6194 2992.8406 3009.961 3026.6785 3043.396 3060.0127 3076.3274 3092.642 3108.6548 3124.768 -3147.1252 -1216.8549 1367.9169 3132.7239 3118.7256 3104.5256 3090.0237 3075.2197 3060.7178 3045.9136 3031.8145 3017.514 3003.6162 2989.7185 2975.8208 2962.024 2948.3276 2934.6313 2921.237 2908.0444 2894.4487 2880.7524 2646.2036 425.89417 2870.2788 2888.809 2907.2388 2924.9634 2942.99 2960.0098 2977.3315 2994.5525 3011.6729 3028.3904 3045.0073 3061.624 3077.9387 3094.2534 3110.4675 3126.3794 -3010.3638 -1037.1918 1587.0575 3131.7168 3117.6177 3103.3171 3088.7146 3074.0112 3059.1064 3045.0073 3031.0088 3016.5068 3002.4077 2988.51 2974.8137 2960.916 2947.0183 2933.5234 2920.23 2907.138 2893.5425 2880.0476 2861.215 1338.8123 -2795.05 2879.3425 2897.7722 2916.101 2933.4229 2951.4495 2968.7712 2985.791 3002.71 3019.4275 3036.145 3052.7617 3069.1772 3085.391 3101.6052 3117.7185 3259.9182 -1780.719 798.5138 3132.321 3118.3228 3104.1228 3089.6208 3075.4211 3060.9192 3046.0144 3031.9153 3017.6147 3003.8176 2989.8193 2976.0222 2962.326 2948.4282 2934.8328 2921.338 2908.145 2894.5496 2881.1553 2478.3232 251.77002 2891.226 2889.8162 2908.2458 2925.769 2943.2922 2961.2183 2978.4392 2995.3582 3012.0757 3028.9946 3045.813 3062.1277 3078.4424 3094.757 3110.8704 3126.9836 3294.2595 -1679.306 925.8087 3139.7734 3125.6743 3111.4746 3096.9727 3082.7727 3068.1702 3053.1646 3038.864 3024.5635 3010.7666 2996.869 2982.9712 2969.275 2955.4778 2941.7815 2928.3875 2915.1946 2901.6997 2888.1042 2870.4802 1493.8019 -1557.8522 2881.3567 
-2657.5835 -2646.1028 -2635.1257 -2624.0479 -2500.6804 -1679.306 146.12732 2534.8206 3299.8992 3299.8992 3299.8992 3299.8992 3299.8992 3299.8992 3299.8992 3299.8992 3299.8992 3299.8992 3299.8992 3299.8992 2215.6768 876.15967 1072.8424 -91.241455 -1366.7084 -2579.9377 -2810.559 -2797.769 -2785.2812 -2772.9949 -2760.507 -2748.7244 -2420.9197 -1981.5308 -2178.9185 -2428.8757 -2622.235 -2662.5183 -2675.2075 -2663.8274 -2652.548 -2639.154 -2629.9895 -2618.7102 -2607.8337 -2015.9729 -314.4104 2052.3284 3299.8992 3299.8992 3299.8992 3299.8992 3299.8992 3299.8992 3299.8992 3299.8992 3299.8992 3299.8992 3299.8992 3299.8992 3208.1543 1886.3617 2021.109 669.2047 -740.20386 -2119.8027 -2821.2341 -2808.545 -2795.9563 -2783.4685 -2771.0815 -2758.8958 -2674.301 -2299.3652 -2453.0457 -2652.246 -2703.2043 -2691.8242 -2680.243 -2668.8628 -2657.483 -2646.3042 -2634.8235 -2623.645 -2591.4185 -1843.7622 67.57507 2475.5034 3299.8992 3299.8992 3299.8992 3299.8992 3299.8992 3299.8992 3299.8992 3299.8992 3299.8992 3299.8992 3299.8992 3299.8992 2477.1147 1134.0729 1302.9602 81.674194 -1137.8998 -2362.6099 -2815.1917 -2802.5024 -2789.8132 -2777.5269 -2765.1396 -2752.954 -2426.9622 -1969.1437 -1809.3201 -1995.5292 -2279.0222 -2421.6248 -2685.6812 -2674.2004 -2662.7197 -2647.9155 -2640.1611 -2629.0833 -2617.1997 -1920.8038 -354.5929 1938.5284 3299.8992 3299.8992 3299.8992 3299.8992 3299.8992 3299.8992 3299.8992 3299.8992 3299.8992 3299.8992 3299.8992 3299.8992 2860.5103 1530.661 1911.8408 606.56433 -697.8058 -2039.1357 -2826.37 -2813.681 -2800.9917 -2788.504 -2776.016 -2763.8306 -2613.0706 -2193.3196 -2264.923 -2476.8127 -2710.254 -2698.5718 -2687.091 -2675.6104 -2664.2302 -2653.0518 -2641.6716 -2630.3923 -2619.5159 -1959.4757 -547.54944 1716.4673 3299.8992 3299.8992 3299.8992 3299.8992 3299.8992 3299.8992 3299.8992 3299.8992 3299.8992 3299.8992 3299.8992 3299.8992 3099.0874 1924.9329 2109.8328 757.72705 -880.6915 -2255.658 -2828.888 -2815.9973 -2803.4087 -2790.921 -2778.534 -2766.2476 -2638.2476 -2121.7163 -2270.2605 -2502.2917 -2704.9163 -2701.4922 -2689.911 -2678.4302 
3181.1646 3196.7742 3211.9812 3227.3894 3242.1936 3257.199 3272.6074 3287.3108 3299.8992 -3283.6853 -3268.982 -3254.48 -3240.1794 -3225.879 -3211.8804 -3197.4792 -3183.783 -3169.9858 1528.5461 3299.8992 3299.8992 3299.8992 3299.8992 3299.8992 3299.8992 3299.8992 3299.8992 3299.8992 3288.1165 3273.6145 3259.314 3244.7112 3230.4106 3216.4124 3202.1118 3188.214 3174.0142 3159.7136 62.338257 3163.2385 3178.949 3194.5586 3210.0676 3225.0732 3240.6829 3255.789 3270.1904 3285.3972 3299.8992 -3284.9944 -3270.6938 -3255.9905 -3241.69 -3227.2888 -3213.4917 -3199.1912 -3185.1929 -3171.3958 266.37268 3299.8992 3299.8992 3299.8992 3299.8992 3299.8992 3299.8992 3299.8992 3299.8992 3299.8992 3289.4255 3274.823 3260.0188 3245.819 3231.5186 3217.3186 3203.2195 3189.1204 3175.122 3160.7207 793.98193 3162.03 3177.7405 3193.35 3208.5571 3223.9653 3238.7695 3253.775 3269.1833 3283.9873 3298.3887 -3286.908 -3272.3052 -3257.6018 -3243.5027 -3229.2021 -3215.0024 -3200.8025 -3186.9048 -3173.2085 -709.5886 3299.8992 3299.8992 3299.8992 3299.8992 3299.8992 3299.8992 3299.8992 3299.8992 3299.8992 3289.8284 3275.3264 3260.623 3246.121 3231.9214 3217.8223 3203.5217 3189.624 3175.525 3161.4258 1604.7821 3159.5122 3175.424 3190.933 3206.543 3221.6492 3237.1582 3252.2644 3266.7664 3281.9731 3296.7773 -3288.5193 -3273.816 -3259.616 -3244.9126 -3230.713 -3216.513 -3202.3132 -3188.3147 -3174.8198 -1520.5902 3299.8992 3299.8992 3299.8992 3299.8992 3299.8992 3299.8992 3299.8992 3299.8992 3299.8992 3290.332 3275.83 3261.026 3246.9268 3232.4248 3218.225 3204.126 3190.2283 3176.1292 3161.8286 1939.8376 3158.8074 3174.7192 3190.2283 3205.435 3220.8435 3235.7483 3250.7537 3266.162 3280.966 3295.3674 -3289.9292 -3275.2258 -3260.7239 -3246.3225 -3232.1228 -3217.8223 -3203.8237 -3189.8254 -3175.9277 -2291.9128 3299.8992 3299.8992 3299.8992 3299.8992 3299.8992 3299.8992 3299.8992 3299.8992 3299.8992 3291.2383 3276.6357 3262.1338 3247.7324 3233.432 3219.3328 3205.0322 3190.933 3176.9348 3162.6343 2573.291 3156.7932 
3154.779 3171.3958 3188.214 3204.5288 3220.8435 3236.9568 3253.07 3269.0825 3285.0952 3299.8992 -3283.484 -3267.9749 -3252.5664 -3237.3596 -3222.2534 -3207.1472 -3192.343 -3177.539 692.46826 3299.8992 3299.8992 3299.8992 3299.8992 3299.8992 3299.8992 3299.8992 3299.8992 3289.1235 3272.9094 3257.4004 3241.8914 3226.4832 3211.377 3196.0693 3180.8623 3165.857 3150.5493 3135.2417 860.65063 3135.0403 3151.9592 3168.6768 3185.4949 3201.8096 3218.0237 3234.3384 3250.3508 3266.464 3282.376 3298.1873 -3286.203 -3270.6938 -3255.1848 -3239.8772 -3224.6704 -3209.5642 -3194.8608 -3180.0566 62.438965 3299.8992 3299.8992 3299.8992 3299.8992 3299.8992 3299.8992 3299.8992 3299.8992 3289.0227 3272.8088 3257.199 3241.69 3226.181 3211.0747 3195.868 3180.7617 3165.5547 3150.247 3135.0403 1071.5332 3133.8318 3150.9521 3167.6697 3183.9844 3200.702 3216.9158 3233.3313 3249.5452 3265.457 3281.4697 3297.2808 -3287.0085 -3271.399 -3256.0913 -3240.6829 -3225.6775 -3210.5713 -3195.6665 -3180.8623 -565.7776 3299.8992 3299.8992 3299.8992 3299.8992 3299.8992 3299.8992 3299.8992 3299.8992 3290.634 3274.3193 3258.7097 3243.3013 3227.893 3212.5854 3197.3784 3182.2722 3167.0654 3151.657 3136.4502 1610.6232 3132.321 3149.3408 3166.2598 3182.373 3199.0906 3215.808 3231.8206 3247.9338 3264.047 3279.8584 3295.6694 -3288.5193 -3272.8088 -3257.5012 -3242.1936 -3226.886 -3211.9812 -3197.0764 -3182.2722 -1278.9917 3299.8992 3299.8992 3299.8992 3299.8992 3299.8992 3299.8992 3299.8992 3299.8992 3292.1448 3275.83 3260.4216 3245.0134 3229.5044 3214.1968 3198.9897 3183.8835 3168.6768 3153.3691 3138.162 1960.1807 3131.5154 3148.6357 3165.454 3181.5674 3198.3855 3214.9016 3231.015 3247.3296 3263.2415 3279.1533 3294.9646 -3289.325 -3273.715 -3258.206 -3242.8984 -3227.7922 -3212.686 -3197.7812 -3183.078 -1616.7664 3299.8992 3299.8992 3299.8992 3299.8992 3299.8992 3299.8992 3299.8992 3299.8992 3292.749 3276.4343 3260.9253 3245.4163 3230.0078 3214.7002 3199.594 3184.3872 3169.1802 3153.8726 3138.7664 2522.3328 3128.4941 
3170.8923 3187.6099 3203.6223 3220.1384 3236.4531 3252.6672 3268.982 3284.793 3299.8992 -3283.6853 -3268.0754 -3252.6672 -3237.2588 -3222.052 -3206.9458 -3192.1416 -3177.4382 -3162.8357 1443.2465 3299.8992 3299.8992 3299.8992 3299.8992 3299.8992 3299.8992 3299.8992 3299.8992 3299.8992 3285.901 3269.4854 3254.1777 3238.7695 3223.462 3208.1543 3192.9473 3177.841 3162.4329 3146.823 -310.18066 3152.8655 3169.583 3186.3005 3202.9175 3219.0308 3235.3455 3251.5593 3267.572 3283.6853 3299.3958 -3284.793 -3269.1833 -3253.6743 -3238.3667 -3223.059 -3208.0535 -3193.2495 -3178.4453 -3163.8428 839.30054 3299.8992 3299.8992 3299.8992 3299.8992 3299.8992 3299.8992 3299.8992 3299.8992 3299.8992 3286.6057 3270.1904 3254.6814 3239.3738 3223.9653 3208.7585 3193.5515 3178.3447 3163.037 3147.4272 279.0619 3151.1536 3167.9717 3184.4878 3201.2053 3217.3186 3233.6333 3249.7466 3265.9607 3281.9731 3297.885 -3286.5051 -3270.7947 -3255.3862 -3239.978 -3224.6704 -3209.5642 -3194.76 -3179.956 -3165.454 -15.408325 3299.8992 3299.8992 3299.8992 3299.8992 3299.8992 3299.8992 3299.8992 3299.8992 3299.8992 3287.4114 3270.996 3255.5876 3240.1794 3224.771 3209.5642 3194.3572 3179.1504 3163.8428 3148.3337 905.1636 3149.3408 3166.159 3182.776 3199.3926 3215.6067 3231.8206 3248.0347 3264.148 3280.2612 3296.0723 -3288.1165 -3272.5066 -3256.9976 -3241.5894 -3226.3823 -3211.2761 -3196.3713 -3181.5674 -3166.9646 -747.65625 3299.8992 3299.8992 3299.8992 3299.8992 3299.8992 3299.8992 3299.8992 3299.8992 3299.8992 3288.0156 3271.6003 3256.192 3240.7837 3225.3752 3210.1685 3194.8608 3179.6538 3164.447 3148.938 1356.6376 3147.83 3164.5476 3181.2651 3197.9827 3214.096 3230.4106 3246.6248 3262.738 3278.7505 3294.5618 -3289.627 -3274.0173 -3258.4075 -3242.8984 -3227.7922 -3212.686 -3197.6807 -3182.8765 -3168.274 -1572.4548 3299.8992 3299.8992 3299.8992 3299.8992 3299.8992 3299.8992 3299.8992 3299.8992 3299.8992 3289.4255 3273.0103 3257.5012 3242.1936 3226.7852 3211.5784 3196.2708 3181.0637 3165.756 3150.348 1971.7621 3146.1182 
3162.2314 3178.6467 3194.8608 3210.7727 3226.886 3242.7979 3258.4075 3274.118 3289.8284 -3294.6624 -3279.2542 -3263.745 -3248.538 -3233.432 -3218.225 -3203.421 -3188.617 -3174.0142 1444.455 3299.8992 3299.8992 3299.8992 3299.8992 3299.8992 3299.8992 3299.8992 3299.8992 3292.6482 3277.24 3261.5295 3245.6177 3230.8135 3216.0095 3201.2053 3186.6028 3172.1008 3157.5989 3142.996 1201.3458 3143.399 3159.7136 3176.2297 3192.343 3208.3557 3224.3682 3240.28 3255.9905 3271.6003 3287.5122 3299.8992 -3281.5703 -3266.0613 -3250.8545 -3235.7483 -3220.7427 -3205.7373 -3191.034 -3176.4312 252.37427 3299.8992 3299.8992 3299.8992 3299.8992 3299.8992 3299.8992 3299.8992 3299.8992 3292.5476 3276.9377 3261.6301 3245.7183 3230.9143 3215.9087 3201.004 3186.502 3172 3157.5989 3142.7947 1532.5745 3142.0898 3158.8074 3175.2227 3191.336 3207.4492 3223.361 3239.3738 3255.1848 3270.8953 3286.6057 3299.8992 -3282.5774 -3267.0684 -3251.7607 -3236.6545 -3221.7498 -3206.6436 -3191.9402 -3177.3376 -998.7213 3299.8992 3299.8992 3299.8992 3299.8992 3299.8992 3299.8992 3299.8992 3299.8992 3294.2595 3278.7505 3263.2415 3247.3296 3232.6262 3217.6208 3203.018 3188.214 3173.6113 3159.2102 3144.6074 2467.5476 3140.277 3156.8938 3173.2085 3189.4226 3205.536 3221.5483 3237.3596 3253.1707 3268.881 3284.5916 3299.8992 -3284.3901 -3268.982 -3253.6743 -3238.4673 -3223.361 -3208.4563 -3193.6523 -3178.949 -2081.3323 3299.8992 3299.8992 3299.8992 3299.8992 3299.8992 3299.8992 3299.8992 3299.8992 3295.468 3279.8584 3264.45 3248.4375 3233.432 3218.527 3203.7231 3189.1204 3174.6184 3160.0159 3145.514 2819.522 3138.9678 3155.6853 3172.2014 3188.3147 3204.428 3220.5413 3236.4531 3252.2644 3267.9749 3283.484 3299.0935 -3285.2966 -3270.0896 -3254.782 -3239.5752 -3224.5696 -3209.4634 -3194.6594 -3180.0566 -2635.9314 3299.8992 3299.8992 3299.8992 3299.8992 3299.8992 3299.8992 3299.8992 3299.8992 3296.3745 3280.7646 3265.3564 3249.4446 3234.2375 3219.4336 3204.6294 3190.0269 3175.424 3160.922 3146.521 3123.1567 3136.853 

3154.6782 3170.1873 3185.8977 3201.9104 3216.6138 3231.8206 3246.8262 3261.731 3276.7363 3291.641 3299.8992 -3279.1533 -3264.7522 -3250.0488 -3236.0503 -3221.8506 -3207.7515 -3193.451 -3100.0945 3299.8992 3299.8992 3299.8992 3299.8992 3299.8992 3299.8992 3299.8992 3299.8992 3298.1873 3283.383 3268.6797 3254.1777 3239.3738 3224.9724 3210.7727 3196.4722 3182.1716 3167.6697 3153.1677 3018.4204 -1904.0863 3153.2683 3169.3816 3184.4878 3200.5005 3215.3044 3230.713 3245.9197 3260.9253 3275.7292 3290.5334 3299.8992 -3280.2612 -3266.0613 -3251.6602 -3237.2588 -3222.8577 -3208.6577 -3194.6594 -2758.3923 3299.8992 3299.8992 3299.8992 3299.8992 3299.8992 3299.8992 3299.8992 3299.8992 3293.2524 3278.4485 3263.9465 3249.3438 3234.6404 3220.1384 3205.838 3191.6382 3177.2368 3162.7349 3148.3337 2283.8562 3227.0874 3156.2896 3172 3187.509 3202.4138 3218.3257 3233.432 3248.3367 3263.5437 3278.4485 3293.1519 -3292.4468 -3277.6428 -3263.1409 -3248.8403 -3234.6404 -3220.4407 -3206.1401 -3192.2424 -2809.854 3299.8992 3299.8992 3299.8992 3299.8992 3299.8992 3299.8992 3299.8992 3299.8992 3296.878 3282.074 3267.7734 3252.8687 3238.0645 3223.6633 3209.5642 3195.0623 3180.7617 3166.0583 3151.7578 2528.9795 -2760.205 3157.196 3173.007 3188.516 3203.5217 3219.2322 3234.439 3249.4446 3264.5508 3279.4556 3294.058 -3291.1377 -3276.9377 -3262.4358 -3248.1353 -3233.5327 -3219.3328 -3205.2336 -3191.4368 -3114.093 3299.8992 3299.8992 3299.8992 3299.8992 3299.8992 3299.8992 3299.8992 3299.8992 3299.8992 3286.6057 3271.8018 3256.9976 3242.1936 3228.0945 3213.4917 3199.292 3184.8906 3170.3887 3155.7861 2909.253 -1886.6638 3156.8938 3172.705 3188.214 3203.2195 3218.93 3234.137 3249.0417 3264.047 3278.952 3293.6553 -3291.2383 -3276.8372 -3262.4358 -3248.1353 -3233.5327 -3219.5342 -3205.435 -3191.336 -3177.6396 2602.6978 3299.8992 3299.8992 3299.8992 3299.8992 3299.8992 3299.8992 3299.8992 3299.8992 3289.7278 3275.0244 3260.321 3245.2148 3230.713 3216.4124 3202.4138 3188.0127 3173.6113 3159.2102 3055.3801 -1112.6221 3155.8867 3171.3958 3187.1062 3203.119 3217.8223 3233.3313 3248.4375 3263.4429 3278.247 3292.749 -3292.4468 -3277.8442 -3263.04 -3249.0417 -3234.8418 -3220.5413 -3206.4421 -3192.2424 -3178.3447 1407.3944 
3299.8992 3299.8992 3299.8992 3299.8992 3299.8992 3299.8992 3299.8992 3299.8992 3299.8992 3288.4185 3273.2117 3258.1055 3243.0999 3228.3965 3213.693 3199.292 3184.9915 3170.7915 2616.1926 3169.7844 3186.2 3202.3132 3218.3257 3234.2375 3249.8474 3265.5579 3280.966 3296.3745 -3288.4185 -3273.3123 -3258.307 -3243.3013 -3228.6987 -3213.9954 -3199.3926 -3184.9915 -3170.59 -3156.491 -2967.5627 3299.8992 3299.8992 3299.8992 3299.8992 3299.8992 3299.8992 3299.8992 3299.8992 3299.8992 3299.8992 3290.1306 3274.9236 3259.8174 3244.812 3229.9072 3215.2039 3200.8025 3186.6028 3172.3022 3158.0017 3164.2456 3180.8623 3197.177 3213.1897 3229.1016 3244.812 3260.4216 3275.83 3291.2383 3299.8992 -3278.247 -3263.2415 -3248.3367 -3233.5327 -3218.8293 -3204.2266 -3189.8254 -3175.424 -3161.2244 -3147.2258 3299.8992 3299.8992 3299.8992 3299.8992 3299.8992 3299.8992 3299.8992 3299.8992 3299.8992 3299.8992 3295.6694 3280.3618 3265.155 3250.1494 3235.144 3220.4407 3205.9387 3191.5374 3177.4382 3163.44 3164.8499 3181.4666 3197.6807 3213.693 3229.605 3245.2148 3261.026 3276.6357 3291.9434 3299.8992 -3277.6428 -3262.6372 -3247.6318 -3232.9285 -3218.225 -3203.6223 -3189.2212 -3174.8198 -3160.62 -3146.521 3299.8992 3299.8992 3299.8992 3299.8992 3299.8992 3299.8992 3299.8992 3299.8992 3299.8992 3299.8992 3299.6978 3284.3901 3269.1833 3253.9763 3239.0715 3224.3682 3209.7656 3195.3643 3181.2651 3167.2668 3166.5618 3183.078 3199.292 3215.3044 3231.2163 3246.9268 3262.5366 3278.0457 3293.4539 -3291.2383 -3276.0315 -3261.026 -3246.121 -3231.3171 -3216.7144 -3202.1118 -3187.7104 -3173.3093 -3159.0088 -3145.0103 3299.8992 3299.8992 3299.8992 3299.8992 3299.8992 3299.8992 3299.8992 3299.8992 3299.8992 3299.8992 3299.8992 3287.21 3271.9023 3256.7961 3241.7908 3226.9866 3212.4846 3198.0835 3183.783 3169.7844 3166.5618 3183.2793 3199.4934 3215.6067 3231.6191 3247.229 3262.9395 3278.549 3293.8567 -3290.8354 -3275.7292 -3260.623 -3245.7183 -3230.9143 -3216.3115 -3201.709 -3187.3076 -3173.007 -3158.7065 -3144.6074 3299.8992 3299.8992 3299.8992 3299.8992 3299.8992 3299.8992 3299.8992 3299.8992 3299.8992 3299.8992 3299.8992 3289.0227 3273.816 3258.5083 3243.6035 3228.9001 3214.3982 3199.8962 3185.6963 3171.5972 3166.2598 
2899.7864 2917.511 2935.739 2952.8594 2970.282 2987.6038 3004.724 3021.5422 3038.3606 3054.8767 3071.292 3087.6067 3103.8208 3119.8333 3135.745 -2446.701 181.27441 2666.2444 3128.4941 3114.1936 3099.7925 3085.089 3070.1843 3055.8838 3041.5833 3027.182 3013.1836 2999.185 2985.2874 2971.3896 2957.5928 2943.8965 2930.4016 2917.2087 2903.6133 2890.3198 2872.3938 1559.2621 -2120.9106 2885.5864 2904.1167 2922.4456 2939.6667 2957.6934 2974.9146 2992.035 3008.853 3025.6714 3042.288 3059.0056 3075.2197 3091.5344 3107.6477 3123.6602 -3154.1748 -1470.9412 1201.1444 3133.731 3119.5312 3105.3313 3090.9302 3076.7302 3061.4226 3047.223 3033.023 3018.4204 3004.4219 2990.4236 2976.7273 2962.6282 2948.7305 2935.437 2921.7407 2908.7493 2895.2544 2881.659 2709.6497 852.2919 -2471.173 2883.3708 2901.8005 2920.1294 2937.9546 2955.075 2972.4976 2989.7185 3006.8389 3023.7578 3040.3748 3056.8909 3073.3062 3089.6208 3105.7341 3121.7468 -2370.0623 -474.43542 1331.7627 3123.5596 3109.4604 3095.2605 3080.8594 3066.156 3051.7546 3036.8499 3022.6501 3008.3496 2994.6533 2980.6548 2966.858 2953.2622 2939.6667 2926.071 2912.8784 2899.7864 2886.493 2873.0986 2850.1372 1309.8083 -1816.0675 2869.4731 2888.0034 2905.9294 2924.1577 2941.278 2958.7004 2976.0222 2993.344 3010.263 3026.9805 3043.698 3060.1135 3076.5288 3092.743 3108.8562 -2554.0557 -758.5327 1741.4429 3110.669 3096.5698 3082.2693 3067.9688 3053.2654 3038.2598 3024.1606 3010.0615 2995.3582 2981.5613 2967.6636 2953.9673 2940.271 2926.6753 2913.2812 2900.2898 2887.1978 2874.0051 2860.5103 2833.8225 1357.2418 -1533.5815 2855.8777 2874.5085 2893.1396 2910.6628 2928.8909 2946.2126 2963.4338 2980.252 2997.2717 3014.1907 3030.8074 3047.4243 3237.2588 3079.3486 3095.7642 -2220.813 -439.38904 1969.6472 3093.5486 3079.3486 3065.149 3050.647 3036.5479 3021.7437 3007.0403 2993.1426 2979.0435 2965.448 2951.651 2938.0554 2924.5605 2911.1663 2897.7722 2884.6802 2871.991 2858.9995 2845.9075 2830.4993 1940.2405 -795.0897 2834.2253 2853.2593 2871.3867 2889.917 2907.4402 2925.064 2942.5872 2960.0098 2977.0293 2993.9482 3010.8672 3027.4841 3044.1008 3060.5164 3076.7302 -2743.689 -1016.74805 1395.6116 3082.3699 3068.3716 3054.373 
-2666.9495 -2573.4924 -2644.4915 -2633.4136 -2620.6238 -2090.396 -810.1959 1496.6217 3299.8992 3299.8992 3299.8992 3299.8992 3299.8992 3299.8992 3299.8992 3299.8992 3299.8992 3299.8992 3299.8992 3299.8992 2936.9475 1629.2542 1797.0337 501.6266 -811.1023 -2028.9642 -2826.5715 -2813.5803 -2800.891 -2788.4033 -2776.117 -2763.8306 -2673.6968 -2001.8738 -2050.6165 -2270.462 -2487.387 -2699.0752 -2690.8171 -2679.2358 -2667.9565 -2656.6772 -2645.1965 -2634.2192 -2623.0408 -2302.185 -1052.0966 1299.3347 3299.8992 3299.8992 3299.8992 3299.8992 3299.8992 3299.8992 3299.8992 3299.8992 3299.8992 3299.8992 3299.8992 3299.8992 3281.1675 2030.072 2129.773 803.14636 -482.7942 -1735.4004 -2832.7148 -2819.8242 -2807.0342 -2794.6472 -2782.1594 -2769.7722 -2687.796 -2113.3574 -2085.1592 -2256.0608 -2449.3193 -2598.468 -2696.5576 -2685.1775 -2673.4954 -2662.4175 -2650.9368 -2639.7583 -2594.3389 -1957.3608 -694.68384 1509.7137 3299.8992 3299.8992 3299.8992 3299.8992 3299.8992 3299.8992 3299.8992 3299.8992 3299.8992 3299.8992 3299.8992 3299.8992 3013.2842 1694.1101 1861.084 647.6532 -617.6422 -1885.1532 -2836.2395 -2823.4497 -2810.7605 -2798.1719 -2785.684 -2773.4985 -2485.5742 -1753.0243 -1797.1344 -2002.7802 -2240.048 -2412.2588 -2607.9346 -2695.5505 -2683.969 -2653.656 -2661.209 -2650.0305 -2638.7512 -2311.2488 -1231.1554 947.2595 3296.6765 3299.8992 3299.8992 3299.8992 3299.8992 3299.8992 3299.8992 3299.8992 3299.8992 3299.8992 3299.8992 3299.8992 3299.8992 2105.7036 2229.5745 877.4689 -555.9082 -1881.1249 -2845.0012 -2832.2112 -2819.4214 -2806.8328 -2794.4458 -2781.958 -2719.3176 -2030.072 -1983.7463 -2153.54 -2409.2375 -2638.9526 -2709.9517 -2698.3704 -2686.7888 -2675.308 -2663.7268 -2652.4475 -2613.6748 -2074.3835 -632.04346 1385.0372 3299.8992 3299.8992 3299.8992 3299.8992 3299.8992 3299.8992 3299.8992 3299.8992 3299.8992 3299.8992 3299.8992 3299.8992 2883.5723 1620.1904 1849.0997 666.1835 -598.407 -1855.0415 -2846.9146 -2834.024 -2821.3347 -2808.6455 -2796.2585 -2783.8713 -2688.4001 -1936.1115 -1468.222 -1574.0662 -1912.5458 -2118.7957 -2319.0032 -2711.9658 -2700.2837 -2688.6016 -2677.0203 -2665.6401 -2654.4617 -2259.8877 -1167.7094 685.5194 2684.7747 3299.8992 3299.8992 3299.8992 3299.8992 3299.8992 3299.8992 3299.8992 3299.8992 3299.8992 3299.8992 3299.8992 
3172.5037 3188.214 3203.7231 3218.8293 3234.439 3249.5452 3264.047 3279.2542 3294.2595 -3291.0369 -3276.535 -3261.9324 -3247.531 -3233.2305 -3219.1313 -3204.9316 -3190.933 -3177.0354 -2812.0696 3299.8992 3299.8992 3299.8992 3299.8992 3299.8992 3299.8992 3299.8992 3299.8992 3299.8992 3292.2454 3277.542 3263.1409 3248.8403 3234.439 3220.1384 3205.9387 3192.041 3177.942 3163.8428 2839.6636 3155.8867 3171.7986 3187.4084 3202.716 3218.1243 3232.8276 3248.0347 3263.4429 3278.247 3292.749 -3292.5476 -3277.9448 -3263.4429 -3248.941 -3234.7412 -3220.4407 -3206.3416 -3192.343 -3178.244 -2908.7493 3299.8992 3299.8992 3299.8992 3299.8992 3299.8992 3299.8992 3299.8992 3299.8992 3299.8992 3291.8425 3277.24 3262.5366 3248.236 3233.8347 3219.7356 3205.536 3191.4368 3177.3376 3163.2385 2907.4402 3154.9805 3170.8923 3186.4014 3201.709 3216.8152 3232.3242 3247.4304 3262.033 3277.24 3292.1448 3299.8992 -3278.7505 -3264.047 -3249.646 -3235.2446 -3221.1455 -3206.9458 -3192.9473 -3179.1504 -3165.2527 3299.8992 3299.8992 3299.8992 3299.8992 3299.8992 3299.8992 3299.8992 3299.8992 3299.8992 3293.3533 3278.7505 3264.3494 3249.7466 3235.446 3220.944 3206.9458 3192.9473 3179.0496 3164.749 3143.6003 3152.664 3168.576 3184.1858 3199.8962 3215.103 3230.2092 3245.4163 3260.7239 3275.4272 3290.0298 3299.8992 -3280.4626 -3266.0613 -3251.6602 -3237.3596 -3222.8577 -3208.96 -3194.8608 -3180.9631 -3167.2668 3299.8992 3299.8992 3299.8992 3299.8992 3299.8992 3299.8992 3299.8992 3299.8992 3299.8992 3294.5618 3279.959 3265.3564 3250.653 3236.554 3222.2534 3208.1543 3194.1558 3180.0566 3165.857 3150.8513 3151.7578 3167.7703 3183.4807 3198.6877 3213.794 3229.4036 3244.5098 3259.2131 3274.4202 3289.325 3299.8992 -3281.369 -3267.0684 -3252.5664 -3238.0645 -3223.764 -3209.5642 -3195.5657 -3181.8694 -3167.9717 3299.8992 3299.8992 3299.8992 3299.8992 3299.8992 3299.8992 3299.8992 3299.8992 3299.8992 3296.3745 3281.7717 3267.4712 3252.7678 3238.4673 3224.0662 3209.967 3195.9685 3182.1716 3167.6697 3152.8655 3234.9426 3166.864 3182.5745 3198.285 3213.8945 3228.598 3243.805 3259.1125 3274.0173 3288.5193 3299.8992 -3281.8726 -3267.3706 -3253.07 -3238.7695 -3224.469 -3210.1685 -3196.2708 -3182.373 -3168.6768 3299.8992 
3145.6145 3162.332 3179.1504 3195.465 3211.8804 3228.0945 3244.2078 3260.2202 3276.233 3292.1448 -3292.1448 -3276.6357 -3261.1267 -3245.819 -3230.612 -3215.5059 -3200.601 -3185.6963 -2179.724 3299.8992 3299.8992 3299.8992 3299.8992 3299.8992 3299.8992 3299.8992 3299.8992 3292.9504 3276.7363 3261.2273 3245.7183 3230.2092 3214.9016 3199.7954 3184.5886 3169.3816 3154.2754 3138.8672 2589.4043 3142.5933 3145.0103 3161.7278 3178.5461 3194.9614 3211.1755 3227.4902 3243.704 3259.616 3275.6287 3291.4397 -3292.749 -3277.1392 -3261.6301 -3246.4233 -3231.1157 -3216.11 -3201.1047 -3186.4014 -2276.001 3299.8992 3299.8992 3299.8992 3299.8992 3299.8992 3299.8992 3299.8992 3299.8992 3292.9504 3276.4343 3261.2273 3245.5168 3230.1086 3214.801 3199.6948 3184.5886 3169.3816 3154.074 3138.7664 2822.1404 -3046.9207 3142.694 3159.613 3175.827 3192.5444 3209.0605 3225.3752 3241.5894 3257.7026 3273.6145 3289.325 3299.8992 -3279.1533 -3263.6443 -3248.3367 -3233.029 -3218.0237 -3203.018 -3188.3147 -2738.855 3299.8992 3299.8992 3299.8992 3299.8992 3299.8992 3299.8992 3299.8992 3299.8992 3294.2595 3277.9448 3262.4358 3246.9268 3231.4177 3216.0095 3200.9033 3185.8977 3170.691 3155.484 3140.277 3047.8271 -2254.7515 3140.4785 3157.2966 3173.6113 3190.3289 3206.845 3223.059 3239.3738 3255.487 3271.4995 3287.3108 3299.8992 -3281.2683 -3265.7593 -3250.4517 -3235.144 -3220.0378 -3205.0322 -3190.3289 -3035.3394 3299.8992 3299.8992 3299.8992 3299.8992 3299.8992 3299.8992 3299.8992 3299.8992 3295.166 3278.7505 3263.3423 3247.7324 3232.1228 3217.0166 3201.9104 3186.7034 3171.5972 3156.3904 3141.1833 3118.7256 -1689.3768 3138.565 3155.3833 3172.1008 3188.617 3204.8308 3221.1455 3237.3596 3253.473 3269.4854 3285.3972 3299.8992 -3283.1816 -3267.7734 -3252.365 -3237.0574 -3221.9512 -3206.9458 -3192.1416 -3177.2368 3158.0017 3299.8992 3299.8992 3299.8992 3299.8992 3299.8992 3299.8992 3299.8992 3295.8708 3279.5562 3264.2485 3248.7395 3233.13 3217.8223 3202.6152 3187.4084 3172.4028 3157.2966 3141.989 3122.9553 -1358.9539 3137.7593 3154.5776 3171.2952 3187.9119 3204.126 3220.4407 3236.6545 3252.7678 3268.6797 3284.6924 3299.8992 -3283.8867 -3268.3777 -3252.9692 -3237.6616 -3222.5554 -3207.55 -3192.7458 -3178.0425 2271.3684 
3162.9363 3179.6538 3196.3713 3212.5854 3228.9001 3245.114 3261.2273 3277.3406 3293.1519 -3291.1377 -3275.4272 -3259.9182 -3244.5098 -3229.2021 -3214.1968 -3199.1912 -3184.2864 -3169.6838 -2168.6462 3299.8992 3299.8992 3299.8992 3299.8992 3299.8992 3299.8992 3299.8992 3299.8992 3299.8992 3290.4326 3274.118 3258.5083 3243.0999 3227.7922 3212.384 3197.2778 3182.0708 3166.864 3151.355 2416.4885 3144.406 3161.2244 3177.942 3194.1558 3210.7727 3227.0874 3243.402 3259.616 3275.5278 3291.5405 3299.8992 -3276.9377 -3261.5295 -3246.121 -3230.8135 -3215.7073 -3200.8025 -3185.8977 -3171.0938 -2467.6482 3299.8992 3299.8992 3299.8992 3299.8992 3299.8992 3299.8992 3299.8992 3299.8992 3299.8992 3290.332 3273.715 3258.206 3242.9993 3227.5908 3212.1826 3197.0764 3181.7688 3166.6626 3151.0527 2651.1382 3142.2913 3159.3108 3176.0283 3192.2424 3208.8591 3225.1738 3241.4885 3257.6018 3273.6145 3289.627 3299.8992 -3279.0527 -3263.5437 -3248.0347 -3232.727 -3217.6208 -3202.4138 -3187.6099 -3173.108 -2786.3892 3299.8992 3299.8992 3299.8992 3299.8992 3299.8992 3299.8992 3299.8992 3299.8992 3299.8992 3290.634 3273.9165 3258.5083 3243.0999 3227.6917 3212.4846 3197.177 3182.0708 3166.9646 3151.4556 2924.762 3139.9749 3157.196 3173.7122 3190.0269 3206.6436 3223.059 3239.1724 3255.2856 3271.399 3287.4114 3299.8992 -3281.1675 -3265.5579 -3250.1494 -3234.7412 -3219.635 -3204.5288 -3189.7246 -3174.9207 -3156.2896 3299.8992 3299.8992 3299.8992 3299.8992 3299.8992 3299.8992 3299.8992 3299.8992 3299.8992 3292.044 3275.4272 3260.0188 3244.5098 3229.2021 3213.8945 3198.6877 3183.5815 3168.274 3152.8655 3097.2747 3228.296 3155.5847 3172.4028 3188.516 3205.3345 3221.5483 3237.863 3253.9763 3270.0896 3286.1023 3299.8992 -3282.4768 -3266.867 -3251.4587 -3235.9497 -3220.8435 -3205.9387 -3190.8325 -3176.3306 -3161.7278 3299.8992 3299.8992 3299.8992 3299.8992 3299.8992 3299.8992 3299.8992 3299.8992 3299.8992 3293.051 3276.535 3261.2273 3245.7183 3230.31 3215.0024 3199.6948 3184.5886 3169.3816 3153.9734 3134.0332 -2890.924 3154.6782 3171.3958 3187.6099 3204.3274 3220.7427 3236.7554 3253.07 3269.1833 3285.1958 3299.8992 -3283.383 -3267.7734 -3252.2644 -3236.9568 -3221.8506 -3206.7444 -3191.8396 -3177.0354 -3162.4329 3299.8992 
3153.4697 3169.8853 3185.9985 3202.2124 3218.225 3234.137 3249.948 3265.6584 3281.2683 3296.9788 -3287.5122 -3272.1038 -3256.897 -3241.7908 -3226.6846 -3211.679 -3196.7742 -3182.0708 -3092.1387 3299.8992 3299.8992 3299.8992 3299.8992 3299.8992 3299.8992 3299.8992 3299.8992 3296.7773 3281.1675 3265.7593 3249.7466 3234.8418 3219.8364 3205.0322 3190.4297 3175.827 3161.325 3146.9238 3131.2134 3134.5366 3151.355 3167.7703 3183.9844 3200.0977 3216.11 3232.022 3247.9338 3263.6443 3279.2542 3294.9646 -3289.5264 -3274.2188 -3258.7097 -3243.6035 -3228.4973 -3213.5925 -3198.6877 -3183.9844 -3144.104 3299.8992 3299.8992 3299.8992 3299.8992 3299.8992 3299.8992 3299.8992 3299.8992 3295.2666 3279.657 3264.3494 3248.3367 3233.3313 3218.4265 3203.6223 3188.919 3174.417 3160.0159 3145.514 3129.904 3132.8247 3149.6428 3166.159 3182.373 3198.587 3214.5996 3230.5115 3246.3225 3262.033 3277.7434 3293.3533 -3291.0369 -3275.7292 -3260.4216 -3245.2148 -3230.1086 -3215.103 -3200.0977 -3185.3943 -3170.8923 3299.8992 3299.8992 3299.8992 3299.8992 3299.8992 3299.8992 3299.8992 3299.8992 3297.0793 3281.2683 3265.8599 3250.0488 3234.9426 3219.937 3205.2336 3190.5303 3175.9277 3161.4258 3146.9238 3131.7168 3131.5154 3148.3337 3164.749 3181.0637 3197.177 3213.1897 3229.1016 3245.0134 3260.7239 3276.4343 3292.044 -3292.3462 -3277.1392 -3261.6301 -3246.524 -3231.3171 -3216.3115 -3201.4067 -3186.7034 -3172.1008 3299.8992 3299.8992 3299.8992 3299.8992 3299.8992 3299.8992 3299.8992 3299.8992 3297.6836 3282.074 3266.565 3250.653 3235.8489 3220.7427 3205.9387 3191.2354 3176.6326 3162.2314 3147.83 3132.7239 3129.904 3146.823 3163.44 3179.5532 3195.6665 3211.7798 3227.7922 3243.5027 3259.4146 3275.125 3290.634 -3293.9575 -3278.3477 -3262.9395 -3247.7324 -3232.5256 -3217.6208 -3202.6152 -3187.9119 -3173.3093 3299.8992 3299.8992 3299.8992 3299.8992 3299.8992 3299.8992 3299.8992 3299.8992 3299.8992 3284.5916 3268.982 3252.9692 3238.0645 3223.1597 3208.3557 3193.5515 3178.8481 3164.5476 3149.945 3135.0403 -2825.5645 3146.3196 3162.8357 3179.0496 3195.1628 3211.2761 3227.188 3242.9993 3258.8103 3274.4202 3290.0298 -3294.3604 -3278.8513 -3263.4429 -3248.1353 -3233.029 -3218.0237 -3203.119 -3188.3147 -3173.7122 3299.8992 

3299.8992 3299.8992 3299.8992 3299.8992 3299.8992 3299.8992 3299.8992 3299.8992 3293.1519 3278.1462 3263.3423 3248.7395 3234.137 3219.8364 3205.3345 3191.336 3176.532 3162.03 3140.3777 -409.17664 3154.4768 3170.3887 3186.2 3202.1118 3216.9158 3232.2234 3247.531 3262.5366 3277.4414 3292.2454 -3293.051 -3278.4485 -3264.2485 -3249.5452 -3235.7483 -3221.4478 -3207.3486 -3193.35 -3179.5532 726.004 3299.8992 3299.8992 3299.8992 3299.8992 3299.8992 3299.8992 3299.8992 3299.8992 3294.461 3279.7576 3265.2556 3250.2502 3235.7483 3221.6492 3206.9458 3192.6453 3178.4453 3164.0442 3144.5068 -105.441284 3154.5776 3170.0867 3185.8977 3201.9104 3216.6138 3231.9214 3247.3296 3262.3352 3277.24 3291.742 3299.8992 -3279.0527 -3264.5508 -3249.8474 -3235.8489 -3221.6492 -3207.55 -3193.2495 -3179.7546 -32.83081 3299.8992 3299.8992 3299.8992 3299.8992 3299.8992 3299.8992 3299.8992 3299.8992 3297.6836 3282.5774 3267.7734 3252.9692 3238.3667 3224.3682 3209.6648 3195.2637 3180.8623 3166.4612 3149.8442 599.8169 3281.4697 3167.6697 3183.9844 3198.9897 3214.9016 3229.9072 3245.2148 3260.321 3275.2258 3290.0298 3299.8992 -3280.8655 -3266.464 -3251.7607 -3237.4602 -3223.2605 -3209.3628 -3195.0623 -3181.1646 -993.4845 3299.8992 3299.8992 3299.8992 3299.8992 3299.8992 3299.8992 3299.8992 3299.8992 3299.8992 3285.5986 3270.3918 3255.5876 3241.0857 3227.0874 3212.686 3198.184 3183.4807 3168.9788 3154.3762 1382.1167 -2139.8438 3162.8357 3178.7476 3194.76 3209.5642 3225.2747 3240.1794 3255.0842 3270.0896 3285.1958 3299.8992 -3285.2966 -3270.8953 -3256.5947 -3242.4956 -3228.0945 -3213.9954 -3199.594 -3185.9985 -1669.2352 3299.8992 3299.8992 3299.8992 3299.8992 3299.8992 3299.8992 3299.8992 3299.8992 3299.8992 3286.0015 3271.0967 3256.2927 3241.69 3227.2888 3212.7869 3198.587 3184.1858 3169.7844 3155.081 1787.265 -1712.7411 3159.8145 3175.525 3190.631 3206.4421 3221.6492 3237.0574 3251.8616 3266.867 3282.074 3296.7773 -3288.6199 -3274.3193 -3259.8174 -3245.2148 -3230.9143 -3216.8152 -3202.9175 -3188.919 -2102.9846 
3182.9773 3199.292 3215.4053 3231.4177 3247.1282 3262.8386 3278.3477 3293.6553 -3291.0369 -3275.83 -3260.8245 -3245.9197 -3231.1157 -3216.4124 -3201.9104 -3187.4084 -3173.007 -3158.8074 -3144.7083 3299.8992 3299.8992 3299.8992 3299.8992 3299.8992 3299.8992 3299.8992 3299.8992 3299.8992 3299.8992 3299.8992 3290.7349 3275.4272 3260.2202 3245.2148 3230.4106 3215.808 3201.4067 3187.207 3173.108 3165.1519 3182.0708 3198.3855 3214.3982 3230.4106 3246.121 3261.8315 3277.3406 3292.749 3299.8992 -3276.8372 -3261.731 -3246.8262 -3232.1228 -3217.4194 -3202.8167 -3188.3147 -3174.0142 -3159.7136 -3145.7153 1616.8671 3299.8992 3299.8992 3299.8992 3299.8992 3299.8992 3299.8992 3299.8992 3299.8992 3299.8992 3299.8992 3292.4468 3277.1392 3262.033 3247.0276 3232.1228 3217.4194 3203.119 3188.919 3174.7192 3164.447 3181.0637 3197.4792 3213.4917 3229.5044 3245.3154 3260.9253 3276.6357 3291.9434 3299.8992 -3277.6428 -3262.6372 -3247.6318 -3232.8276 -3218.1243 -3203.5217 -3189.0198 -3174.6184 -3160.62 -3146.4202 -901.5381 3299.8992 3299.8992 3299.8992 3299.8992 3299.8992 3299.8992 3299.8992 3299.8992 3299.8992 3299.8992 3295.0652 3279.7576 3264.6514 3249.5452 3234.6404 3219.937 3205.536 3191.2354 3177.2368 -1131.0516 3181.0637 3197.4792 3213.4917 3229.4036 3245.3154 3261.026 3276.535 3292.044 3299.8992 -3277.542 -3262.4358 -3247.4304 -3232.727 -3218.0237 -3203.5217 -3188.919 -3174.6184 -3160.3179 -3146.3196 -2131.5857 3299.8992 3299.8992 3299.8992 3299.8992 3299.8992 3299.8992 3299.8992 3299.8992 3299.8992 3299.8992 3297.0793 3281.9731 3266.7664 3251.5593 3236.856 3222.052 3207.55 3193.35 3179.1504 1090.4663 3180.8623 3197.2778 3213.2903 3229.303 3245.114 3260.9253 3276.4343 3291.8425 3299.8992 -3277.6428 -3262.6372 -3247.6318 -3232.8276 -3218.1243 -3203.5217 -3189.0198 -3174.7192 -3160.5193 -3146.521 -3020.636 3299.8992 3299.8992 3299.8992 3299.8992 3299.8992 3299.8992 3299.8992 3299.8992 3299.8992 3299.8992 3299.7986 3284.491 3269.1833 3254.0771 3239.1724 3224.469 3209.967 3195.767 3181.5674 2612.8691 
3040.1733 3025.47 3011.3708 2996.3652 2982.4675 2968.3684 2954.9744 2941.1772 2927.6824 2914.087 2900.6926 2887.3992 2874.408 2861.8193 2848.7273 2835.6353 2763.6292 1187.7502 -1465.6036 2831.5063 2850.54 2868.6675 2887.1978 2904.721 2922.2441 2939.7673 2957.19 2974.3103 2991.0278 3008.0474 3079.55 -2484.3657 3267.3706 3066.7603 -2138.9373 -340.09094 1882.4341 3064.3433 3050.3447 3036.447 3022.1465 3007.6445 2992.6392 2977.2307 2961.8225 2950.4424 2936.9475 2921.4385 2910.26 2896.7651 2883.4717 2870.6816 2857.5896 2845.1018 2832.312 2819.4214 2806.128 2062.5 373.6267 2798.9775 2818.6157 2838.0522 2856.079 2874.71 2892.5354 2910.0586 2927.2795 2944.5007 2961.621 2978.6406 2995.459 -2835.2324 3025.2686 3041.7847 -2873.0986 -1083.0139 1155.2216 3050.2441 3036.6484 3022.6501 3008.6516 2994.6533 2979.0435 2962.8296 2950.7446 2937.7532 2924.5605 2910.8643 2897.6714 2884.4788 2871.1853 2857.9924 2845.3032 2832.9163 2820.227 2807.437 2794.2444 2220.7122 -69.1864 2789.511 2809.552 2828.2837 2846.814 2865.5457 2883.3708 2900.9949 2918.2158 2935.437 2952.5574 2969.577 3014.5935 -2357.675 -2702.8015 -3212.686 -1158.7463 533.3496 2415.5823 3010.0615 2996.2646 2982.669 2968.6707 2954.9744 2937.2498 2918.0144 2800.4883 2898.3765 2885.5864 2853.5613 2656.5764 2845.2026 2831.9092 2821.4355 2810.0554 2798.0713 2785.9863 2773.4985 2760.1042 2233.6028 89.52942 3030.5054 2775.2104 2794.8486 2814.386 2832.7148 2850.8423 2868.9697 2886.6943 2904.1167 2921.5393 2938.4583 -3280.664 -1926.3428 -2241.0552 -2877.7312 -1817.5781 -269.49463 894.4885 2594.943 2975.0151 2961.5203 2947.824 2933.7249 2505.5144 2220.6116 1985.257 2686.5874 2871.7896 2567.752 2800.9917 2836.6423 2824.4568 2811.969 2799.7832 2787.799 2775.714 2763.2263 2750.7385 2461.0015 598.407 -2865.042 2758.9966 2780.0444 2799.179 2818.6157 2836.9446 2854.8706 2872.4944 2890.0176 2907.3394 2924.4597 3172.6042 -2015.8722 -2384.8662 -3103.6194 -2227.6611 -684.3109 1234.2773 2848.8281 2965.448 2951.7517 
3093.045 1809.6222 2316.7876 1016.84875 -354.39148 -1615.2557 -2823.3489 -2845.1018 -2832.312 -2819.7234 -2807.2356 -2794.7478 -2619.5159 -1828.5553 -1718.7836 -2019.397 -2553.3508 -2734.021 -2724.353 -2712.671 -2701.0894 -2689.7095 -2678.0273 -2666.748 -2655.1665 -2269.2534 -1194.2963 445.53223 2771.4844 3299.8992 3299.8992 3299.8992 3299.8992 3299.8992 3299.8992 3299.8992 3299.8992 3299.8992 3299.8992 3299.8992 3076.126 1808.4137 1984.552 789.8529 -848.46497 -2105.8044 -2850.6409 -2837.7502 -2824.9602 -2812.3718 -2799.9846 -2787.5977 -2614.682 -1755.9448 -1515.6555 -1700.4547 -2016.4764 -2240.5518 -2167.6392 -2660.8062 -2704.312 -2685.6812 -2681.1492 -2669.7693 -2609.6465 -2147.0947 -1153.5095 539.7949 2819.1191 3299.8992 3299.8992 3299.8992 3299.8992 3299.8992 3299.8992 3299.8992 3299.8992 3299.8992 3299.8992 3299.8992 3098.7854 1873.9746 2142.4622 828.7262 -536.0687 -1753.0243 -2666.2444 -2847.9216 -2835.2324 -2822.4426 -2809.854 -2797.5676 -2489.6025 -1582.0221 -1379.3976 -1589.0717 -1888.9801 -2165.927 -2279.5256 -2571.7803 -2716.6992 -2705.017 -2693.335 -2681.8542 -2670.474 -2336.325 -1313.736 277.7527 2684.8755 3299.8992 3299.8992 3299.8992 3299.8992 3299.8992 3299.8992 3299.8992 3299.8992 3299.8992 3299.8992 3299.8992 3215.808 1961.6913 2202.0813 855.71594 -456.71082 -1673.5657 -2869.6746 -2857.1868 -2844.2961 -2831.7078 -2819.1191 -2806.6313 -2773.9014 -1989.7888 -1667.4225 -1864.8102 -2047.2931 -2120.407 -2328.067 -2731.2012 -2719.3176 -2703.2043 -2695.8525 -2684.3718 -2541.4673 -1937.32 -1000.43335 361.13892 2684.3718 3299.8992 3299.8992 3299.8992 3299.8992 3299.8992 3299.8992 3299.8992 3299.8992 3299.8992 3299.8992 3299.8992 3089.7217 1875.8881 2189.1907 902.24304 -571.41724 -1743.457 -2874.5085 -2861.5173 -2848.6267 -2835.9375 -2823.3489 -2810.7605 -2497.4578 -1571.0449 -1167.6086 -1341.9342 -1603.2715 -1786.6608 -1999.3561 -2405.9143 -2706.427 -2600.885 -2714.2822 -2702.6 -2691.0186 -2491.919 -1585.6476 -279.86755 2046.8903 3299.8992 3299.8992 3299.8992 3299.8992 3299.8992 3299.8992 3299.8992 3299.8992 3299.8992 3299.8992 3299.8992 
3299.8992 3299.8992 3299.8992 3299.8992 3299.8992 3299.8992 3299.8992 3299.8992 3298.892 3284.2896 3269.6868 3255.1848 3240.7837 3226.5837 3212.2832 3198.184 3184.2864 3170.0867 3155.182 -2607.3303 3166.9646 3182.9773 3198.184 3213.391 3229.0007 3244.107 3258.7097 3273.9165 3288.8213 3299.8992 -3281.7717 -3267.0684 -3252.7678 -3238.3667 -3224.1667 -3209.967 -3196.17 -3182.0708 -3168.274 2936.6455 3299.8992 3299.8992 3299.8992 3299.8992 3299.8992 3299.8992 3299.8992 3299.8992 3299.8992 3287.0085 3272.2046 3257.5012 3243.2007 3229.0007 3214.5996 3200.601 3186.502 3172.4028 3157.8003 -1082.1075 3165.2527 3180.8623 3196.5728 3212.0818 3226.9866 3241.9922 3257.5012 3272.406 3286.908 3299.8992 -3283.6853 -3269.1833 -3254.5806 -3240.0786 -3225.9795 -3211.8804 -3197.7812 -3183.8835 -3169.8853 1640.332 3299.8992 3299.8992 3299.8992 3299.8992 3299.8992 3299.8992 3299.8992 3299.8992 3299.8992 3288.217 3273.6145 3259.0117 3244.6106 3230.31 3216.11 3202.011 3188.0127 3173.9136 3159.2102 -529.1199 3164.8499 3180.7617 3196.0693 3211.1755 3226.7852 3241.8914 3256.6956 3271.8018 3286.8071 3299.8992 -3283.786 -3269.3848 -3254.782 -3240.3809 -3226.0803 -3212.0818 -3198.0835 -3183.9844 -3170.0867 709.89075 3299.8992 3299.8992 3299.8992 3299.8992 3299.8992 3299.8992 3299.8992 3299.8992 3299.8992 3289.627 3274.7222 3260.1196 3245.7183 3231.5186 3217.1172 3203.018 3189.0198 3175.0212 3160.4187 480.17578 3162.5334 3178.244 3194.1558 3209.262 3224.8718 3240.1794 3254.782 3269.989 3284.9944 3299.6978 -3285.8 -3270.996 -3256.5947 -3242.0928 -3227.893 -3213.794 -3199.6948 -3185.6963 -3171.7986 -741.41235 3299.8992 3299.8992 3299.8992 3299.8992 3299.8992 3299.8992 3299.8992 3299.8992 3299.8992 3291.2383 3276.7363 3262.1338 3247.7324 3233.5327 3218.93 3205.0322 3190.933 3176.834 3162.2314 1501.4557 3160.7207 3176.532 3191.9402 3207.3486 3222.354 3237.4602 3252.9692 3267.874 3282.4768 3297.1802 -3288.217 -3273.2117 -3259.0117 -3244.6106 -3230.31 -3216.11 -3202.1118 -3187.9119 -3174.3164 -1360.2631 
3299.8992 3299.8992 3299.8992 3299.8992 3299.8992 3299.8992 3299.8992 3298.1873 3282.074 3266.565 3251.056 3235.5469 3220.0378 3204.9316 3189.8254 3174.7192 3159.5122 3144.2046 3127.3865 -807.6782 3137.2559 3154.1748 3170.993 3187.509 3203.7231 3220.1384 3236.1511 3252.365 3268.4783 3284.3901 3299.8992 -3284.2896 -3268.579 -3253.1707 -3238.0645 -3222.8577 -3207.953 -3193.048 -3178.3447 1416.7603 3299.8992 3299.8992 3299.8992 3299.8992 3299.8992 3299.8992 3299.8992 3299.8992 3284.9944 3269.4854 3253.8757 3238.3667 3223.059 3207.852 3192.6453 3177.4382 3162.4329 3147.0244 3131.6162 -38.772583 3136.148 3152.9663 3169.4824 3186.3005 3202.716 3219.0308 3235.3455 3251.4587 3267.4712 3283.1816 3299.1943 -3285.1958 -3269.5862 -3254.2786 -3238.971 -3223.8647 -3208.7585 -3193.9543 -3179.1504 643.42346 3299.8992 3299.8992 3299.8992 3299.8992 3299.8992 3299.8992 3299.8992 3299.8992 3287.1094 3271.701 3255.89 3240.5823 3225.0732 3209.7656 3194.76 3179.6538 3164.3462 3149.0386 3133.731 559.8358 3135.1409 3152.0598 3168.3745 3185.2935 3201.8096 3218.0237 3234.439 3250.5522 3266.3635 3282.2754 3298.1873 -3286.1023 -3270.5933 -3255.0842 -3239.8772 -3224.6704 -3209.6648 -3194.76 -3180.1575 137.26501 3299.8992 3299.8992 3299.8992 3299.8992 3299.8992 3299.8992 3299.8992 3299.8992 3288.3179 3272.708 3257.0984 3241.5894 3226.2817 3211.0747 3195.868 3180.7617 3165.454 3150.247 3135.0403 1165.4938 3132.4219 3149.4414 3165.756 3182.5745 3199.0906 3215.6067 3231.72 3247.9338 3264.047 3279.959 3295.7703 -3288.5193 -3273.0103 -3257.5012 -3242.2942 -3227.0874 -3212.0818 -3197.0764 -3182.4736 -880.79224 3299.8992 3299.8992 3299.8992 3299.8992 3299.8992 3299.8992 3299.8992 3299.8992 3290.332 3274.9236 3259.4146 3243.704 3228.296 3213.1897 3197.9827 3182.8765 3167.6697 3152.4626 3137.155 1808.9172 3130.5083 3147.528 3164.447 3180.8623 3197.2778 3213.5925 3229.8064 3245.9197 3262.1338 3278.0457 3293.8567 -3290.4326 -3274.9236 -3259.314 -3244.107 -3228.7993 -3213.8945 -3198.8892 -3184.1858 -1246.463 
3299.8992 3299.8992 3299.8992 3299.8992 3299.8992 3299.8992 3299.8992 3299.8992 3294.8638 3278.549 3263.1409 3247.531 3232.1228 3216.8152 3201.6082 3186.4014 3171.1943 3155.8867 3137.0544 -2386.679 3154.4768 3171.2952 3187.8113 3204.3274 3220.5413 3236.856 3253.07 3268.982 3285.0952 3299.8992 -3283.2825 -3267.874 -3252.2644 -3236.9568 -3221.7498 -3206.6436 -3191.8396 -3177.1362 -2922.0427 3299.8992 3299.8992 3299.8992 3299.8992 3299.8992 3299.8992 3299.8992 3299.8992 3299.8992 3296.7773 3280.5632 3264.8528 3249.4446 3233.9355 3218.527 3203.3203 3188.214 3172.9065 3157.5989 3141.8884 -1667.6239 3154.6782 3171.3958 3188.214 3204.5288 3220.7427 3236.9568 3253.1707 3269.3848 3285.2966 3299.8992 -3283.1816 -3267.6726 -3252.1636 -3236.856 -3221.5483 -3206.543 -3191.6382 -3176.9348 -3162.332 1162.4725 3299.8992 3299.8992 3299.8992 3299.8992 3299.8992 3299.8992 3299.8992 3299.8992 3299.8992 3286.5051 3270.996 3255.3862 3239.8772 3224.5696 3209.262 3193.9543 3178.7476 3163.44 3147.7295 -395.58105 3154.074 3170.8923 3187.7104 3203.9246 3220.3398 3236.4531 3252.6672 3268.7805 3284.793 3299.8992 -3283.5845 -3267.9749 -3252.5664 -3237.1582 -3221.9512 -3206.9458 -3192.041 -3177.2368 -3162.7349 1035.6812 3299.8992 3299.8992 3299.8992 3299.8992 3299.8992 3299.8992 3299.8992 3299.8992 3299.8992 3286.3037 3270.7947 3255.2856 3239.7766 3224.3682 3209.1614 3193.9543 3178.7476 3163.44 3147.83 405.45044 3150.65 3167.4683 3184.1858 3200.601 3216.9158 3233.13 3249.4446 3265.5579 3281.4697 3297.3816 -3286.908 -3271.298 -3255.789 -3240.3809 -3225.1738 -3210.0676 -3195.1628 -3180.359 -3165.756 -57.10144 3299.8992 3299.8992 3299.8992 3299.8992 3299.8992 3299.8992 3299.8992 3299.8992 3299.8992 3286.7065 3271.1975 3255.5876 3240.0786 3224.771 3209.4634 3194.1558 3179.0496 3163.742 3148.233 1257.5409 3146.823 3163.8428 3180.5603 3196.875 3213.2903 3229.5044 3245.6177 3261.8315 3277.8442 3293.6553 -3290.4326 -3274.7222 -3259.2131 -3243.9055 -3228.598 -3213.4917 -3198.4863 -3183.6821 -3169.0796 -871.92993 
3299.8992 3299.8992 3299.8992 3299.8992 3299.8992 3299.8992 3299.8992 3299.8992 3287.3108 3271.8018 3255.789 3240.8843 3225.9795 3211.1755 3196.2708 3181.7688 3167.2668 3152.765 3137.7593 -1413.739 3145.6145 3161.9292 3178.3447 3194.458 3210.4705 3226.4832 3242.2942 3258.1055 3273.816 3289.325 -3294.9646 -3279.5562 -3264.2485 -3249.1423 -3233.9355 -3218.93 -3203.9246 -3189.2212 -3174.417 3061.9263 3299.8992 3299.8992 3299.8992 3299.8992 3299.8992 3299.8992 3299.8992 3299.8992 3289.224 3273.5137 3257.5012 3242.5964 3227.5908 3212.686 3197.9827 3183.3801 3168.6768 3154.2754 3139.4714 -446.74072 3144.5068 3161.1235 3177.3376 3193.5515 3209.5642 3225.5767 3241.388 3257.2998 3272.9094 3288.6199 3299.8992 -3280.4626 -3265.0542 -3249.8474 -3234.7412 -3219.635 -3204.7302 -3189.926 -3175.3235 1231.1554 3299.8992 3299.8992 3299.8992 3299.8992 3299.8992 3299.8992 3299.8992 3299.8992 3291.641 3276.233 3260.1196 3245.0134 3230.0078 3215.0024 3200.299 3185.6963 3170.993 3156.5918 3141.8884 651.5808 3143.8018 3160.3179 3176.7334 3192.9473 3208.96 3224.8718 3240.7837 3256.5947 3272.3052 3288.0156 3299.8992 -3280.966 -3265.5579 -3250.3508 -3235.2446 -3220.1384 -3205.133 -3190.4297 -3175.827 200.40894 3299.8992 3299.8992 3299.8992 3299.8992 3299.8992 3299.8992 3299.8992 3299.8992 3293.1519 3277.6428 3261.6301 3246.524 3231.5186 3216.6138 3201.8096 3187.207 3172.5037 3158.1023 3143.2983 1784.3445 3141.1833 3157.8003 3174.2156 3190.4297 3206.543 3222.4548 3238.3667 3254.0771 3269.8882 3285.6995 3299.8992 -3283.484 -3267.9749 -3252.7678 -3237.7625 -3222.5554 -3207.6506 -3192.7458 -3178.1433 -1223.5016 3299.8992 3299.8992 3299.8992 3299.8992 3299.8992 3299.8992 3299.8992 3299.8992 3294.5618 3279.0527 3262.9395 3247.7324 3232.727 3217.7214 3202.9175 3188.3147 3173.7122 3159.1094 3144.6074 2722.3389 3137.5579 3154.3762 3170.7915 3186.9048 3203.119 3219.0308 3234.9426 3250.7537 3266.464 3282.2754 3297.7844 -3286.7065 -3271.399 -3256.192 -3240.985 -3225.778 -3210.8733 -3195.9685 -3181.2651 -1728.0487 

2927.9846 3299.8992 3299.8992 3299.8992 3299.8992 3299.8992 3299.8992 3299.8992 3299.8992 3285.498 3270.7947 3255.89 3241.1865 3226.7852 3212.4846 3198.184 3183.783 3169.3816 3154.8796 2222.9277 -1162.5732 3154.6782 3170.4895 3185.4949 3201.3062 3216.9158 3232.3242 3247.3296 3262.033 3277.1392 3291.9434 3299.8992 -3278.7505 -3264.2485 -3249.948 -3235.6475 -3221.347 -3207.2478 -3193.2495 -2397.4548 2527.9724 3299.8992 3299.8992 3299.8992 3299.8992 3299.8992 3299.8992 3299.8992 3298.0864 3283.2825 3268.579 3253.6743 3239.273 3224.8718 3210.5713 3196.17 3181.8694 3167.3674 3152.765 2350.9277 -1018.05725 3151.0527 3166.9646 3182.0708 3198.0835 3213.1897 3228.6987 3243.704 3258.8103 3273.6145 3288.5193 3299.8992 -3282.2754 -3267.9749 -3253.473 -3239.0715 -3224.9724 -3210.8733 -3196.6736 -2654.965 2290.2007 3299.8992 3299.8992 3299.8992 3299.8992 3299.8992 3299.8992 3299.8992 3296.576 3281.8726 3267.0684 3252.2644 3237.863 3223.361 3208.96 3194.76 3180.359 3165.857 3151.4556 2330.2825 -1045.6512 3149.7437 3165.0513 3181.2651 3196.2708 3211.8804 3227.0874 3241.8914 3256.897 3271.8018 3286.6057 3299.8992 -3283.6853 -3269.5862 -3255.1848 -3240.8843 -3226.2817 -3212.1826 -3198.0835 -2956.4849 1690.2832 3299.8992 3299.8992 3299.8992 3299.8992 3299.8992 3299.8992 3299.8992 3298.1873 3283.484 3268.982 3253.8757 3239.273 3224.8718 3210.5713 3196.5728 3182.1716 3167.871 3153.4697 2800.186 -393.96973 -3226.886 3161.4258 3177.4382 3192.5444 3208.0535 3223.462 3238.568 3253.6743 3268.6797 3283.484 3298.2878 -3287.21 -3272.708 -3258.307 -3244.2078 -3229.9072 -3215.5059 -3201.8096 -3096.9727 1253.2104 3299.8992 3299.8992 3299.8992 3299.8992 3299.8992 3299.8992 3299.8992 3297.6836 3282.8796 3267.7734 3253.1707 3238.87 3224.469 3209.7656 3195.465 3181.1646 3166.7632 3152.664 2902.4048 -173.21777 -2844.1956 3158.1023 3174.417 3189.3218 3204.8308 3220.2393 3235.144 3250.1494 3265.457 3280.3618 3294.5618 -3290.332 -3276.0315 -3261.6301 -3247.3296 -3232.6262 -3218.527 -3204.7302 -3190.8325 
3180.661 3197.2778 3213.1897 3229.303 3245.114 3260.8245 3276.3335 3291.8425 3299.8992 -3277.7434 -3262.738 -3247.7324 -3232.8276 -3218.225 -3203.6223 -3189.1204 -3174.7192 -3160.5193 -3146.4202 -3132.5225 3299.8992 3299.8992 3299.8992 3299.8992 3299.8992 3299.8992 3299.8992 3299.8992 3299.8992 3299.8992 3299.8992 3287.3108 3271.8018 3256.6956 3241.7908 3227.188 3212.686 3198.285 3184.085 3163.9434 3181.1646 3197.5798 3213.794 3229.7058 3245.7183 3261.4287 3276.8372 3292.2454 3299.8992 -3277.1392 -3262.2344 -3247.1282 -3232.4248 -3217.7214 -3203.119 -3188.617 -3174.2156 -3160.1165 -3145.9167 -3132.019 3299.8992 3299.8992 3299.8992 3299.8992 3299.8992 3299.8992 3299.8992 3299.8992 3299.8992 3299.8992 3299.8992 3289.8284 3274.5208 3259.4146 3244.4092 3229.8064 3215.103 3200.9033 3186.502 3172.2014 3181.2651 3197.6807 3213.794 3229.9072 3245.6177 3261.4287 3276.9377 3292.3462 3299.8992 -3277.1392 -3262.1338 -3247.1282 -3232.3242 -3217.6208 -3203.119 -3188.516 -3174.2156 -3160.0159 -3145.9167 -3132.019 3299.8992 3299.8992 3299.8992 3299.8992 3299.8992 3299.8992 3299.8992 3299.8992 3299.8992 3299.8992 3299.8992 3291.9434 3276.7363 3261.5295 3246.524 3231.72 3217.218 3202.8167 3188.617 3174.5178 3180.359 3196.9756 3213.0889 3229.303 3245.0134 3260.8245 3276.3335 3291.742 3299.8992 -3277.7434 -3262.6372 -3247.6318 -3232.9285 -3218.1243 -3203.5217 -3189.0198 -3174.7192 -3160.5193 -3146.3196 -3132.4219 3299.8992 3299.8992 3299.8992 3299.8992 3299.8992 3299.8992 3299.8992 3299.8992 3299.8992 3299.8992 3299.8992 3294.159 3278.952 3263.745 3248.7395 3234.0361 3219.3328 3204.9316 3190.7317 3176.7334 3180.359 3196.9756 3213.0889 3229.1016 3244.812 3260.7239 3276.233 3291.5405 3299.8992 -3277.8442 -3262.738 -3247.7324 -3233.029 -3218.225 -3203.6223 -3189.1204 -3174.7192 -3160.5193 -3146.4202 -3132.6233 3299.8992 3299.8992 3299.8992 3299.8992 3299.8992 3299.8992 3299.8992 3299.8992 3299.8992 3299.8992 3299.8992 3296.0723 3280.8655 3265.6584 3250.5522 3235.8489 3221.1455 3206.7444 3192.5444 3178.4453 
