wall_time,elapsed_s,R00_C00,R00_C01,R00_C02,R00_C03,R00_C04,R00_C05,R00_C06,R00_C07,R00_C08,R00_C09,R00_C10,R00_C11,R00_C12,R00_C13,R00_C14,R00_C15,R01_C00,R01_C01,R01_C02,R01_C03,R01_C04,R01_C05,R01_C06,R01_C07,R01_C08,R01_C09,R01_C10,R01_C11,R01_C12,R01_C13,R01_C14,R01_C15,R02_C00,R02_C01,R02_C02,R02_C03,R02_C04,R02_C05,R02_C06,R02_C07,R02_C08,R02_C09,R02_C10,R02_C11,R02_C12,R02_C13,R02_C14,R02_C15,R03_C00,R03_C01,R03_C02,R03_C03,R03_C04,R03_C05,R03_C06,R03_C07,R03_C08,R03_C09,R03_C10,R03_C11,R03_C12,R03_C13,R03_C14,R03_C15,R04_C00,R04_C01,R04_C02,R04_C03,R04_C04,R04_C05,R04_C06,R04_C07,R04_C08,R04_C09,R04_C10,R04_C11,R04_C12,R04_C13,R04_C14,R04_C15,R05_C00,R05_C01,R05_C02,R05_C03,R05_C04,R05_C05,R05_C06,R05_C07,R05_C08,R05_C09,R05_C10,R05_C11,R05_C12,R05_C13,R05_C14,R05_C15,R06_C00,R06_C01,R06_C02,R06_C03,R06_C04,R06_C05,R06_C06,R06_C07,R06_C08,R06_C09,R06_C10,R06_C11,R06_C12,R06_C13,R06_C14,R06_C15,R07_C00,R07_C01,R07_C02,R07_C03,R07_C04,R07_C05,R07_C06,R07_C07,R07_C08,R07_C09,R07_C10,R07_C11,R07_C12,R07_C13,R07_C14,R07_C15,R08_C00,R08_C01,R08_C02,R08_C03,R08_C04,R08_C05,R08_C06,R08_C07,R08_C08,R08_C09,R08_C10,R08_C11,R08_C12,R08_C13,R08_C14,R08_C15,R09_C00,R09_C01,R09_C02,R09_C03,R09_C04,R09_C05,R09_C06,R09_C07,R09_C08,R09_C09,R09_C10,R09_C11,R09_C12,R09_C13,R09_C14,R09_C15,R10_C00,R10_C01,R10_C02,R10_C03,R10_C04,R10_C05,R10_C06,R10_C07,R10_C08,R10_C09,R10_C10,R10_C11,R10_C12,R10_C13,R10_C14,R10_C15,R11_C00,R11_C01,R11_C02,R11_C03,R11_C04,R11_C05,R11_C06,R11_C07,R11_C08,R11_C09,R11_C10,R11_C11,R11_C12,R11_C13,R11_C14,R11_C15,R12_C00,R12_C01,R12_C02,R12_C03,R12_C04,R12_C05,R12_C06,R12_C07,R12_C08,R12_C09,R12_C10,R12_C11,R12_C12,R12_C13,R12_C14,R12_C15,R13_C00,R13_C01,R13_C02,R13_C03,R13_C04,R13_C05,R13_C06,R13_C07,R13_C08,R13_C09,R13_C10,R13_C11,R13_C12,R13_C13,R13_C14,R13_C15,R14_C00,R14_C01,R14_C02,R14_C03,R14_C04,R14_C05,R14_C06,R14_C07,R14_C08,R14_C09,R14_C10,R14_C11,R14_C12,R14_C13,R14_C14,R14_C15,R15_C00,R15_C01,R15_C02,R15_C03,R15_C04,R15_C05,R15_C06,R15_C07,R15_C08,R15_C09,R15_C10,R15_C11,R15_C12,R15_C13,R15_C14,R15_C15
2026-07-21T15:32:20.627,0.1285,0.0,0.0,0.010000000000005116,0.0,0.0,0.0,0.0,0.0,0.0,0.0,0.0,0.0,0.0,0.0,0.0,0.0,0.0,0.7700000000000102,0.0,0.0,0.0,0.0,0.0,0.0,0.0,0.0,9.009999999999991,0.0,1.980000000000004,11.879999999999995,0.0,0.0,63.05000000000001,0.18000000000000682,0.0,0.0,0.0,0.0,0.0,0.0,0.0,0.0,3.1100000000000136,12.0,0.0,0.0,0.0,0.03999999999999204,0.0,0.0,0.0,0.0,0.0,0.0,0.0,0.0,0.0,0.0,1.960000000000008,0.18999999999999773,0.25,0.0,0.0,0.8400000000000034,0.0,0.0,0.0,0.0,0.0,0.0,0.0,0.0,0.0,0.0,0.010000000000005116,0.0,1.4399999999999977,0.14000000000000057,0.0,0.0,0.0,0.0,0.0,0.0,0.0,0.0,0.0,0.0,0.0,0.0,0.0,0.20000000000000284,8.700000000000003,0.060000000000002274,0.25,0.0,0.0,0.0,0.0,0.0,0.0,0.0,0.0,0.0,0.01999999999999602,0.0,0.12000000000000455,0.0,0.0,0.01999999999999602,0.0,0.0,0.0,0.0,0.0,0.0,0.0,0.0,0.0,0.0,0.04000000000000625,0.0,23.659999999999997,0.0,0.0,0.04999999999999716,0.0,0.0,0.0,0.0,0.0,1.1200000000000045,6.280000000000001,0.0,0.0,0.0,0.0,0.0,0.9900000000000091,0.9899999999999949,0.0,0.0,0.0,1.660000000000025,0.0,0.0,0.0,0.0,0.0,0.0,0.0,0.0,0.8400000000000034,0.0,1.0,0.0,0.0,0.0,0.0,0.009999999999990905,0.0,0.0,0.0,0.0,0.0,0.0,0.0,1.3200000000000003,0.3400000000000034,0.0,0.0,21.0,0.0,0.0,0.0,8.139999999999986,0.21999999999999886,0.0,0.0,0.060000000000002274,0.4900000000000091,0.0,0.0,0.0,0.14000000000000057,1.980000000000004,0.0,0.0,0.0,0.9699999999999989,0.0,0.0,0.0,0.0,0.0,0.11000000000001364,1.9199999999999875,0.0,0.9900000000000091,0.0,0.01999999999999602,0.20999999999999375,0.0,21.0,0.0,0.0,0.0,1.9399999999999977,0.0,0.0,0.030000000000001137,0.0,0.0,0.0,0.0,0.0,0.0,0.29999999999999716,0.0,0.0,0.0,0.0,0.0,0.660000000000025,0.0,0.28000000000000114,0.0,4.560000000000002,0.0,0.020000000000010232,0.0,0.0,0.0,0.0,0.0,0.01999999999999602,0.0,0.9599999999999937,0.0,0.0,0.22999999999998977,0.0,0.0,0.0,1.960000000000008,0.0,0.0,0.03999999999999915,0.0,0.0,0.0,0.0,0.0,1.980000000000004,0.0,0.0
2026-07-21T15:32:20.627,0.1285,0.0,0.0,0.010000000000005116,0.0,0.0,0.0,0.0,0.0,0.0,0.0,0.0,0.0,0.0,0.0,0.0,0.0,0.0,0.7700000000000102,0.0,0.0,0.0,0.0,0.0,0.0,0.0,0.0,9.009999999999991,0.0,1.980000000000004,11.879999999999995,0.0,0.0,0.0,0.18000000000000682,0.0,2.7900000000000063,0.0,0.0,0.0,0.0,0.0,0.0,3.1100000000000136,0.0,0.0,0.0,0.0,0.03999999999999204,0.0,0.0,0.0,0.0,0.0,0.0,0.0,0.0,0.0,0.0,1.960000000000008,2.1899999999999977,0.25,0.0,0.0,0.8400000000000034,0.0,0.0,0.0,0.0,0.0,0.0,0.0,0.0,0.0,0.0,0.010000000000005116,0.0,1.4399999999999977,0.14000000000000057,0.0,0.0,0.0,0.0,0.0,0.0,0.0,0.0,0.0,0.0,0.0,0.0,0.0,0.20000000000000284,8.700000000000003,0.060000000000002274,0.25,0.0,0.0,0.0,0.0,0.0,0.0,0.0,0.030000000000001137,0.0,0.01999999999999602,0.0,0.12000000000000455,0.0,0.0,0.01999999999999602,0.0,0.0,0.0,0.0,0.0,0.0,0.0,0.0,0.0,0.0,0.04000000000000625,0.0,23.659999999999997,0.0,0.0,0.04999999999999716,0.0,0.0,0.0,0.0,0.0,1.1200000000000045,0.0,0.0,0.0,0.0,0.0,0.0,0.9900000000000091,0.9899999999999949,0.0,0.0,0.0,1.660000000000025,0.0,9.0,0.0,0.0,0.0,0.0,0.0,0.0,0.8400000000000034,0.0,1.0,0.0,0.0,0.0,0.0,0.009999999999990905,0.0,0.0,0.0,0.0,0.0,0.12000000000000455,0.0,0.3200000000000003,0.3400000000000034,0.0,0.0,21.0,0.0,0.0,0.0,0.0,3.219999999999999,0.0,0.0,0.060000000000002274,0.4900000000000091,0.0,0.0,0.0,0.14000000000000057,0.0,0.0,0.0,0.0,0.0,0.9699999999999989,1.990000000000009,0.0,0.0,0.0,0.11000000000001364,1.9199999999999875,1.9399999999999977,0.9900000000000091,0.0,0.01999999999999602,0.20999999999999375,0.0,21.0,0.0,0.0,0.0,1.9399999999999977,0.0,0.0,0.030000000000001137,0.0,0.0,0.0,0.0,0.0,0.0,0.29999999999999716,0.0,0.0,0.0,0.0,0.0,0.660000000000025,0.0,0.0,0.0,0.0,8.909999999999997,0.020000000000010232,0.0,0.0,0.0,0.0,0.0,0.01999999999999602,0.0,0.9599999999999937,0.0,0.0,0.22999999999998977,0.0,0.0,0.0,1.960000000000008,0.0,0.0,0.03999999999999915,0.0,0.0,0.0,0.0,0.0,1.980000000000004,0.0,0.0
2026-07-21T15:32:20.632,0.1334,0.0,0.0,0.010000000000005116,0.0,0.0,0.0,0.0,0.0,0.0,0.0,0.0,0.0,0.0,0.0,0.0,0.0,0.0,0.0,0.0,0.0,0.0,0.0,0.0,0.0,0.0,0.0,9.009999999999991,0.0,1.980000000000004,11.879999999999995,0.0,0.0,63.05000000000001,0.18000000000000682,0.0,0.0,0.0,0.0,0.0,0.0,0.0,0.0,3.1100000000000136,0.0,0.0,0.0,0.0,0.0,0.0,0.0,0.0,0.0,0.0,0.0,0.0,0.0,0.0,0.0,1.960000000000008,0.18999999999999773,0.25,0.0,0.0,0.8400000000000034,0.0,0.0,0.0,0.0,0.0,0.0,0.0,0.0,0.0,0.0,0.010000000000005116,0.0,1.4399999999999977,0.14000000000000057,0.0,0.0,0.0,0.0,0.0,0.0,0.0,0.0,0.0,0.0,0.0,13.86,0.0,0.20000000000000284,8.700000000000003,0.060000000000002274,0.25,0.0,0.0,0.0,0.0,0.0,0.0,0.0,0.0,0.0,0.01999999999999602,0.0,0.12000000000000455,0.0,0.0,0.01999999999999602,0.0,0.0,0.0,0.0,0.0,0.0,0.0,0.0,0.0,0.0,0.04000000000000625,0.0,23.659999999999997,0.0,0.0,0.04999999999999716,0.0,0.5600000000000023,0.0,0.0,0.0,1.1200000000000045,0.0,0.0,0.0,0.0,0.0,0.0,0.9900000000000091,0.9899999999999949,0.0,0.0,0.0,1.660000000000025,0.0,9.0,0.0,0.0,0.0,0.0,0.0,0.0,0.8400000000000034,1.9599999999999937,1.0,0.0,0.0,0.0,0.0,0.009999999999990905,0.0,0.0,0.0,0.0,0.0,0.12000000000000455,0.0,0.3200000000000003,0.3400000000000034,0.0,0.0,21.0,0.0,0.0,0.0,8.139999999999986,0.21999999999999886,0.0,0.0,0.060000000000002274,0.4900000000000091,0.0,0.0,0.0,0.14000000000000057,1.980000000000004,0.0,0.0,0.0,0.9699999999999989,0.0,0.0,0.0,0.0,0.0,0.11000000000001364,1.9199999999999875,1.9399999999999977,0.9900000000000091,0.0,0.01999999999999602,0.20999999999999375,0.0,21.0,0.0,0.0,0.0,1.9399999999999977,0.0,0.0,0.030000000000001137,0.0,0.0,0.0,0.0,0.0,0.0,0.29999999999999716,0.0,0.0,0.0,0.0,0.0,0.660000000000025,0.0,0.28000000000000114,0.0,0.0,8.909999999999997,0.020000000000010232,0.0,0.0,0.0,0.0,0.0,0.01999999999999602,0.0,0.9599999999999937,0.0,0.0,0.22999999999998977,0.0,0.0,0.0,1.960000000000008,0.0,0.0,0.03999999999999915,0.0,0.0,0.0,0.0,0.0,0.0,0.0,0.0
2026-07-21T15:32:20.632,0.1334,0.0,0.0,0.010000000000005116,0.0,0.0,0.0,0.0,0.0,0.0,0.0,0.0,0.0,0.0,0.0,0.0,0.0,0.0,0.7700000000000102,0.0,0.0,0.0,0.0,0.0,0.0,0.0,0.0,9.009999999999991,0.0,1.980000000000004,0.0,0.0,1.8899999999999864,63.05000000000001,0.18000000000000682,0.0,0.0,0.0,0.0,0.0,0.0,0.0,0.0,1.1100000000000136,0.0,0.0,0.0,0.0,0.03999999999999204,0.0,0.0,0.0,0.0,0.0,0.0,0.0,0.0,0.0,0.0,1.960000000000008,0.18999999999999773,0.25,0.0,0.0,0.0,0.0,0.0,0.0,0.0,0.0,0.0,0.0,0.0,0.0,0.0,0.010000000000005116,0.0,1.4399999999999977,0.14000000000000057,0.0,0.0,0.0,0.0,0.0,0.0,0.0,0.0,0.0,0.0,0.0,0.0,0.0,0.20000000000000284,8.700000000000003,0.060000000000002274,0.25,0.0,0.0,0.0,0.0,0.0,0.0,0.0,0.0,0.0,0.01999999999999602,0.0,0.12000000000000455,0.0,0.0,0.01999999999999602,0.0,0.0,0.0,0.0,0.0,0.0,0.0,0.0,0.0,0.0,0.0,0.0,23.659999999999997,0.0,0.0,0.04999999999999716,0.0,0.0,0.0,0.0,0.0,1.1200000000000045,0.0,0.0,0.0,0.0,0.0,0.0,0.9900000000000091,0.9899999999999949,0.0,0.0,0.0,1.660000000000025,0.0,0.0,0.0,0.0,0.0,0.0,0.0,0.0,0.8400000000000034,1.9599999999999937,1.0,0.0,0.0,0.0,0.0,0.009999999999990905,0.0,0.0,0.0,0.0,0.0,0.12000000000000455,0.0,0.3200000000000003,0.3400000000000034,0.0,0.0,21.0,0.0,0.0,0.0,0.0,0.21999999999999886,0.0,0.0,0.060000000000002274,0.4900000000000091,0.0,0.0,0.0,0.14000000000000057,0.0,0.0,0.0,0.0,0.9699999999999989,0.0,0.0,0.0,0.0,0.0,0.11000000000001364,1.9199999999999875,0.0,0.9900000000000091,0.0,0.01999999999999602,0.20999999999999375,0.0,21.0,0.0,0.0,0.0,1.9399999999999977,0.0,0.0,0.030000000000001137,0.0,0.0,0.0,0.0,0.0,0.0,0.29999999999999716,0.0,0.0,0.0,0.0,0.0,0.660000000000025,0.0,0.28000000000000114,0.0,0.0,8.909999999999997,0.020000000000010232,0.0,0.0,0.0,0.0,0.0,0.01999999999999602,0.0,0.9599999999999937,0.0,0.0,0.22999999999998977,1.9799999999999898,0.0,0.0,0.0,0.0,0.0,0.03999999999999915,0.0,0.0,0.0,1.9599999999999937,0.0,1.980000000000004,0.0,0.0
2026-07-21T15:32:20.632,0.1334,0.0,0.0,0.010000000000005116,0.0,0.0,0.0,0.0,0.0,0.0,0.0,0.0,0.0,0.0,0.0,0.0,0.0,0.0,0.7700000000000102,0.0,0.0,0.0,0.0,0.0,0.0,0.0,0.0,9.009999999999991,0.0,1.980000000000004,0.0,0.0,1.8899999999999864,63.05000000000001,0.18000000000000682,0.0,0.0,0.0,0.0,0.0,0.0,0.0,0.0,3.1100000000000136,0.0,0.0,0.0,0.0,0.03999999999999204,0.0,0.0,0.0,0.0,0.0,0.0,0.0,0.0,0.0,0.0,1.960000000000008,2.1899999999999977,0.25,0.0,0.0,0.8400000000000034,0.0,0.0,0.0,0.0,0.0,0.0,0.0,0.0,0.0,0.0,0.010000000000005116,0.0,1.4399999999999977,0.14000000000000057,0.0,0.0,0.0,0.0,0.0,0.0,0.0,0.0,0.0,0.0,0.0,0.0,0.0,0.20000000000000284,8.700000000000003,0.060000000000002274,0.25,0.0,0.0,0.0,0.0,0.0,0.0,0.0,0.0,0.0,0.01999999999999602,0.0,0.12000000000000455,0.0,0.0,0.01999999999999602,0.0,0.0,0.0,0.0,0.0,0.0,0.0,0.0,0.0,0.0,0.04000000000000625,0.0,23.659999999999997,0.0,0.0,0.04999999999999716,0.0,0.5600000000000023,0.0,0.0,0.0,1.1200000000000045,6.280000000000001,0.0,0.0,0.0,0.0,0.0,0.9900000000000091,0.9899999999999949,0.0,0.0,0.0,1.660000000000025,0.0,0.0,0.0,0.0,0.0,0.0,0.0,0.0,0.8400000000000034,0.0,1.0,0.0,0.0,0.0,0.0,0.009999999999990905,0.0,0.0,0.0,0.0,0.0,0.12000000000000455,0.0,0.3200000000000003,0.3400000000000034,0.0,0.0,21.0,0.0,0.0,0.0,8.139999999999986,0.21999999999999886,0.0,0.0,0.060000000000002274,0.4900000000000091,0.0,0.0,0.0,0.14000000000000057,0.0,0.0,0.0,0.0,0.0,0.0,0.0,0.0,0.0,0.0,0.11000000000001364,1.9199999999999875,0.0,0.9900000000000091,0.0,0.01999999999999602,0.20999999999999375,0.0,0.0,0.0,0.0,0.0,1.9399999999999977,0.0,0.0,0.030000000000001137,0.0,0.0,0.0,0.0,0.0,0.0,0.29999999999999716,0.0,0.0,0.0,0.0,0.0,0.660000000000025,0.0,0.28000000000000114,0.0,0.0,8.909999999999997,0.020000000000010232,0.0,0.0,0.0,0.0,0.0,0.01999999999999602,0.0,0.9599999999999937,0.0,0.0,0.22999999999998977,0.0,0.0,0.0,1.960000000000008,0.0,0.0,0.03999999999999915,0.0,0.0,0.0,0.0,0.0,1.980000000000004,0.0,0.0
2026-07-21T15:32:20.632,0.1334,0.0,0.0,0.010000000000005116,0.0,0.0,0.0,0.0,0.0,0.0,0.0,0.0,0.0,0.0,0.0,0.0,0.0,0.0,0.0,0.0,0.0,0.0,0.0,0.0,0.0,0.0,0.0,9.009999999999991,0.0,1.980000000000004,11.879999999999995,0.0,0.0,0.0,0.18000000000000682,0.0,0.0,0.0,0.0,0.0,0.0,0.0,0.0,3.1100000000000136,0.0,0.0,0.0,0.0,0.03999999999999204,0.0,0.0,0.0,0.0,0.0,0.0,0.0,0.0,0.0,0.0,1.960000000000008,0.18999999999999773,0.25,0.0,0.0,0.8400000000000034,0.0,0.0,0.0,0.0,0.0,0.0,0.0,0.0,0.0,0.0,0.010000000000005116,0.0,1.4399999999999977,0.14000000000000057,0.0,0.0,0.0,0.0,0.0,0.0,0.0,0.0,0.0,0.0,0.0,0.0,0.0,0.20000000000000284,8.700000000000003,0.060000000000002274,0.25,0.0,0.0,0.0,0.0,0.0,0.0,0.0,0.0,0.0,0.01999999999999602,0.0,0.12000000000000455,0.0,0.0,0.01999999999999602,0.0,0.0,0.0,0.0,0.0,0.0,0.0,0.0,0.0,0.0,0.0,0.0,23.659999999999997,1.0,0.0,0.04999999999999716,0.0,0.5600000000000023,0.0,0.0,0.0,1.1200000000000045,6.280000000000001,0.0,0.0,0.0,0.0,0.0,0.9900000000000091,0.9899999999999949,0.0,0.0,0.0,1.660000000000025,0.0,0.0,0.0,0.0,0.0,0.0,0.0,0.0,0.8400000000000034,0.0,1.0,0.0,0.0,0.0,0.0,0.009999999999990905,0.0,0.0,0.0,0.0,0.0,0.12000000000000455,0.0,0.0,0.3400000000000034,0.0,0.0,21.0,0.0,0.0,0.0,0.0,0.21999999999999886,0.0,0.0,0.060000000000002274,0.4900000000000091,0.0,0.0,0.0,0.14000000000000057,0.0,0.0,0.0,0.0,0.0,0.9699999999999989,1.990000000000009,0.0,0.0,0.0,0.11000000000001364,1.9199999999999875,1.9399999999999977,0.9900000000000091,0.0,0.01999999999999602,0.20999999999999375,0.0,21.0,0.0,0.0,0.0,1.9399999999999977,0.0,0.0,0.030000000000001137,0.0,0.0,0.0,0.0,0.0,0.0,0.29999999999999716,0.0,0.0,0.0,0.0,0.0,0.660000000000025,0.0,0.28000000000000114,0.0,4.560000000000002,0.0,0.020000000000010232,0.0,0.0,0.0,0.0,0.0,0.01999999999999602,0.0,0.9599999999999937,0.0,0.0,0.22999999999998977,0.0,0.0,0.0,1.960000000000008,0.0,0.0,0.03999999999999915,0.0,0.0,0.0,1.9599999999999937,0.0,1.980000000000004,0.0,0.0
2026-07-21T15:32:20.632,0.1334,0.0,0.0,0.010000000000005116,0.0,0.0,0.0,0.0,0.0,0.0,0.0,0.0,0.0,0.0,0.0,0.0,0.0,0.0,0.7700000000000102,0.0,0.0,0.0,0.0,0.0,0.0,0.0,0.0,9.009999999999991,0.0,1.980000000000004,0.0,0.0,0.0,0.0,0.18000000000000682,0.0,0.0,0.0,0.0,0.0,0.0,0.0,0.0,1.1100000000000136,0.0,0.0,0.0,0.0,0.03999999999999204,0.0,0.0,0.0,0.0,0.0,0.0,0.0,0.0,0.0,0.0,1.960000000000008,0.18999999999999773,0.25,0.0,0.0,0.8400000000000034,0.0,0.0,0.0,0.0,0.0,0.0,0.0,0.0,0.0,0.0,0.010000000000005116,0.0,1.4399999999999977,0.14000000000000057,0.0,0.0,0.0,0.0,0.0,0.0,0.0,0.0,0.0,0.0,0.0,0.0,0.0,0.20000000000000284,8.700000000000003,0.060000000000002274,0.25,0.0,0.0,0.0,0.0,0.0,0.0,0.0,0.0,0.0,0.01999999999999602,0.0,0.12000000000000455,0.0,0.0,0.01999999999999602,0.0,0.0,0.0,0.0,0.0,0.0,0.0,0.0,0.0,0.0,0.04000000000000625,0.0,23.659999999999997,0.0,0.0,0.04999999999999716,0.0,0.0,0.0,0.0,0.0,1.1200000000000045,6.280000000000001,0.0,0.0,0.0,0.0,2.0,0.9900000000000091,0.9899999999999949,0.0,0.0,0.0,1.660000000000025,0.0,0.0,0.0,0.0,0.0,0.0,0.0,0.0,0.8400000000000034,0.0,1.0,0.0,0.0,0.0,0.0,0.009999999999990905,0.0,0.0,0.0,0.0,0.0,0.0,0.0,0.3200000000000003,0.3400000000000034,0.0,0.0,21.0,0.0,0.0,0.0,0.0,0.21999999999999886,0.0,0.0,0.060000000000002274,0.4900000000000091,0.0,0.0,0.0,0.14000000000000057,0.0,0.0,0.0,0.0,0.0,0.0,1.990000000000009,0.0,0.0,0.0,0.11000000000001364,1.9199999999999875,1.9399999999999977,0.9900000000000091,0.0,0.01999999999999602,0.20999999999999375,0.0,21.0,0.0,0.0,0.0,1.9399999999999977,0.0,0.0,0.030000000000001137,0.0,0.0,0.0,0.0,0.0,0.0,0.29999999999999716,0.0,0.0,0.0,0.0,0.0,0.660000000000025,0.0,0.28000000000000114,0.0,0.0,8.909999999999997,0.020000000000010232,0.0,0.0,0.0,0.0,28.0,0.01999999999999602,0.0,0.9599999999999937,0.0,0.0,0.22999999999998977,0.0,0.0,0.0,1.960000000000008,0.0,0.0,0.03999999999999915,0.0,0.0,0.0,1.9599999999999937,0.0,0.0,0.0,0.0
2026-07-21T15:32:20.632,0.1334,0.0,0.0,0.010000000000005116,0.0,0.0,0.0,0.0,0.0,0.0,0.0,0.0,0.0,0.0,0.0,0.0,0.0,0.0,0.7700000000000102,0.0,0.0,0.0,0.0,0.0,0.0,0.0,0.0,9.009999999999991,0.0,1.980000000000004,11.879999999999995,0.0,0.0,0.0,0.18000000000000682,0.0,2.7900000000000063,0.0,0.0,0.0,0.0,0.0,0.0,3.1100000000000136,0.0,0.0,0.0,0.0,0.03999999999999204,0.0,0.0,0.0,0.0,0.0,0.0,0.0,0.0,0.0,0.0,1.960000000000008,0.18999999999999773,0.25,0.0,0.20999999999999375,0.8400000000000034,0.0,0.0,0.0,0.0,0.0,0.0,0.0,0.0,0.0,0.0,0.010000000000005116,0.0,1.4399999999999977,0.14000000000000057,0.0,0.0,0.0,0.0,0.0,0.0,0.0,0.0,0.0,0.0,0.0,0.0,0.0,0.20000000000000284,10.700000000000003,0.060000000000002274,0.25,0.0,0.0,0.0,0.0,0.0,0.0,0.0,0.030000000000001137,0.0,0.01999999999999602,0.0,0.12000000000000455,0.0,0.0,0.01999999999999602,0.0,0.0,0.0,0.0,0.0,0.0,0.0,0.0,0.0,0.0,0.04000000000000625,0.0,23.659999999999997,0.0,0.0,0.04999999999999716,0.0,0.0,0.0,0.0,0.0,1.1200000000000045,6.280000000000001,0.0,0.0,0.0,0.0,0.0,0.9900000000000091,0.9899999999999949,0.0,0.0,0.0,1.660000000000025,0.0,0.0,0.0,0.0,0.0,0.0,0.0,0.0,0.8400000000000034,0.0,1.0,0.0,0.0,0.0,0.0,0.009999999999990905,0.0,0.0,0.0,0.0,0.0,0.12000000000000455,0.0,0.3200000000000003,0.3400000000000034,0.0,0.0,21.0,0.0,0.0,0.0,8.139999999999986,0.21999999999999886,0.0,0.0,0.060000000000002274,0.4900000000000091,0.0,0.0,0.0,0.14000000000000057,0.0,0.0,0.0,0.0,0.9699999999999989,0.0,0.0,0.0,0.0,0.0,0.11000000000001364,1.9199999999999875,1.9399999999999977,0.9900000000000091,0.0,0.01999999999999602,0.20999999999999375,0.0,21.0,0.0,0.0,0.0,1.9399999999999977,0.0,0.0,0.030000000000001137,0.0,0.0,0.0,0.0,0.0,0.0,0.29999999999999716,0.0,0.0,0.0,0.0,0.0,0.660000000000025,0.0,0.28000000000000114,0.0,0.0,8.909999999999997,0.020000000000010232,0.0,0.0,0.0,0.0,0.0,0.01999999999999602,0.0,0.9599999999999937,0.0,0.0,0.22999999999998977,0.0,0.0,0.0,1.960000000000008,0.0,0.0,0.03999999999999915,0.0,0.0,0.0,1.9599999999999937,0.0,1.980000000000004,0.0,0.0
2026-07-21T15:32:20.632,0.1334,0.0,0.0,0.010000000000005116,0.0,0.0,0.0,0.0,0.0,0.0,0.0,0.0,0.0,0.0,0.0,0.0,0.0,0.0,0.7700000000000102,0.0,0.0,0.0,0.0,0.0,0.0,0.0,0.0,9.009999999999991,0.0,1.980000000000004,0.0,0.0,0.0,63.05000000000001,0.18000000000000682,0.0,0.0,0.0,0.0,0.0,0.0,0.0,0.0,3.1100000000000136,0.0,0.0,0.0,0.0,0.03999999999999204,0.0,0.0,0.0,0.0,0.0,0.0,0.0,0.0,0.0,0.0,1.960000000000008,0.18999999999999773,0.25,0.0,0.0,0.8400000000000034,0.0,0.0,0.0,0.0,0.0,0.0,0.0,0.0,0.0,0.0,0.010000000000005116,0.0,1.4399999999999977,0.0,0.0,0.0,0.0,0.0,0.0,0.0,0.0,0.0,0.0,0.0,0.0,0.0,0.0,0.20000000000000284,8.700000000000003,0.060000000000002274,0.25,0.0,0.0,0.0,0.0,0.0,0.0,0.0,0.0,0.0,0.01999999999999602,0.0,0.12000000000000455,0.0,0.0,0.01999999999999602,0.0,0.0,0.0,0.0,0.0,0.0,0.0,0.0,0.0,0.0,0.04000000000000625,0.0,23.659999999999997,0.0,0.0,0.04999999999999716,0.0,0.0,0.0,0.0,0.0,1.1200000000000045,6.280000000000001,0.0,0.0,0.0,0.0,0.0,0.9900000000000091,0.9899999999999949,0.0,0.0,0.0,1.660000000000025,0.0,0.0,0.0,0.0,0.0,0.0,0.0,0.0,0.8400000000000034,0.0,1.0,0.0,0.0,0.0,0.0,0.009999999999990905,0.0,0.0,0.0,0.0,0.0,0.12000000000000455,0.0,0.3200000000000003,0.3400000000000034,0.0,0.0,21.0,0.0,0.0,0.0,8.139999999999986,0.21999999999999886,0.0,0.0,0.060000000000002274,0.4900000000000091,0.0,0.0,0.0,0.14000000000000057,1.980000000000004,0.0,0.0,0.0,0.9699999999999989,0.0,0.0,0.0,0.0,0.0,0.11000000000001364,1.9199999999999875,0.0,0.9900000000000091,0.0,0.01999999999999602,0.20999999999999375,0.0,21.0,0.0,0.0,0.0,1.9399999999999977,0.0,0.0,0.030000000000001137,0.0,0.0,0.0,0.0,0.0,0.0,0.29999999999999716,0.0,0.0,0.0,0.0,0.0,0.660000000000025,0.0,0.28000000000000114,0.0,0.0,8.909999999999997,0.020000000000010232,0.0,0.0,0.0,0.0,0.0,0.01999999999999602,0.0,0.9599999999999937,0.0,0.0,0.22999999999998977,0.0,0.0,0.0,1.960000000000008,0.0,0.0,0.03999999999999915,0.0,0.0,0.0,1.9599999999999937,0.0,1.980000000000004,0.0,0.0
2026-07-21T15:32:20.642,0.144,0.0,0.0,0.010000000000005116,0.0,0.0,0.0,0.0,0.0,0.0,0.0,0.0,0.0,0.0,0.0,0.0,0.0,0.0,0.7700000000000102,0.0,0.0,0.0,0.0,0.0,0.0,0.0,0.0,9.009999999999991,0.0,1.980000000000004,0.0,0.0,0.0,63.05000000000001,0.18000000000000682,0.0,0.0,0.0,0.0,0.0,0.0,0.0,0.0,3.1100000000000136,0.0,0.0,0.0,0.0,0.03999999999999204,0.0,0.0,0.0,0.0,0.0,0.0,0.0,0.0,0.0,0.0,1.960000000000008,0.18999999999999773,0.25,0.0,0.20999999999999375,0.8400000000000034,0.0,0.0,0.0,0.0,0.0,0.0,0.0,0.0,0.0,0.0,0.010000000000005116,0.0,1.4399999999999977,0.14000000000000057,0.0,0.0,0.0,0.0,0.0,0.0,0.0,0.0,0.0,0.0,0.0,0.0,0.0,0.20000000000000284,8.700000000000003,0.060000000000002274,0.25,0.0,0.0,0.0,0.0,0.0,0.0,0.0,0.0,0.0,0.01999999999999602,0.0,0.12000000000000455,0.0,0.0,0.01999999999999602,0.0,0.0,0.0,0.0,0.0,0.0,0.0,0.0,0.0,0.0,0.04000000000000625,0.0,23.659999999999997,0.0,0.0,0.04999999999999716,0.0,0.0,0.0,0.0,0.0,1.1200000000000045,0.0,0.0,0.0,0.0,0.0,0.0,0.9900000000000091,0.9899999999999949,0.0,0.0,0.0,1.660000000000025,0.0,0.0,0.0,0.0,0.0,0.0,0.0,0.0,0.8400000000000034,0.0,1.0,0.0,0.0,0.0,0.0,0.009999999999990905,0.0,0.0,0.0,0.0,0.0,0.0,0.0,0.3200000000000003,0.3400000000000034,0.0,0.0,21.0,0.0,0.0,0.0,0.0,0.21999999999999886,0.0,0.0,0.060000000000002274,0.4900000000000091,0.0,0.0,0.0,0.14000000000000057,1.980000000000004,0.0,0.0,0.0,0.9699999999999989,0.0,0.0,0.0,0.0,0.0,0.11000000000001364,1.9199999999999875,1.9399999999999977,0.9900000000000091,0.0,0.01999999999999602,0.20999999999999375,0.0,21.0,0.0,0.0,0.0,1.9399999999999977,0.0,0.0,0.030000000000001137,0.0,0.0,0.0,0.0,0.0,0.0,0.0,0.0,0.0,0.0,0.0,0.0,0.660000000000025,0.0,0.28000000000000114,0.0,0.0,8.909999999999997,0.020000000000010232,0.0,0.0,0.0,0.0,28.0,0.01999999999999602,0.0,0.9599999999999937,0.0,0.0,0.22999999999998977,0.0,0.0,0.0,1.960000000000008,0.0,0.0,0.03999999999999915,0.0,0.0,0.0,1.9599999999999937,0.0,1.980000000000004,0.0,0.0
2026-07-21T15:32:20.642,0.144,0.0,0.0,0.010000000000005116,0.0,0.0,0.0,0.0,0.0,0.0,0.0,0.0,0.0,0.0,0.0,0.0,0.0,0.0,0.0,0.0,0.0,0.0,0.0,0.0,0.0,0.0,0.0,6.009999999999991,0.0,1.980000000000004,0.0,0.0,0.0,63.05000000000001,0.18000000000000682,0.0,0.0,0.0,0.0,0.0,0.0,0.0,0.0,1.1100000000000136,0.0,0.0,0.0,0.0,0.03999999999999204,0.0,0.0,0.0,0.0,0.0,0.0,0.0,0.0,0.0,0.0,1.960000000000008,0.18999999999999773,0.25,0.0,0.0,0.8400000000000034,0.0,0.0,0.0,0.0,0.0,0.0,0.0,0.0,0.0,0.0,0.010000000000005116,0.0,1.4399999999999977,0.14000000000000057,0.0,0.0,0.0,0.0,0.0,0.0,0.0,0.0,0.0,0.0,0.0,0.0,0.0,0.20000000000000284,8.700000000000003,0.060000000000002274,0.25,0.0,0.0,0.0,0.0,0.0,0.0,0.0,0.0,0.0,0.01999999999999602,0.0,0.12000000000000455,0.0,0.0,0.01999999999999602,0.0,0.0,0.0,0.0,0.0,0.0,0.0,0.0,0.0,0.0,0.04000000000000625,0.0,23.659999999999997,0.0,0.0,0.04999999999999716,0.0,0.0,0.0,0.0,0.0,1.1200000000000045,6.280000000000001,0.0,0.0,0.0,0.0,2.0,0.9900000000000091,0.9899999999999949,0.0,0.0,0.0,1.660000000000025,0.0,0.0,0.0,0.0,0.0,0.0,0.0,0.0,0.8400000000000034,0.0,1.0,0.0,0.0,0.0,0.0,0.009999999999990905,0.0,1.0,0.0,0.0,0.0,0.12000000000000455,0.0,0.3200000000000003,0.3400000000000034,0.0,0.0,21.0,0.0,0.0,0.0,8.139999999999986,0.21999999999999886,0.0,0.0,0.060000000000002274,0.4900000000000091,0.0,0.0,0.0,0.14000000000000057,0.0,0.0,0.0,0.0,0.9699999999999989,0.0,0.0,0.0,0.0,0.0,0.11000000000001364,1.9199999999999875,0.0,0.9900000000000091,0.0,0.01999999999999602,0.20999999999999375,0.0,0.0,0.0,0.0,0.0,1.9399999999999977,0.0,0.0,0.030000000000001137,0.0,0.0,0.0,0.0,0.0,0.0,0.29999999999999716,0.0,0.0,0.0,0.0,0.0,1.660000000000025,0.0,0.28000000000000114,0.0,0.0,8.909999999999997,0.020000000000010232,0.0,0.0,0.0,0.0,0.0,0.01999999999999602,0.0,0.9599999999999937,0.0,0.0,0.22999999999998977,1.9799999999999898,0.0,0.0,1.960000000000008,0.0,0.0,0.0,0.0,0.0,0.0,1.9599999999999937,0.0,0.0,0.6800000000000068,0.0
2026-07-21T15:32:20.642,0.144,0.0,0.0,0.010000000000005116,0.0,0.0,0.0,0.0,0.0,0.0,0.0,0.0,0.0,0.0,0.0,0.0,0.0,0.0,0.7700000000000102,0.0,0.0,0.0,0.0,0.0,0.0,0.0,0.0,9.009999999999991,0.0,1.980000000000004,0.0,0.0,0.0,0.0,0.18000000000000682,0.0,2.7900000000000063,0.0,0.0,0.0,0.0,0.0,0.0,3.1100000000000136,0.0,0.0,0.0,0.0,0.03999999999999204,0.0,0.0,0.0,0.0,0.0,0.0,0.0,0.0,0.0,0.0,1.960000000000008,0.18999999999999773,0.25,0.0,0.20999999999999375,0.8400000000000034,0.0,0.0,0.0,0.0,0.0,0.0,0.0,0.0,0.0,0.0,0.010000000000005116,0.0,1.4399999999999977,0.14000000000000057,0.0,0.0,0.0,0.0,0.0,0.0,0.0,0.0,0.0,0.0,0.0,0.0,0.0,0.20000000000000284,8.700000000000003,0.060000000000002274,0.25,0.0,0.0,0.0,0.0,0.0,0.0,0.0,0.0,0.0,0.01999999999999602,0.0,0.12000000000000455,0.0,0.0,0.01999999999999602,0.0,0.0,0.0,0.0,0.0,0.0,0.0,0.0,0.0,0.0,0.04000000000000625,0.0,23.659999999999997,0.0,0.0,0.04999999999999716,0.0,0.0,0.0,0.0,0.0,1.1200000000000045,6.280000000000001,0.0,0.0,0.0,0.0,2.0,0.9900000000000091,0.9899999999999949,0.0,0.0,0.0,1.660000000000025,0.0,0.0,0.0,0.0,0.0,0.0,0.0,0.0,0.8400000000000034,1.9599999999999937,1.0,0.0,0.0,0.0,0.0,0.009999999999990905,0.0,0.0,0.0,0.0,0.0,0.12000000000000455,0.0,0.3200000000000003,0.3400000000000034,0.0,0.0,21.0,0.0,0.0,0.0,0.0,0.21999999999999886,0.0,0.0,0.060000000000002274,0.4900000000000091,0.0,0.0,0.0,0.14000000000000057,0.0,0.0,0.0,0.0,0.0,0.0,0.0,0.0,0.0,0.0,0.11000000000001364,1.9199999999999875,0.0,0.9900000000000091,0.0,0.01999999999999602,0.20999999999999375,0.0,21.0,0.0,0.0,0.0,1.9399999999999977,0.0,0.0,0.030000000000001137,0.0,0.0,0.0,0.0,0.0,0.0,0.29999999999999716,0.0,0.0,0.0,0.0,0.0,0.660000000000025,0.0,0.28000000000000114,0.0,0.0,8.909999999999997,0.020000000000010232,0.0,0.0,0.0,0.0,0.0,0.01999999999999602,0.0,0.0,0.0,0.0,0.22999999999998977,0.0,0.0,0.0,1.960000000000008,0.0,0.0,0.03999999999999915,0.0,13.86,0.0,0.0,0.0,1.980000000000004,4.680000000000007,0.0
2026-07-21T15:32:20.642,0.144,0.0,0.0,0.010000000000005116,0.0,0.0,0.0,0.0,0.0,0.0,0.0,0.0,0.0,0.0,0.0,0.0,0.0,0.0,0.7700000000000102,0.0,0.0,0.0,0.0,0.0,0.0,0.0,0.0,9.009999999999991,0.0,1.980000000000004,0.0,0.0,0.0,0.0,0.18000000000000682,0.0,2.7900000000000063,0.0,0.0,0.0,0.0,0.0,0.0,3.1100000000000136,0.0,0.0,0.0,0.0,0.03999999999999204,0.0,0.0,0.0,0.0,0.0,0.0,0.0,0.0,0.0,0.0,1.960000000000008,0.18999999999999773,0.25,0.0,0.0,0.8400000000000034,0.0,0.0,0.0,0.0,0.0,0.0,0.0,0.0,0.0,0.0,0.010000000000005116,0.0,1.4399999999999977,0.14000000000000057,0.0,0.0,0.0,0.0,0.0,0.0,0.0,0.0,0.0,0.0,0.0,0.0,0.0,0.20000000000000284,8.700000000000003,0.060000000000002274,0.25,0.0,0.0,0.0,0.0,0.0,0.0,0.0,0.0,0.0,0.01999999999999602,0.0,0.12000000000000455,0.0,0.0,0.01999999999999602,0.0,0.0,0.0,0.0,0.0,0.0,0.0,0.0,0.0,0.0,0.0,0.0,23.659999999999997,0.0,0.0,0.04999999999999716,0.0,0.0,0.0,0.0,0.0,1.1200000000000045,6.280000000000001,0.0,0.0,0.0,0.0,0.0,0.9900000000000091,0.9899999999999949,0.0,0.0,0.0,1.660000000000025,0.0,0.0,0.0,0.0,0.0,0.0,0.0,0.0,0.8400000000000034,0.0,1.0,0.0,0.0,0.0,0.0,0.009999999999990905,0.0,0.0,0.0,0.0,0.0,0.12000000000000455,0.0,0.0,0.3400000000000034,0.0,0.0,21.0,0.0,0.0,0.0,0.0,0.21999999999999886,0.0,0.0,0.060000000000002274,0.4900000000000091,0.0,0.0,0.0,0.14000000000000057,0.0,0.0,0.0,0.0,0.0,0.0,0.0,0.0,0.0,0.0,0.11000000000001364,1.9199999999999875,1.9399999999999977,0.9900000000000091,0.0,0.01999999999999602,0.20999999999999375,0.0,21.0,0.0,0.0,0.0,1.9399999999999977,0.0,0.0,0.030000000000001137,0.0,0.0,0.0,0.0,0.0,0.0,0.29999999999999716,0.0,0.0,0.0,0.0,0.0,0.660000000000025,0.0,0.28000000000000114,0.0,0.0,8.909999999999997,0.020000000000010232,0.0,0.0,0.0,0.0,28.0,0.01999999999999602,0.0,0.0,0.0,0.0,0.22999999999998977,0.0,0.0,0.0,1.960000000000008,0.0,0.0,0.03999999999999915,0.0,0.0,0.0,0.0,0.0,1.980000000000004,0.0,0.0
2026-07-21T15:32:20.642,0.144,0.0,0.0,0.010000000000005116,0.0,0.0,0.0,0.0,0.0,0.0,0.0,0.0,0.0,0.0,0.0,0.0,0.0,0.0,0.7700000000000102,0.0,0.0,0.0,0.0,0.0,0.0,0.0,0.0,9.009999999999991,0.0,1.980000000000004,11.879999999999995,0.0,0.0,0.0,0.18000000000000682,0.0,2.7900000000000063,0.0,0.0,0.0,0.0,0.0,0.0,3.1100000000000136,0.0,0.0,0.0,0.0,0.03999999999999204,0.0,0.0,0.0,0.0,0.0,0.0,0.0,0.0,0.0,0.0,1.960000000000008,2.1899999999999977,0.25,0.0,0.20999999999999375,0.8400000000000034,0.0,0.0,0.0,0.0,0.0,0.0,0.0,0.0,0.0,0.0,0.010000000000005116,0.0,1.4399999999999977,0.14000000000000057,0.0,0.0,0.0,0.0,0.0,0.0,0.0,0.0,0.0,0.0,0.0,0.0,0.0,0.20000000000000284,0.0,0.060000000000002274,0.25,0.0,0.0,0.0,0.0,0.0,0.0,0.0,0.030000000000001137,0.0,0.01999999999999602,0.0,0.12000000000000455,0.0,0.0,0.01999999999999602,0.0,0.0,0.0,0.0,0.0,0.0,0.0,0.0,0.0,0.0,0.04000000000000625,0.0,23.659999999999997,0.0,0.0,0.04999999999999716,0.0,0.0,0.0,0.0,0.0,1.1200000000000045,6.280000000000001,0.0,0.0,0.0,0.0,2.0,0.9900000000000091,0.9899999999999949,0.0,0.0,0.0,1.660000000000025,0.0,0.0,0.0,0.0,0.0,0.0,0.0,0.0,0.8400000000000034,0.0,1.0,0.0,0.0,0.0,0.0,0.009999999999990905,0.0,0.0,0.0,0.0,0.0,0.12000000000000455,0.0,0.3200000000000003,0.3400000000000034,0.0,0.0,21.0,0.0,0.0,0.0,0.0,0.21999999999999886,0.0,0.0,0.060000000000002274,0.4900000000000091,0.0,0.0,0.0,0.14000000000000057,0.0,0.0,0.0,0.0,0.0,0.0,0.0,0.0,0.0,0.0,0.11000000000001364,1.9199999999999875,0.0,0.9900000000000091,0.0,0.01999999999999602,0.20999999999999375,0.0,21.0,0.0,0.0,0.0,1.9399999999999977,0.0,0.0,0.030000000000001137,0.0,0.0,0.0,0.0,0.0,0.0,0.29999999999999716,0.0,0.0,0.0,0.0,0.0,0.660000000000025,0.0,0.28000000000000114,0.0,0.0,8.909999999999997,0.020000000000010232,0.0,0.0,0.0,0.0,0.0,0.01999999999999602,0.0,0.9599999999999937,0.0,0.0,0.22999999999998977,0.0,0.0,0.0,1.960000000000008,0.0,0.0,0.03999999999999915,0.0,0.0,0.0,1.9599999999999937,0.0,1.980000000000004,0.0,0.0
2026-07-21T15:32:20.642,0.144,0.0,0.0,0.010000000000005116,0.0,0.0,0.0,0.0,0.0,0.0,0.0,0.0,0.0,0.0,0.0,0.0,0.0,0.0,0.7700000000000102,0.0,0.0,0.0,0.0,0.0,0.0,0.0,0.0,9.009999999999991,0.0,1.980000000000004,0.0,0.0,0.0,63.05000000000001,0.18000000000000682,0.0,2.7900000000000063,0.0,0.0,0.0,0.0,0.0,0.0,3.1100000000000136,0.0,0.0,0.0,0.0,0.03999999999999204,0.0,0.0,0.0,0.0,0.0,0.0,0.0,0.0,0.0,0.0,1.960000000000008,0.18999999999999773,0.25,0.0,0.0,0.0,0.0,0.0,0.0,0.0,0.0,0.0,0.0,0.0,0.0,0.0,0.010000000000005116,0.0,1.4399999999999977,0.14000000000000057,0.0,0.0,0.0,0.0,0.0,0.0,0.0,0.0,0.0,0.0,0.0,0.0,0.0,0.20000000000000284,8.700000000000003,0.060000000000002274,0.25,0.0,0.0,0.0,0.0,0.0,0.0,0.0,0.0,0.0,0.01999999999999602,0.0,0.12000000000000455,0.0,0.0,0.01999999999999602,0.0,0.0,0.0,0.0,0.0,0.0,0.0,0.0,0.0,0.0,0.04000000000000625,0.0,23.659999999999997,0.0,0.0,0.04999999999999716,0.0,0.0,0.0,0.0,0.0,1.1200000000000045,6.280000000000001,0.0,0.0,0.0,0.0,0.0,0.9900000000000091,0.9899999999999949,0.0,0.0,0.0,1.660000000000025,0.0,0.0,0.0,0.0,0.0,0.0,0.0,0.0,0.8400000000000034,0.0,1.0,0.0,0.0,0.0,0.0,0.009999999999990905,0.0,0.0,0.0,0.0,0.0,0.12000000000000455,0.0,0.3200000000000003,0.3400000000000034,0.0,0.0,21.0,0.0,0.0,0.0,8.139999999999986,0.21999999999999886,0.0,0.0,0.060000000000002274,0.4900000000000091,0.0,0.0,0.0,0.14000000000000057,0.0,0.0,0.0,0.0,0.9699999999999989,0.0,0.0,0.0,0.0,0.0,0.11000000000001364,1.9199999999999875,0.0,0.9900000000000091,0.0,0.01999999999999602,0.20999999999999375,0.0,21.0,0.0,0.0,0.0,1.9399999999999977,0.0,0.0,0.030000000000001137,0.0,0.0,0.0,0.0,0.0,0.0,0.29999999999999716,0.0,0.0,0.0,0.0,0.0,0.660000000000025,0.0,0.28000000000000114,0.0,0.0,8.909999999999997,0.020000000000010232,0.0,0.0,0.0,0.0,0.0,0.01999999999999602,0.0,0.9599999999999937,0.0,0.0,0.22999999999998977,0.0,0.0,0.0,1.960000000000008,0.0,0.0,0.03999999999999915,0.0,0.0,0.0,0.0,0.0,1.980000000000004,0.0,0.0
2026-07-21T15:32:20.642,0.144,0.0,0.0,0.010000000000005116,0.0,0.0,0.0,0.0,0.0,0.0,0.0,0.0,0.0,0.0,0.0,0.0,0.0,0.0,0.7700000000000102,0.0,0.0,0.0,0.0,0.0,11.700000000000003,0.0,0.0,9.009999999999991,0.0,1.980000000000004,0.0,0.0,0.0,0.0,0.18000000000000682,0.0,2.7900000000000063,0.0,0.0,0.0,0.0,0.0,0.0,3.1100000000000136,0.0,0.0,0.0,0.0,0.03999999999999204,0.0,0.0,0.0,0.0,0.0,0.0,0.0,0.0,0.0,0.0,1.960000000000008,0.18999999999999773,0.25,0.0,0.20999999999999375,0.8400000000000034,0.0,0.0,0.0,0.0,0.0,0.0,0.0,0.0,0.0,0.0,0.010000000000005116,0.0,1.4399999999999977,0.14000000000000057,0.0,0.0,0.0,0.0,0.0,0.0,0.0,0.0,0.0,0.0,0.0,0.0,0.0,0.20000000000000284,8.700000000000003,0.060000000000002274,0.25,0.0,0.0,0.0,0.0,0.0,0.0,0.0,0.0,0.0,0.01999999999999602,0.0,0.12000000000000455,0.0,0.0,0.01999999999999602,0.0,0.0,0.0,0.0,0.0,0.0,0.0,0.0,0.0,0.0,0.04000000000000625,0.0,23.659999999999997,0.0,0.0,0.04999999999999716,0.0,0.0,0.0,0.0,0.0,1.1200000000000045,0.0,0.0,0.0,0.0,0.0,0.0,0.9900000000000091,0.9899999999999949,0.0,0.0,0.0,1.660000000000025,0.0,0.0,0.0,0.0,0.0,0.0,0.0,0.0,0.8400000000000034,0.0,1.0,0.0,0.0,0.0,0.0,0.009999999999990905,0.0,0.0,0.0,0.0,0.0,0.12000000000000455,0.0,0.3200000000000003,0.3400000000000034,0.0,0.0,21.0,0.0,0.0,0.0,8.139999999999986,0.21999999999999886,0.0,0.0,0.060000000000002274,0.4900000000000091,0.0,0.0,0.0,0.14000000000000057,0.0,0.0,0.0,0.0,0.9699999999999989,0.0,0.0,0.0,0.0,0.0,0.11000000000001364,1.9199999999999875,1.9399999999999977,0.9900000000000091,0.0,0.01999999999999602,0.20999999999999375,0.0,0.0,0.0,0.0,0.0,1.9399999999999977,0.0,0.0,0.030000000000001137,0.0,0.0,0.0,0.0,0.0,0.0,0.29999999999999716,0.0,0.0,0.0,0.0,0.0,0.660000000000025,0.0,0.28000000000000114,0.0,0.0,8.909999999999997,0.020000000000010232,0.0,0.0,0.0,0.0,0.0,0.01999999999999602,0.0,0.9599999999999937,0.0,0.0,0.22999999999998977,0.0,0.0,0.0,1.960000000000008,0.0,0.0,0.03999999999999915,0.0,0.0,0.0,1.9599999999999937,0.0,1.980000000000004,0.0,0.0
2026-07-21T15:32:20.642,0.144,0.0,0.0,0.010000000000005116,0.0,0.0,0.0,0.0,0.0,0.0,0.0,0.0,0.0,0.0,0.0,0.0,0.0,0.0,0.7700000000000102,0.0,0.0,0.0,0.0,0.0,0.0,0.0,0.0,9.009999999999991,0.0,1.980000000000004,0.0,0.0,0.0,0.0,0.18000000000000682,0.0,2.7900000000000063,0.0,0.0,0.0,0.0,0.0,0.0,3.1100000000000136,0.0,0.0,0.0,0.0,0.03999999999999204,0.0,0.0,0.0,0.0,0.0,0.0,0.0,0.0,0.0,0.0,1.960000000000008,0.18999999999999773,0.25,0.0,0.0,0.8400000000000034,0.0,0.0,0.0,0.0,0.0,0.0,0.0,0.0,0.0,0.0,0.010000000000005116,0.0,1.4399999999999977,0.14000000000000057,0.0,0.0,0.0,0.0,0.0,0.0,0.0,0.0,0.0,0.0,0.0,0.0,0.0,0.20000000000000284,8.700000000000003,0.060000000000002274,0.25,0.0,0.0,0.0,0.0,0.0,0.0,0.0,0.0,0.0,0.01999999999999602,0.0,0.12000000000000455,0.0,0.0,0.01999999999999602,0.0,0.0,0.0,0.0,0.0,0.0,0.0,0.0,0.0,0.0,0.0,0.0,23.659999999999997,0.0,0.0,0.04999999999999716,0.0,0.0,0.0,0.0,0.0,1.1200000000000045,6.280000000000001,0.0,0.0,0.0,0.0,0.0,0.9900000000000091,0.9899999999999949,0.0,0.0,0.0,1.660000000000025,0.0,0.0,0.0,0.0,0.0,0.0,0.0,0.0,0.8400000000000034,0.0,1.0,0.0,0.0,0.0,0.0,0.009999999999990905,0.0,0.0,0.0,0.0,0.0,0.12000000000000455,0.0,0.3200000000000003,0.3400000000000034,0.0,0.0,21.0,0.0,0.0,0.0,8.139999999999986,0.21999999999999886,0.0,0.0,0.060000000000002274,0.4900000000000091,0.0,0.0,0.0,0.14000000000000057,0.0,0.0,0.0,0.0,0.9699999999999989,0.0,0.0,0.0,0.0,0.0,0.11000000000001364,1.9199999999999875,1.9399999999999977,0.9900000000000091,0.0,0.01999999999999602,0.20999999999999375,0.0,21.0,0.0,0.0,0.0,1.9399999999999977,0.0,0.0,0.030000000000001137,0.0,0.0,0.0,0.0,0.0,0.0,0.29999999999999716,0.0,0.0,0.0,0.0,0.0,0.660000000000025,0.0,0.28000000000000114,0.0,4.560000000000002,8.909999999999997,0.020000000000010232,0.0,0.0,0.0,0.0,0.0,0.01999999999999602,0.0,0.9599999999999937,0.0,0.0,0.22999999999998977,0.0,0.0,0.0,1.960000000000008,0.0,0.0,0.03999999999999915,0.0,0.0,0.0,1.9599999999999937,0.0,0.0,0.0,0.0
2026-07-21T15:32:20.642,0.144,0.0,0.0,0.010000000000005116,0.0,0.0,0.0,0.0,0.0,0.0,0.0,0.0,0.0,0.0,0.0,0.0,0.0,0.0,0.7700000000000102,0.0,0.0,0.0,0.0,0.0,0.0,0.0,0.0,9.009999999999991,0.0,1.980000000000004,11.879999999999995,0.0,0.0,0.0,0.18000000000000682,0.0,2.7900000000000063,0.0,0.0,0.0,0.0,0.0,0.0,1.1100000000000136,0.0,0.0,0.0,0.0,0.03999999999999204,0.0,0.0,0.0,0.0,0.0,0.0,0.0,0.0,0.0,0.0,1.960000000000008,0.18999999999999773,0.25,0.0,0.0,0.8400000000000034,0.0,0.0,0.0,0.0,0.0,0.0,0.0,0.0,0.0,0.0,0.010000000000005116,0.0,1.4399999999999977,0.14000000000000057,0.0,0.0,0.0,0.0,0.0,0.0,0.0,0.0,0.0,0.0,0.0,0.0,0.0,0.20000000000000284,10.700000000000003,0.060000000000002274,0.25,0.0,0.0,0.0,0.0,0.0,0.0,0.0,0.0,0.0,0.01999999999999602,0.0,0.12000000000000455,0.0,0.0,0.01999999999999602,0.0,0.0,0.0,0.0,0.0,0.0,0.0,0.0,0.0,0.0,0.04000000000000625,0.0,23.659999999999997,0.0,0.0,0.04999999999999716,0.0,0.0,0.0,0.0,0.0,1.1200000000000045,6.280000000000001,0.0,0.0,0.0,0.0,2.0,0.9900000000000091,0.9899999999999949,0.0,0.0,0.0,1.660000000000025,0.0,0.0,0.0,0.0,0.0,0.0,0.0,0.0,0.8400000000000034,0.0,1.0,0.0,0.0,0.0,0.0,0.009999999999990905,0.0,0.0,0.0,0.0,0.0,0.12000000000000455,0.0,0.0,0.3400000000000034,0.0,0.0,21.0,0.0,0.0,0.0,0.0,0.21999999999999886,0.0,0.0,0.060000000000002274,0.4900000000000091,0.0,0.0,0.0,0.14000000000000057,0.0,0.0,0.0,0.0,0.9699999999999989,0.0,0.0,0.0,0.0,0.0,0.11000000000001364,1.9199999999999875,1.9399999999999977,0.9900000000000091,0.0,0.01999999999999602,0.20999999999999375,0.0,21.0,0.0,0.0,0.0,1.9399999999999977,0.0,0.0,0.030000000000001137,0.0,0.0,0.0,0.0,0.0,0.0,0.29999999999999716,0.0,0.0,0.0,0.0,0.0,0.660000000000025,0.0,0.28000000000000114,0.0,0.0,8.909999999999997,0.020000000000010232,0.0,0.0,0.0,0.0,0.0,0.01999999999999602,0.0,0.9599999999999937,0.0,0.0,0.22999999999998977,0.0,0.0,0.0,1.960000000000008,0.0,0.0,0.03999999999999915,0.0,0.0,0.0,1.9599999999999937,0.0,1.980000000000004,0.0,0.0
2026-07-21T15:32:20.642,0.144,0.0,0.0,0.010000000000005116,0.0,0.0,0.0,0.0,0.0,0.0,0.0,0.0,0.0,0.0,0.0,0.0,0.0,0.0,0.7700000000000102,0.0,0.0,0.0,0.0,0.0,0.0,0.0,0.0,9.009999999999991,0.0,1.980000000000004,0.0,0.0,1.8899999999999864,0.0,0.18000000000000682,0.0,2.7900000000000063,0.0,0.0,0.0,0.0,0.0,0.0,3.1100000000000136,0.0,0.0,0.0,0.0,0.03999999999999204,0.0,0.0,0.0,0.0,0.0,0.0,0.0,0.0,0.0,0.0,1.960000000000008,2.1899999999999977,0.25,0.0,0.0,0.8400000000000034,0.0,0.0,0.0,0.0,0.0,0.0,0.0,0.0,0.0,0.0,0.010000000000005116,0.0,1.4399999999999977,0.14000000000000057,0.0,0.0,0.0,0.0,0.0,0.0,0.0,0.0,0.0,0.0,0.0,0.0,0.0,0.20000000000000284,8.700000000000003,0.060000000000002274,0.25,0.0,0.0,0.0,0.0,0.0,0.020000000000010232,0.0,0.0,0.0,0.01999999999999602,0.0,0.12000000000000455,0.0,0.0,0.01999999999999602,0.0,0.0,0.0,0.0,0.0,0.0,0.0,0.0,0.0,0.0,0.04000000000000625,0.0,23.659999999999997,0.0,0.0,0.04999999999999716,0.0,0.0,0.0,0.0,0.0,1.1200000000000045,0.0,0.0,0.0,0.0,0.0,0.0,0.9900000000000091,0.9899999999999949,0.0,0.0,0.0,1.660000000000025,0.0,9.0,0.0,0.0,0.0,0.0,0.0,0.0,0.8400000000000034,1.9599999999999937,1.0,0.0,0.0,0.0,0.0,0.009999999999990905,0.0,0.0,0.0,0.0,0.0,0.12000000000000455,0.0,0.0,0.3400000000000034,0.0,0.0,21.0,0.0,0.0,0.0,8.139999999999986,0.21999999999999886,0.0,0.0,0.060000000000002274,0.4900000000000091,0.0,0.0,0.0,0.14000000000000057,0.0,0.0,0.0,0.0,0.0,0.0,0.0,0.0,0.0,0.0,0.11000000000001364,1.9199999999999875,0.0,0.9900000000000091,0.0,0.01999999999999602,0.20999999999999375,0.0,21.0,0.0,0.0,0.0,1.9399999999999977,0.0,0.0,0.030000000000001137,0.0,0.0,0.0,0.0,0.0,0.0,0.29999999999999716,0.0,0.0,0.0,0.0,0.0,0.660000000000025,0.0,0.28000000000000114,0.0,0.0,8.909999999999997,0.020000000000010232,0.0,0.0,0.0,0.0,28.0,0.01999999999999602,0.0,0.9599999999999937,0.0,0.0,0.22999999999998977,0.0,0.0,0.0,0.0,0.0,0.0,0.03999999999999915,0.0,0.0,0.0,0.0,0.0,0.0,0.0,0.0
2026-07-21T15:32:20.653,0.155,0.0,0.0,0.010000000000005116,0.0,0.0,0.0,0.0,0.0,0.0,0.0,0.0,0.0,0.0,0.0,0.0,0.0,0.0,0.7700000000000102,0.0,0.0,0.0,0.0,0.0,0.0,0.0,0.0,9.009999999999991,0.0,1.980000000000004,11.879999999999995,0.0,0.0,0.0,0.18000000000000682,0.0,0.0,0.0,0.0,0.0,0.0,0.0,0.0,3.1100000000000136,0.0,0.0,0.0,0.0,0.03999999999999204,0.0,0.0,0.0,0.0,0.0,0.0,0.0,0.0,0.0,0.0,1.960000000000008,0.18999999999999773,0.25,0.0,0.0,0.8400000000000034,0.0,0.0,0.0,0.0,0.0,0.0,0.0,0.0,0.0,0.0,0.010000000000005116,0.0,1.4399999999999977,0.14000000000000057,0.0,0.0,0.0,0.0,0.0,0.0,0.0,0.0,0.0,0.0,0.0,0.0,0.0,0.20000000000000284,8.700000000000003,0.060000000000002274,3.25,0.0,0.0,0.0,0.0,0.0,0.0,0.0,0.0,0.0,0.01999999999999602,0.0,0.12000000000000455,0.0,0.0,0.01999999999999602,0.0,0.0,0.0,0.0,0.0,0.0,0.0,0.0,0.0,0.0,0.0,0.0,23.659999999999997,0.0,0.0,0.04999999999999716,0.0,0.0,0.0,0.0,0.0,1.1200000000000045,0.0,0.0,0.0,0.0,0.0,2.0,0.9900000000000091,0.9899999999999949,0.0,0.0,0.0,1.660000000000025,0.0,0.0,0.0,0.0,0.0,0.0,0.0,0.0,0.8400000000000034,0.0,1.0,0.0,0.0,0.0,0.0,0.009999999999990905,0.0,0.0,0.0,0.0,0.0,0.12000000000000455,0.0,0.3200000000000003,0.3400000000000034,1.0,0.0,21.0,0.0,0.0,0.0,8.139999999999986,0.21999999999999886,0.0,0.0,0.060000000000002274,0.4900000000000091,0.0,0.0,0.0,0.14000000000000057,0.0,0.0,0.0,0.0,0.9699999999999989,0.0,0.0,0.0,0.0,0.0,0.11000000000001364,1.9199999999999875,0.0,0.9900000000000091,0.0,0.01999999999999602,0.20999999999999375,0.0,0.0,0.0,0.0,0.0,0.0,0.0,0.0,0.030000000000001137,0.0,0.0,0.0,0.0,0.0,0.0,0.29999999999999716,0.0,0.0,0.0,0.0,0.0,0.660000000000025,0.0,0.28000000000000114,0.0,0.0,8.909999999999997,0.020000000000010232,0.0,0.0,0.0,0.0,0.0,0.01999999999999602,0.0,0.9599999999999937,0.0,0.0,0.22999999999998977,0.0,0.0,0.0,1.960000000000008,0.0,0.0,0.03999999999999915,0.0,0.0,0.0,0.0,0.0,1.980000000000004,0.0,0.0
2026-07-21T15:32:20.653,0.155,0.0,0.0,0.010000000000005116,0.0,0.0,0.0,0.0,0.0,0.0,0.0,0.0,0.0,0.0,0.0,0.0,0.0,0.0,0.7700000000000102,0.0,0.0,0.0,0.0,0.0,0.0,0.0,0.0,9.009999999999991,0.0,1.980000000000004,11.879999999999995,0.0,2.8899999999999864,0.0,0.18000000000000682,0.0,2.7900000000000063,0.0,0.0,0.0,0.0,0.0,0.0,3.1100000000000136,0.0,0.0,0.0,0.0,0.03999999999999204,0.0,0.0,0.0,0.0,0.0,0.0,0.0,0.0,0.0,0.0,1.960000000000008,0.18999999999999773,0.25,0.0,0.20999999999999375,0.8400000000000034,0.0,0.0,0.0,0.0,0.0,0.0,0.0,0.0,0.0,0.0,0.010000000000005116,0.0,1.4399999999999977,0.14000000000000057,0.0,0.0,0.0,0.0,0.0,0.0,0.0,0.0,0.0,0.0,0.0,0.0,0.0,0.20000000000000284,8.700000000000003,0.060000000000002274,0.25,0.0,0.0,0.0,0.0,0.0,0.0,0.0,0.0,0.0,0.01999999999999602,0.0,0.12000000000000455,0.0,0.0,0.01999999999999602,0.0,0.0,0.0,0.0,0.0,0.0,0.0,0.0,0.0,0.0,0.04000000000000625,0.0,23.659999999999997,0.0,0.0,0.04999999999999716,0.0,0.0,0.0,0.0,0.0,1.1200000000000045,0.0,0.0,0.0,0.0,0.0,0.0,0.9900000000000091,0.9899999999999949,0.0,0.0,0.0,1.660000000000025,0.0,0.0,0.0,0.0,0.0,0.0,0.0,0.0,0.8400000000000034,0.0,1.0,0.0,0.0,0.0,0.0,0.009999999999990905,0.0,0.0,0.0,0.0,0.0,0.12000000000000455,0.0,0.3200000000000003,0.3400000000000034,0.0,0.0,21.0,0.0,0.0,0.0,8.139999999999986,3.219999999999999,0.0,0.0,0.060000000000002274,0.4900000000000091,0.0,0.0,0.0,0.14000000000000057,1.980000000000004,0.0,0.0,0.0,0.9699999999999989,0.0,0.0,0.0,0.0,0.0,0.11000000000001364,1.9199999999999875,0.0,0.9900000000000091,0.0,0.01999999999999602,0.20999999999999375,0.0,21.0,0.0,0.0,0.0,1.9399999999999977,0.0,0.0,0.030000000000001137,0.0,0.0,0.0,0.0,0.0,0.0,0.29999999999999716,0.0,0.0,0.0,0.0,0.0,0.660000000000025,0.0,0.28000000000000114,0.0,0.0,8.909999999999997,0.020000000000010232,0.0,0.0,0.0,0.0,0.0,0.01999999999999602,0.0,0.0,0.0,0.0,0.22999999999998977,0.0,0.0,0.0,1.960000000000008,0.0,0.0,0.03999999999999915,0.0,0.0,0.0,1.9599999999999937,0.0,0.0,0.0,0.0
2026-07-21T15:32:20.653,0.155,0.0,0.0,0.010000000000005116,0.0,0.0,0.0,0.0,0.0,0.0,0.0,0.0,0.0,0.0,0.0,0.0,0.0,0.0,0.7700000000000102,0.0,0.0,0.0,0.0,0.0,0.0,0.0,0.0,9.009999999999991,0.0,0.0,0.0,0.0,0.0,0.0,0.18000000000000682,0.0,2.7900000000000063,0.0,0.0,0.0,0.0,0.0,0.0,3.1100000000000136,0.0,0.0,0.0,0.0,0.03999999999999204,0.0,0.0,0.0,0.0,0.0,0.0,0.0,0.0,0.0,0.0,1.960000000000008,0.18999999999999773,0.25,0.0,0.20999999999999375,0.8400000000000034,0.0,0.0,0.0,0.0,0.0,0.0,0.0,0.0,0.0,0.0,0.010000000000005116,0.0,1.4399999999999977,0.14000000000000057,0.0,0.0,0.0,0.0,0.0,0.0,0.0,0.0,0.0,0.0,0.0,0.0,0.0,0.20000000000000284,8.700000000000003,0.060000000000002274,0.25,0.0,0.0,0.0,0.0,0.0,0.0,0.0,0.0,0.0,0.01999999999999602,0.0,0.12000000000000455,0.0,0.0,0.01999999999999602,0.0,0.0,0.0,0.0,0.0,0.0,0.0,0.0,0.0,0.0,0.0,0.0,23.659999999999997,0.0,0.0,0.04999999999999716,0.0,0.0,0.0,0.0,0.0,1.1200000000000045,6.280000000000001,0.0,0.0,0.0,0.0,0.0,0.9900000000000091,0.9899999999999949,0.0,0.0,0.0,1.660000000000025,0.0,0.0,0.0,0.0,0.0,0.0,0.0,0.0,0.8400000000000034,0.0,1.0,0.0,0.0,0.0,0.0,0.009999999999990905,0.0,0.0,0.0,0.0,0.0,0.12000000000000455,0.0,0.3200000000000003,0.3400000000000034,0.0,0.0,21.0,0.0,0.0,0.0,0.0,0.21999999999999886,0.0,0.0,0.060000000000002274,0.4900000000000091,0.0,0.0,0.0,0.14000000000000057,0.0,0.0,0.0,0.0,0.9699999999999989,0.0,1.990000000000009,0.0,0.0,0.0,0.11000000000001364,1.9199999999999875,1.9399999999999977,0.9900000000000091,0.0,0.01999999999999602,0.20999999999999375,0.0,21.0,0.0,0.0,0.0,1.9399999999999977,0.0,0.0,0.030000000000001137,0.0,0.0,0.0,0.0,0.0,0.0,0.29999999999999716,0.0,0.0,0.0,0.0,0.0,0.660000000000025,0.0,0.28000000000000114,0.0,0.0,8.909999999999997,0.020000000000010232,0.0,0.0,0.0,0.0,0.0,0.01999999999999602,0.0,0.9599999999999937,0.0,0.0,0.22999999999998977,0.0,0.0,0.0,1.960000000000008,0.0,0.0,0.03999999999999915,0.0,0.0,0.0,1.9599999999999937,0.0,0.0,0.0,0.0
2026-07-21T15:32:20.653,0.155,0.0,0.0,0.010000000000005116,0.0,0.0,0.0,0.0,0.0,0.0,0.0,0.0,0.0,0.0,0.0,0.0,0.0,0.0,0.0,0.0,0.0,0.0,0.0,0.0,0.0,0.0,0.0,9.009999999999991,0.0,1.980000000000004,0.0,0.0,0.0,63.05000000000001,0.18000000000000682,0.0,0.0,0.0,0.0,0.0,0.0,0.0,0.0,3.1100000000000136,0.0,0.0,0.0,0.0,0.03999999999999204,0.0,0.0,0.0,0.0,0.0,0.0,0.0,0.0,0.0,0.0,1.960000000000008,0.18999999999999773,0.25,0.0,0.20999999999999375,0.8400000000000034,0.0,0.0,0.0,0.0,0.0,0.0,0.0,0.0,0.0,0.0,0.010000000000005116,0.0,1.4399999999999977,0.14000000000000057,0.0,0.0,0.0,0.0,0.0,0.0,0.0,0.0,0.0,0.0,0.0,0.0,0.0,0.20000000000000284,8.700000000000003,0.060000000000002274,0.25,0.0,0.0,0.0,0.0,0.0,0.0,0.0,0.0,0.0,0.01999999999999602,0.0,0.12000000000000455,0.0,0.0,0.01999999999999602,0.0,0.0,0.0,0.0,0.0,0.0,0.0,0.0,0.0,0.0,0.04000000000000625,0.0,23.659999999999997,0.0,0.0,0.04999999999999716,0.0,0.0,0.0,0.0,0.0,1.1200000000000045,0.0,0.0,0.0,0.0,0.0,2.0,13.990000000000009,0.9899999999999949,0.0,0.0,0.0,1.660000000000025,0.0,0.0,0.0,0.0,0.0,0.0,0.0,0.0,0.8400000000000034,0.0,1.0,0.0,0.0,0.0,0.0,0.009999999999990905,0.0,0.0,0.0,0.0,0.0,0.12000000000000455,0.0,0.3200000000000003,0.3400000000000034,0.0,0.0,21.0,0.0,0.0,0.0,0.0,0.21999999999999886,0.0,0.0,0.060000000000002274,0.4900000000000091,0.0,0.0,0.0,0.14000000000000057,0.0,0.0,0.0,0.0,0.0,0.0,0.0,0.0,0.0,0.0,0.11000000000001364,1.9199999999999875,0.0,0.9900000000000091,0.0,0.01999999999999602,0.20999999999999375,0.0,21.0,0.0,0.0,0.0,1.9399999999999977,0.0,0.0,0.030000000000001137,0.0,0.0,0.0,0.0,0.0,0.0,0.29999999999999716,0.0,0.0,0.0,0.0,0.0,0.660000000000025,0.0,0.28000000000000114,0.0,4.560000000000002,8.909999999999997,0.020000000000010232,0.0,0.0,0.0,0.0,0.0,0.01999999999999602,0.0,0.9599999999999937,0.0,0.0,0.22999999999998977,0.0,0.0,0.0,1.960000000000008,0.0,0.0,0.03999999999999915,0.0,0.0,0.0,1.9599999999999937,0.0,1.980000000000004,0.0,0.0
2026-07-21T15:32:20.653,0.155,0.0,0.0,0.010000000000005116,0.0,0.0,0.0,0.0,0.0,0.0,0.0,0.0,0.0,0.0,0.0,0.0,0.0,0.0,0.7700000000000102,0.0,0.0,0.0,0.0,0.0,0.0,0.0,0.0,9.009999999999991,0.0,1.980000000000004,0.0,0.0,0.0,0.0,0.18000000000000682,0.0,0.0,0.0,0.0,0.0,0.0,0.0,0.0,3.1100000000000136,0.0,0.0,0.0,0.0,0.03999999999999204,0.0,0.0,0.0,0.0,0.0,0.0,0.0,0.0,0.0,0.0,1.960000000000008,0.18999999999999773,0.25,0.0,0.20999999999999375,0.8400000000000034,0.0,0.0,0.0,0.0,0.0,0.0,0.0,0.0,0.0,0.0,0.010000000000005116,0.0,1.4399999999999977,0.14000000000000057,0.0,0.0,0.0,0.0,0.0,0.0,0.0,0.0,0.0,0.0,0.0,0.0,0.0,0.20000000000000284,8.700000000000003,0.060000000000002274,0.25,0.0,0.0,0.0,0.0,0.0,0.0,0.0,0.0,0.0,0.01999999999999602,0.0,0.12000000000000455,0.0,0.0,0.01999999999999602,0.0,0.0,0.0,0.0,0.0,0.0,0.0,0.0,0.0,0.0,0.04000000000000625,0.0,23.659999999999997,0.0,0.0,0.04999999999999716,0.0,0.0,0.0,0.0,0.0,1.1200000000000045,0.0,0.0,0.0,0.0,0.0,0.0,0.9900000000000091,0.9899999999999949,0.0,0.0,0.0,1.660000000000025,0.0,0.0,0.0,0.0,0.0,0.0,0.0,0.0,0.8400000000000034,0.0,1.0,0.0,0.0,12.0,0.0,0.009999999999990905,0.0,0.0,0.0,0.0,0.0,0.12000000000000455,0.0,0.3200000000000003,0.3400000000000034,0.0,0.0,21.0,0.0,0.0,0.0,0.0,0.21999999999999886,0.0,0.0,0.060000000000002274,0.4900000000000091,0.0,0.0,0.0,0.14000000000000057,0.0,0.0,0.0,0.0,0.0,0.9699999999999989,0.0,0.0,0.0,0.0,0.11000000000001364,1.9199999999999875,1.9399999999999977,0.9900000000000091,0.0,0.01999999999999602,0.20999999999999375,0.0,21.0,0.0,0.0,0.0,1.9399999999999977,0.0,0.0,0.030000000000001137,0.0,0.0,0.0,0.0,0.0,0.0,0.29999999999999716,0.0,0.0,0.0,0.0,0.0,0.660000000000025,0.0,0.28000000000000114,0.0,4.560000000000002,0.0,0.020000000000010232,0.0,0.0,0.0,0.0,0.0,0.01999999999999602,0.0,0.9599999999999937,0.0,0.0,0.22999999999998977,0.0,0.0,0.0,0.0,0.0,0.0,0.03999999999999915,0.0,0.0,0.0,1.9599999999999937,0.0,0.0,0.0,0.0
2026-07-21T15:32:20.653,0.155,0.0,0.0,0.010000000000005116,0.0,0.0,0.0,0.0,0.0,0.0,0.0,0.0,0.0,0.0,0.0,0.0,0.0,0.0,0.7700000000000102,0.0,0.0,0.0,0.0,0.0,0.0,0.0,0.0,9.009999999999991,0.0,1.980000000000004,0.0,0.0,0.0,0.0,0.18000000000000682,0.0,2.7900000000000063,0.0,0.0,0.0,0.0,0.0,0.0,3.1100000000000136,0.0,0.0,0.0,0.0,0.03999999999999204,0.0,0.0,0.0,0.0,0.0,0.0,0.0,0.0,0.0,0.0,1.960000000000008,0.18999999999999773,0.25,0.0,0.0,0.8400000000000034,0.0,0.0,0.0,0.0,0.0,0.0,0.0,0.0,0.0,0.0,0.010000000000005116,0.0,1.4399999999999977,0.14000000000000057,0.0,0.0,0.0,0.0,0.0,0.0,0.0,0.0,0.0,0.0,0.0,0.0,0.0,0.20000000000000284,8.700000000000003,0.060000000000002274,0.25,0.0,0.0,0.0,0.0,0.0,0.0,0.0,0.0,0.0,0.01999999999999602,0.0,0.12000000000000455,0.0,0.0,0.01999999999999602,0.0,0.0,0.0,0.0,0.0,0.0,0.0,0.0,0.0,0.0,0.04000000000000625,0.0,23.659999999999997,0.0,0.0,0.04999999999999716,0.0,0.0,0.0,0.0,0.0,1.1200000000000045,6.280000000000001,0.0,0.0,0.0,0.0,0.0,0.9900000000000091,0.9899999999999949,0.0,0.0,0.0,1.660000000000025,0.0,0.0,0.0,0.0,0.0,0.0,0.0,0.0,0.8400000000000034,0.0,1.0,0.0,0.0,0.0,0.0,0.009999999999990905,0.0,0.0,0.0,0.0,0.0,0.12000000000000455,0.0,0.3200000000000003,0.3400000000000034,0.0,0.0,21.0,0.0,0.0,0.0,0.0,0.21999999999999886,0.0,0.0,0.060000000000002274,0.4900000000000091,0.0,0.0,0.0,0.14000000000000057,0.0,0.0,0.0,0.0,0.0,0.0,0.0,0.0,0.0,0.0,0.11000000000001364,1.9199999999999875,1.9399999999999977,0.9900000000000091,0.0,0.01999999999999602,0.20999999999999375,0.0,21.0,0.0,0.0,0.0,1.9399999999999977,0.0,0.0,0.030000000000001137,0.0,0.0,0.0,0.0,0.0,0.0,0.29999999999999716,0.0,0.0,0.0,0.0,0.0,0.660000000000025,0.0,0.28000000000000114,0.0,0.0,8.909999999999997,0.020000000000010232,0.0,0.0,0.0,0.0,0.0,0.01999999999999602,0.0,0.0,0.0,0.0,0.22999999999998977,0.0,0.0,0.0,0.0,0.0,0.0,0.03999999999999915,0.0,0.0,0.0,1.9599999999999937,0.0,1.980000000000004,0.0,0.0
2026-07-21T15:32:20.653,0.155,0.0,0.0,0.010000000000005116,0.0,0.0,0.0,0.0,0.0,0.0,0.0,0.0,0.0,0.0,0.0,0.0,0.0,0.0,0.7700000000000102,0.0,0.0,0.0,0.0,0.0,0.0,0.0,0.0,9.009999999999991,0.0,1.980000000000004,0.0,0.0,0.0,63.05000000000001,0.18000000000000682,0.0,0.0,0.0,0.0,0.0,0.0,0.0,0.0,3.1100000000000136,0.0,0.0,0.0,0.0,0.03999999999999204,0.0,0.0,0.0,0.0,0.0,0.0,0.0,0.0,0.0,0.0,1.960000000000008,0.18999999999999773,0.25,0.0,0.0,0.8400000000000034,0.0,0.0,0.0,0.0,0.0,0.0,0.0,0.0,0.0,0.0,0.010000000000005116,0.0,1.4399999999999977,0.14000000000000057,0.0,0.0,0.0,0.0,0.0,0.0,0.0,0.0,0.0,0.0,0.0,0.0,0.0,0.20000000000000284,8.700000000000003,0.060000000000002274,0.25,0.0,0.0,0.0,0.0,0.0,0.0,0.0,0.0,0.0,0.01999999999999602,0.0,0.12000000000000455,0.0,0.0,0.01999999999999602,0.0,0.0,0.0,0.0,0.0,0.0,0.0,0.0,0.0,0.0,0.04000000000000625,0.0,23.659999999999997,0.0,0.0,0.04999999999999716,0.0,0.0,0.0,0.0,0.0,1.1200000000000045,6.280000000000001,0.0,0.0,0.0,0.0,0.0,0.9900000000000091,0.9899999999999949,0.0,0.0,0.0,1.660000000000025,0.0,0.0,0.0,3.0,0.0,0.0,0.0,0.0,0.8400000000000034,1.9599999999999937,1.0,0.0,0.0,0.0,0.0,0.009999999999990905,0.0,0.0,0.0,0.0,0.0,0.12000000000000455,0.0,0.3200000000000003,0.3400000000000034,0.0,0.0,21.0,0.0,0.0,0.0,8.139999999999986,0.21999999999999886,0.0,0.0,0.0,0.4900000000000091,0.0,0.0,0.0,0.14000000000000057,0.0,0.0,0.0,0.0,0.0,0.0,0.0,0.0,0.0,0.0,0.11000000000001364,1.9199999999999875,0.0,0.9900000000000091,0.0,0.01999999999999602,0.20999999999999375,0.0,21.0,0.0,0.0,0.0,1.9399999999999977,0.0,0.0,0.030000000000001137,0.0,0.0,0.0,0.0,0.0,0.0,0.29999999999999716,0.0,0.0,0.0,0.0,0.0,0.660000000000025,0.0,0.28000000000000114,0.0,0.0,8.909999999999997,0.020000000000010232,0.0,0.0,0.0,0.0,0.0,0.01999999999999602,0.0,0.9599999999999937,0.0,0.0,0.22999999999998977,0.0,0.0,0.0,1.960000000000008,0.0,0.0,0.03999999999999915,0.0,0.0,0.0,1.9599999999999937,0.0,1.980000000000004,0.0,0.0
2026-07-21T15:32:20.659,0.1601,0.0,0.0,0.010000000000005116,0.0,0.0,0.0,0.0,0.0,0.0,0.0,0.0,0.0,0.0,0.0,0.0,0.0,0.0,0.7700000000000102,0.0,0.0,0.0,0.0,0.0,0.0,0.0,0.0,9.009999999999991,0.0,1.980000000000004,0.0,0.0,0.0,0.0,0.18000000000000682,0.0,2.7900000000000063,0.0,0.0,0.0,0.0,0.0,0.0,1.1100000000000136,0.0,0.0,0.0,0.0,0.03999999999999204,0.0,0.0,0.0,0.0,0.0,0.0,0.0,0.0,0.0,0.0,1.960000000000008,0.18999999999999773,0.25,0.0,0.0,0.8400000000000034,0.0,0.0,0.0,0.0,0.0,0.0,0.0,0.0,0.0,0.0,0.010000000000005116,0.0,1.4399999999999977,0.14000000000000057,0.0,0.0,0.0,0.0,0.0,0.0,0.0,0.0,0.0,0.0,0.0,0.0,0.0,0.20000000000000284,8.700000000000003,0.060000000000002274,0.25,0.0,0.0,0.0,0.0,0.0,0.0,0.0,0.0,0.0,0.01999999999999602,0.0,0.12000000000000455,0.0,0.0,0.01999999999999602,0.0,0.0,0.0,0.0,0.0,0.0,0.0,0.0,0.0,0.0,0.04000000000000625,0.0,23.659999999999997,0.0,0.0,0.04999999999999716,0.0,0.0,0.0,0.0,0.0,1.1200000000000045,6.280000000000001,0.0,0.0,0.0,0.0,0.0,0.9900000000000091,0.9899999999999949,0.0,0.0,0.0,1.660000000000025,0.0,0.0,0.0,0.0,0.0,0.0,0.0,0.0,0.8400000000000034,0.0,1.0,0.0,0.0,0.0,0.0,0.009999999999990905,0.0,0.0,0.0,0.0,0.0,0.12000000000000455,0.0,0.3200000000000003,0.3400000000000034,0.0,0.0,21.0,0.0,0.0,0.0,0.0,0.21999999999999886,0.0,0.0,0.060000000000002274,0.4900000000000091,0.0,0.0,0.0,0.14000000000000057,0.0,0.0,0.0,0.0,0.9699999999999989,0.0,0.0,0.0,0.0,0.0,0.11000000000001364,1.9199999999999875,0.0,0.9900000000000091,0.0,0.01999999999999602,0.20999999999999375,0.0,21.0,0.0,0.0,0.0,1.9399999999999977,0.0,0.0,0.030000000000001137,0.0,0.0,0.0,0.0,0.0,0.0,0.29999999999999716,0.0,0.0,0.0,0.0,0.0,0.660000000000025,0.0,0.28000000000000114,0.0,0.0,8.909999999999997,0.020000000000010232,0.0,0.0,0.0,0.0,0.0,0.01999999999999602,0.0,0.9599999999999937,0.0,0.0,0.22999999999998977,0.0,0.0,0.0,1.960000000000008,0.0,0.0,0.03999999999999915,0.0,0.0,0.0,0.0,0.0,0.0,0.0,0.0
2026-07-21T15:32:20.659,0.1607,0.0,0.0,0.010000000000005116,0.0,0.0,0.0,0.0,0.0,0.0,0.0,0.0,0.0,0.0,0.0,0.0,0.0,0.0,0.7700000000000102,0.0,0.0,0.0,0.0,0.0,0.0,0.0,0.0,9.009999999999991,0.0,1.980000000000004,0.0,0.0,0.0,0.0,0.18000000000000682,0.0,2.7900000000000063,0.0,0.0,0.0,0.0,0.0,0.0,3.1100000000000136,0.0,0.0,0.0,0.0,0.03999999999999204,0.0,0.0,0.0,0.0,0.0,0.0,0.0,0.0,0.0,0.0,1.960000000000008,0.18999999999999773,0.25,0.0,0.20999999999999375,0.8400000000000034,0.0,0.0,0.0,0.0,0.0,0.0,0.0,0.0,0.0,0.0,0.010000000000005116,0.0,1.4399999999999977,0.14000000000000057,0.0,0.0,0.0,0.0,0.0,0.0,0.0,0.0,0.0,0.0,0.0,0.0,0.0,0.20000000000000284,8.700000000000003,0.060000000000002274,0.25,0.0,0.0,0.0,0.0,0.0,0.0,0.0,0.0,0.0,0.01999999999999602,0.0,0.12000000000000455,0.0,0.0,0.01999999999999602,0.0,0.0,0.0,0.0,0.0,0.0,0.0,0.0,0.0,0.0,0.04000000000000625,0.0,23.659999999999997,0.0,0.0,0.04999999999999716,0.0,0.5600000000000023,0.0,0.0,0.0,1.1200000000000045,6.280000000000001,0.0,0.0,0.0,0.0,0.0,0.9900000000000091,0.9899999999999949,0.0,0.0,0.0,1.660000000000025,0.0,0.0,0.0,0.0,0.0,0.0,0.0,0.0,0.8400000000000034,0.0,1.0,0.0,0.0,0.0,0.0,0.009999999999990905,0.0,0.0,0.0,0.0,0.0,0.12000000000000455,0.0,0.3200000000000003,0.3400000000000034,0.0,0.0,21.0,0.0,0.0,0.0,0.0,0.21999999999999886,0.0,0.0,0.060000000000002274,0.4900000000000091,0.0,0.0,0.0,0.14000000000000057,0.0,0.0,0.0,0.0,0.9699999999999989,0.0,0.0,0.0,0.0,0.0,0.11000000000001364,1.9199999999999875,1.9399999999999977,0.9900000000000091,0.0,0.01999999999999602,0.20999999999999375,0.0,21.0,0.0,0.0,0.0,1.9399999999999977,0.0,0.0,0.030000000000001137,0.0,0.0,0.0,0.0,0.0,0.0,0.29999999999999716,0.0,0.0,0.0,0.0,0.0,0.660000000000025,0.0,0.28000000000000114,0.0,0.0,8.909999999999997,0.020000000000010232,0.0,0.0,0.0,0.0,0.0,0.01999999999999602,0.0,0.9599999999999937,0.0,0.0,0.22999999999998977,0.0,0.0,0.0,1.960000000000008,0.0,0.0,0.03999999999999915,0.0,0.0,0.0,0.0,0.0,0.0,0.0,0.0
2026-07-21T15:32:20.659,0.1607,0.0,0.0,0.010000000000005116,0.0,0.0,0.0,0.0,0.0,0.0,0.0,0.0,0.0,0.0,0.0,0.0,0.0,0.0,0.0,0.0,0.0,0.0,0.0,0.0,0.0,0.0,0.0,9.009999999999991,0.0,1.980000000000004,0.0,0.0,0.0,0.0,0.18000000000000682,0.0,0.0,0.0,0.0,0.0,0.0,0.0,0.0,3.1100000000000136,0.0,0.0,0.0,0.0,0.03999999999999204,0.0,0.0,0.0,0.0,0.0,0.0,0.0,0.0,0.0,0.0,1.960000000000008,0.18999999999999773,0.25,0.0,0.0,0.8400000000000034,0.0,0.0,0.0,0.0,0.0,0.0,0.0,0.0,0.0,0.0,0.010000000000005116,0.0,1.4399999999999977,0.0,0.0,0.0,0.0,0.0,0.0,0.0,0.0,0.0,0.0,0.0,0.0,0.0,0.0,0.20000000000000284,8.700000000000003,0.060000000000002274,0.25,0.0,0.0,0.0,0.0,0.0,0.0,0.0,0.0,0.0,0.01999999999999602,0.0,0.12000000000000455,0.0,0.0,0.01999999999999602,0.0,0.0,0.0,0.0,0.0,0.0,0.0,0.0,0.0,0.0,0.04000000000000625,0.0,23.659999999999997,0.0,0.0,0.04999999999999716,0.0,0.0,0.0,0.0,0.0,1.1200000000000045,6.280000000000001,0.0,0.0,0.0,0.0,2.0,0.9900000000000091,0.9899999999999949,0.0,0.0,0.0,1.660000000000025,0.0,9.0,0.0,0.0,0.0,0.0,0.0,0.0,0.8400000000000034,0.0,1.0,0.0,0.0,0.0,0.0,0.009999999999990905,0.0,1.0,0.0,0.0,0.0,0.12000000000000455,0.0,0.3200000000000003,0.3400000000000034,0.0,0.0,21.0,0.0,0.0,0.0,0.0,0.21999999999999886,0.0,0.0,0.060000000000002274,0.4900000000000091,0.0,0.0,0.0,0.14000000000000057,1.980000000000004,0.0,0.0,0.0,0.9699999999999989,0.0,0.0,0.0,0.0,0.0,0.11000000000001364,1.9199999999999875,0.0,0.9900000000000091,0.0,0.01999999999999602,0.20999999999999375,0.0,21.0,0.0,0.0,0.0,1.9399999999999977,0.0,0.0,0.030000000000001137,0.0,9.0,0.0,0.0,0.0,0.0,0.29999999999999716,0.0,0.0,0.0,0.0,0.0,0.660000000000025,0.0,0.28000000000000114,0.0,0.0,8.909999999999997,0.020000000000010232,0.0,0.0,0.0,0.0,0.0,0.01999999999999602,0.0,0.9599999999999937,0.0,0.0,0.22999999999998977,0.0,0.0,0.0,1.960000000000008,0.0,0.0,0.03999999999999915,0.0,0.0,0.0,1.9599999999999937,0.0,1.980000000000004,0.0,0.0
2026-07-21T15:32:20.659,0.1607,0.0,0.0,0.010000000000005116,0.0,0.0,0.0,0.0,0.0,0.0,0.0,0.0,0.0,0.0,0.0,0.0,0.0,0.0,0.7700000000000102,0.0,0.0,0.0,0.0,0.0,0.0,0.0,0.0,9.009999999999991,0.0,1.980000000000004,0.0,0.0,0.0,0.0,0.18000000000000682,0.0,2.7900000000000063,0.0,0.0,0.0,0.0,0.0,0.0,3.1100000000000136,0.0,0.0,0.0,0.0,0.03999999999999204,0.0,0.0,0.0,0.0,0.0,0.0,0.0,0.0,0.0,0.0,1.960000000000008,0.18999999999999773,0.25,0.0,0.20999999999999375,0.8400000000000034,0.0,0.0,0.0,0.0,0.0,0.0,0.0,0.0,0.0,0.0,0.010000000000005116,0.0,1.4399999999999977,0.0,0.0,0.0,0.0,0.0,0.0,0.0,0.0,0.0,0.0,9.219999999999999,0.0,0.0,0.0,0.20000000000000284,8.700000000000003,0.060000000000002274,0.25,0.0,0.0,0.0,0.0,0.0,0.0,0.0,0.0,0.0,0.01999999999999602,0.0,0.12000000000000455,0.0,0.0,0.01999999999999602,0.0,0.0,0.0,0.0,0.0,0.0,0.0,0.0,0.0,0.0,0.04000000000000625,0.0,23.659999999999997,0.0,0.0,0.04999999999999716,0.0,0.0,0.0,0.0,0.0,1.1200000000000045,6.280000000000001,0.0,0.0,0.0,0.0,0.0,0.9900000000000091,0.9899999999999949,0.0,0.0,0.0,1.660000000000025,0.0,0.0,0.0,0.0,0.0,0.0,0.0,0.0,0.8400000000000034,0.0,1.0,0.0,0.0,0.0,0.0,0.009999999999990905,0.0,0.0,0.0,0.0,0.0,0.12000000000000455,0.0,0.0,0.3400000000000034,0.0,0.0,21.0,0.0,0.0,0.0,0.0,0.21999999999999886,0.0,0.0,0.060000000000002274,0.4900000000000091,0.0,0.0,0.0,0.14000000000000057,0.0,0.0,0.0,0.0,0.0,0.0,1.990000000000009,0.0,0.0,0.0,0.11000000000001364,1.9199999999999875,0.0,0.9900000000000091,0.0,0.01999999999999602,0.20999999999999375,0.0,21.0,0.0,0.0,0.0,1.9399999999999977,0.0,0.0,0.030000000000001137,0.0,0.0,0.0,0.0,0.0,0.0,0.29999999999999716,0.0,0.0,0.0,0.0,0.0,0.660000000000025,0.0,0.28000000000000114,0.0,0.0,8.909999999999997,0.020000000000010232,0.0,0.0,0.0,0.0,0.0,0.01999999999999602,0.0,0.9599999999999937,0.0,0.0,0.22999999999998977,0.0,0.0,0.0,1.960000000000008,0.0,0.0,0.03999999999999915,0.0,0.0,0.0,1.9599999999999937,0.0,0.0,0.0,0.0
2026-07-21T15:32:20.659,0.1607,0.0,0.0,0.010000000000005116,0.0,0.0,0.0,0.0,0.0,0.0,0.0,0.0,0.0,0.0,0.0,0.0,0.0,0.0,0.7700000000000102,0.0,0.0,0.0,0.0,0.0,0.0,0.0,0.0,9.009999999999991,0.0,1.980000000000004,0.0,0.0,1.8899999999999864,63.05000000000001,0.18000000000000682,0.0,0.0,0.0,0.0,0.0,0.0,0.0,0.0,3.1100000000000136,0.0,0.0,0.0,0.0,0.03999999999999204,0.0,0.0,0.0,0.0,0.0,0.0,0.0,0.0,0.0,0.0,1.960000000000008,2.1899999999999977,0.25,0.0,0.0,0.8400000000000034,0.0,0.0,0.0,0.0,0.0,0.0,0.0,0.0,0.0,0.0,0.010000000000005116,0.0,1.4399999999999977,0.14000000000000057,0.0,0.0,0.0,0.0,0.0,0.0,0.0,0.0,0.0,0.0,0.0,0.0,0.0,0.20000000000000284,8.700000000000003,0.060000000000002274,0.25,0.0,0.0,0.0,0.0,0.0,0.0,0.0,0.0,0.0,0.01999999999999602,0.0,0.12000000000000455,0.0,0.0,0.01999999999999602,0.0,0.0,0.0,0.0,0.0,0.0,0.0,0.0,0.0,0.0,0.04000000000000625,0.0,23.659999999999997,0.0,0.0,0.04999999999999716,0.0,0.0,0.0,0.0,0.0,1.1200000000000045,6.280000000000001,0.0,0.0,0.0,0.0,0.0,0.9900000000000091,0.9899999999999949,0.0,0.0,0.0,1.660000000000025,0.0,0.0,0.0,0.0,0.0,0.0,0.0,0.0,0.8400000000000034,0.0,1.0,0.0,0.0,0.0,0.0,2.009999999999991,0.0,0.0,0.0,0.0,0.0,0.12000000000000455,0.0,0.3200000000000003,0.3400000000000034,0.0,0.0,21.0,0.0,0.0,0.0,8.139999999999986,0.21999999999999886,0.0,0.0,0.060000000000002274,0.4900000000000091,0.0,0.0,0.0,0.14000000000000057,0.0,0.0,0.0,0.0,0.9699999999999989,0.0,0.0,0.0,0.0,0.0,0.11000000000001364,1.9199999999999875,1.9399999999999977,0.9900000000000091,0.0,0.01999999999999602,0.20999999999999375,0.0,0.0,0.0,0.0,0.0,1.9399999999999977,0.0,0.0,0.030000000000001137,0.0,0.0,0.0,0.0,0.0,0.0,0.29999999999999716,0.0,0.0,0.0,0.0,0.0,0.660000000000025,0.0,0.28000000000000114,0.0,0.0,8.909999999999997,0.020000000000010232,0.0,0.0,0.0,0.0,0.0,0.01999999999999602,0.0,0.9599999999999937,0.0,0.0,0.22999999999998977,0.0,0.0,0.0,1.960000000000008,0.0,0.0,0.03999999999999915,0.0,0.0,0.0,0.0,0.0,1.980000000000004,0.0,0.0
2026-07-21T15:32:20.659,0.1607,0.0,0.0,0.010000000000005116,0.0,0.0,0.0,0.0,0.0,0.0,0.0,0.0,0.0,0.0,0.0,0.0,0.0,0.0,0.7700000000000102,0.0,0.0,0.0,0.0,0.0,0.0,0.0,0.0,9.009999999999991,0.0,1.980000000000004,0.0,0.0,0.0,63.05000000000001,0.18000000000000682,0.0,0.0,0.0,0.0,0.0,0.0,0.0,0.0,3.1100000000000136,0.0,0.0,0.0,0.0,0.03999999999999204,0.0,0.0,0.0,0.0,0.0,0.0,0.0,0.0,0.0,0.0,1.960000000000008,0.18999999999999773,0.25,0.0,0.0,0.8400000000000034,0.0,0.0,0.0,0.0,0.0,0.0,0.0,0.0,0.0,0.0,0.010000000000005116,0.0,1.4399999999999977,0.14000000000000057,0.0,0.0,0.0,0.0,0.0,0.0,0.0,0.0,0.0,0.0,0.0,0.0,0.0,0.20000000000000284,8.700000000000003,0.060000000000002274,0.25,0.0,0.0,0.0,0.0,0.0,0.0,0.0,0.0,0.0,0.01999999999999602,0.0,0.12000000000000455,0.0,0.0,0.01999999999999602,0.0,0.0,0.0,0.0,0.0,0.0,0.0,0.0,0.0,0.0,0.04000000000000625,0.0,23.659999999999997,0.0,0.0,0.04999999999999716,0.0,0.0,0.0,0.0,0.0,1.1200000000000045,6.280000000000001,0.0,0.0,0.0,0.0,0.0,0.9900000000000091,0.9899999999999949,0.0,0.0,0.0,1.660000000000025,0.0,0.0,0.0,0.0,0.0,0.0,0.0,0.0,0.8400000000000034,1.9599999999999937,1.0,0.0,0.0,0.0,0.0,0.009999999999990905,0.0,0.0,0.0,0.0,0.0,0.12000000000000455,0.0,0.3200000000000003,0.3400000000000034,0.0,0.0,21.0,0.0,0.0,0.0,0.0,0.21999999999999886,0.0,0.0,0.060000000000002274,0.4900000000000091,0.0,0.0,0.0,0.14000000000000057,1.980000000000004,0.0,0.0,0.0,0.9699999999999989,0.0,0.0,0.0,0.0,0.0,0.11000000000001364,1.9199999999999875,0.0,0.9900000000000091,0.0,0.01999999999999602,0.20999999999999375,0.0,21.0,0.0,0.0,0.0,1.9399999999999977,0.0,0.0,0.030000000000001137,0.0,0.0,0.0,0.0,0.0,0.0,0.29999999999999716,0.0,0.0,0.0,0.0,0.0,0.660000000000025,0.0,0.0,0.0,4.560000000000002,0.0,0.020000000000010232,0.0,0.0,0.0,0.0,28.0,0.01999999999999602,0.0,0.9599999999999937,0.0,0.0,0.22999999999998977,0.0,0.0,0.0,1.960000000000008,0.0,0.0,0.03999999999999915,0.0,0.0,0.0,0.0,0.0,1.980000000000004,0.0,0.0
2026-07-21T15:32:20.659,0.1607,0.0,0.0,0.010000000000005116,0.0,0.0,0.0,0.0,0.0,0.0,0.0,0.0,0.0,0.0,0.0,0.0,0.0,0.0,0.7700000000000102,0.0,0.0,0.0,0.0,0.0,0.0,0.0,0.0,9.009999999999991,0.0,1.980000000000004,0.0,0.0,1.8899999999999864,0.0,0.18000000000000682,0.0,0.0,0.0,0.0,0.0,0.0,0.0,0.0,3.1100000000000136,0.0,0.0,0.0,0.0,0.03999999999999204,0.0,0.0,0.0,0.0,0.0,0.0,0.0,0.0,0.0,0.0,1.960000000000008,2.1899999999999977,0.25,0.0,0.0,0.8400000000000034,0.0,0.0,0.0,0.0,0.0,0.0,0.0,0.0,0.020000000000003126,0.0,0.010000000000005116,0.0,1.4399999999999977,0.14000000000000057,0.0,0.0,0.0,0.0,0.0,0.0,0.0,0.0,0.0,0.0,0.0,0.0,0.0,0.20000000000000284,10.700000000000003,0.060000000000002274,0.25,0.0,0.0,0.0,0.0,0.0,0.0,0.0,0.0,0.0,0.01999999999999602,0.0,0.12000000000000455,0.0,0.0,0.01999999999999602,0.0,0.0,0.0,0.0,0.0,0.0,0.0,0.0,0.0,0.0,0.04000000000000625,0.0,23.659999999999997,0.0,0.0,0.04999999999999716,0.0,0.5600000000000023,0.0,0.0,0.0,1.1200000000000045,0.0,0.0,0.0,0.0,0.0,0.0,0.9900000000000091,0.9899999999999949,0.0,0.0,0.0,1.660000000000025,0.0,0.0,0.0,0.0,0.0,0.0,0.0,0.0,0.8400000000000034,0.0,1.0,0.0,0.0,0.0,0.0,0.0,0.0,0.0,0.0,0.0,0.0,0.12000000000000455,0.0,0.3200000000000003,0.3400000000000034,0.0,0.0,21.0,0.0,0.0,0.0,8.139999999999986,0.21999999999999886,0.0,0.0,0.060000000000002274,0.4900000000000091,0.0,0.0,0.0,0.14000000000000057,0.0,0.0,0.0,0.0,0.9699999999999989,0.0,0.0,0.0,0.0,0.0,0.11000000000001364,1.9199999999999875,1.9399999999999977,0.9900000000000091,0.0,0.01999999999999602,0.20999999999999375,0.0,21.0,0.0,0.0,0.0,1.9399999999999977,0.0,0.0,0.030000000000001137,0.0,0.0,0.0,0.0,0.0,0.0,0.29999999999999716,0.0,0.0,0.0,0.0,0.0,0.660000000000025,0.0,0.28000000000000114,0.0,0.0,8.909999999999997,0.020000000000010232,0.0,0.0,0.0,0.0,0.0,0.01999999999999602,0.0,0.9599999999999937,0.0,0.0,0.22999999999998977,0.0,0.0,0.0,1.960000000000008,0.0,0.0,0.03999999999999915,0.0,0.0,0.0,1.9599999999999937,0.0,0.0,0.0,0.0
2026-07-21T15:32:20.659,0.1607,0.0,0.0,0.010000000000005116,0.0,0.0,0.0,0.0,0.0,0.0,0.0,0.0,0.0,0.0,0.0,0.0,0.0,0.0,0.7700000000000102,0.0,0.0,0.0,0.0,0.0,0.0,0.0,0.0,9.009999999999991,0.0,1.980000000000004,0.0,0.0,1.8899999999999864,63.05000000000001,0.18000000000000682,0.0,0.0,0.0,0.0,0.0,0.0,0.0,0.0,3.1100000000000136,0.0,0.0,0.0,0.0,0.03999999999999204,0.0,0.0,0.0,0.0,0.0,0.0,0.0,0.0,0.0,0.0,1.960000000000008,0.18999999999999773,0.25,0.0,0.0,0.8400000000000034,0.0,0.0,0.0,0.0,0.0,0.0,0.0,0.0,0.0,0.0,0.010000000000005116,0.0,1.4399999999999977,0.14000000000000057,0.0,0.0,0.0,0.0,0.0,0.0,0.0,0.0,0.0,0.0,0.0,0.0,0.0,0.20000000000000284,8.700000000000003,0.060000000000002274,0.25,5.0,0.0,0.0,0.0,0.0,0.0,0.0,0.0,0.0,0.01999999999999602,0.0,0.12000000000000455,0.0,0.0,0.01999999999999602,0.0,0.0,0.0,0.0,0.0,0.0,0.0,0.0,0.0,0.0,0.04000000000000625,0.0,23.659999999999997,0.0,0.0,0.04999999999999716,0.0,0.0,0.0,0.0,0.0,1.1200000000000045,6.280000000000001,0.0,0.0,0.0,0.0,0.0,0.9900000000000091,0.9899999999999949,0.0,0.0,0.0,1.660000000000025,0.0,0.0,0.0,0.0,0.0,0.0,0.0,0.0,0.8400000000000034,0.0,1.0,0.0,0.0,0.0,0.0,0.009999999999990905,0.0,0.0,0.0,0.0,0.0,0.12000000000000455,0.0,0.0,0.3400000000000034,0.0,0.0,21.0,0.0,0.0,0.0,0.0,0.21999999999999886,0.0,0.0,0.060000000000002274,0.4900000000000091,0.0,0.0,0.0,0.14000000000000057,0.0,0.0,0.0,0.0,0.9699999999999989,0.0,0.0,0.0,0.0,0.0,0.11000000000001364,1.9199999999999875,0.0,0.9900000000000091,0.0,0.01999999999999602,0.20999999999999375,0.0,21.0,0.0,0.0,0.0,1.9399999999999977,0.0,0.0,0.030000000000001137,0.0,0.0,0.0,0.0,0.0,0.0,0.29999999999999716,0.0,0.0,0.0,0.0,0.0,0.660000000000025,0.0,0.28000000000000114,0.0,0.0,8.909999999999997,0.020000000000010232,0.0,0.0,0.0,0.0,0.0,0.01999999999999602,0.0,0.9599999999999937,0.0,0.0,0.22999999999998977,0.0,0.0,0.0,0.0,0.0,0.0,0.03999999999999915,0.0,0.0,0.0,0.0,0.0,1.980000000000004,0.0,0.0
2026-07-21T15:32:20.659,0.1607,0.0,0.0,0.010000000000005116,0.0,0.0,0.0,0.0,0.0,0.0,0.0,0.0,0.0,0.0,0.0,0.0,0.0,0.0,0.7700000000000102,0.0,0.0,0.0,0.0,0.0,0.0,0.0,0.0,9.009999999999991,0.0,1.980000000000004,0.0,0.0,0.0,0.0,0.18000000000000682,0.0,0.0,0.0,0.0,0.0,0.0,0.0,0.0,3.1100000000000136,0.0,0.0,0.0,0.0,0.03999999999999204,0.0,0.0,0.0,0.0,0.0,0.0,0.0,0.0,0.0,0.0,1.960000000000008,2.1899999999999977,0.25,0.0,0.0,0.8400000000000034,0.0,0.0,0.0,0.0,0.0,0.0,0.0,0.0,0.0,0.0,0.010000000000005116,0.0,1.4399999999999977,0.0,0.0,0.0,0.0,0.0,0.0,0.0,0.0,0.0,0.0,0.0,0.0,0.0,0.0,0.20000000000000284,8.700000000000003,0.060000000000002274,0.25,0.0,0.0,0.0,0.0,0.0,0.020000000000010232,0.0,0.0,0.0,0.01999999999999602,0.0,0.12000000000000455,0.0,0.0,0.01999999999999602,0.0,0.0,0.0,0.0,0.0,0.0,0.0,0.0,0.0,0.0,0.04000000000000625,0.0,23.659999999999997,0.0,0.0,0.04999999999999716,0.0,0.0,0.0,0.0,0.0,1.1200000000000045,0.0,0.0,0.0,0.0,0.0,2.0,13.990000000000009,0.9899999999999949,0.0,0.0,0.0,1.660000000000025,0.0,0.0,0.0,0.0,0.0,0.0,0.0,0.0,0.8400000000000034,0.0,1.0,0.0,0.0,0.0,0.0,0.009999999999990905,0.0,0.0,0.0,0.0,0.0,0.12000000000000455,0.0,0.0,0.3400000000000034,0.0,0.0,21.0,0.0,0.0,0.0,0.0,0.21999999999999886,0.0,0.0,0.060000000000002274,0.4900000000000091,0.0,0.0,0.0,0.14000000000000057,0.0,0.0,0.0,0.0,0.9699999999999989,0.0,0.0,0.0,0.0,0.0,0.11000000000001364,1.9199999999999875,0.0,0.9900000000000091,0.0,0.01999999999999602,0.20999999999999375,0.0,21.0,0.0,0.0,0.0,1.9399999999999977,0.0,0.0,0.030000000000001137,0.0,0.0,0.0,0.0,0.0,0.0,0.29999999999999716,0.0,0.0,0.0,0.0,0.0,0.660000000000025,0.0,0.28000000000000114,0.0,0.0,8.909999999999997,0.020000000000010232,0.0,0.0,0.0,0.0,0.0,0.01999999999999602,0.0,0.9599999999999937,0.0,0.0,0.22999999999998977,0.0,0.0,0.0,1.960000000000008,0.0,0.0,0.03999999999999915,0.0,0.0,0.0,1.9599999999999937,0.0,0.0,0.0,0.0
2026-07-21T15:32:20.659,0.1607,0.0,0.0,0.010000000000005116,0.0,0.0,0.0,0.0,0.0,0.0,0.0,0.0,0.0,0.0,0.0,0.0,0.0,0.0,0.7700000000000102,0.0,0.0,0.0,0.0,0.0,0.0,0.0,0.0,9.009999999999991,0.0,1.980000000000004,0.0,0.0,0.0,0.0,0.18000000000000682,0.0,0.0,0.0,0.0,0.0,0.0,0.0,0.0,3.1100000000000136,0.0,0.0,0.0,0.0,0.03999999999999204,0.0,0.0,0.0,0.0,0.0,0.0,0.0,0.0,0.0,0.0,1.960000000000008,0.18999999999999773,0.25,0.0,0.20999999999999375,0.8400000000000034,0.0,0.0,0.0,0.0,0.0,0.0,0.0,0.0,0.0,0.0,0.010000000000005116,0.0,1.4399999999999977,0.14000000000000057,0.0,0.0,0.0,0.0,0.0,0.0,0.0,0.0,0.0,0.0,0.0,0.0,0.0,0.20000000000000284,8.700000000000003,0.060000000000002274,0.25,0.0,0.0,0.0,0.0,0.0,0.0,0.0,0.0,0.0,0.01999999999999602,0.0,0.12000000000000455,0.0,0.0,0.01999999999999602,0.0,0.0,0.0,0.0,0.0,0.0,0.0,0.0,0.0,0.0,0.0,0.0,23.659999999999997,0.0,0.0,0.04999999999999716,0.0,0.0,0.0,0.0,0.0,1.1200000000000045,0.0,0.0,0.0,0.0,0.0,0.0,0.9900000000000091,0.9899999999999949,0.0,0.0,0.0,1.660000000000025,0.0,0.0,0.0,0.0,0.0,0.0,0.0,0.0,0.8400000000000034,0.0,1.0,0.0,0.0,0.0,0.0,0.009999999999990905,0.0,0.0,0.0,0.0,0.0,0.12000000000000455,0.0,0.3200000000000003,0.3400000000000034,0.0,0.0,21.0,0.0,0.0,0.0,0.0,0.21999999999999886,0.0,0.0,0.060000000000002274,0.4900000000000091,0.0,0.0,0.0,0.14000000000000057,0.0,0.0,0.0,0.0,0.9699999999999989,0.0,0.0,0.0,0.0,0.0,0.11000000000001364,1.9199999999999875,1.9399999999999977,0.9900000000000091,0.0,0.01999999999999602,0.20999999999999375,0.0,21.0,0.0,0.0,0.0,1.9399999999999977,0.0,0.0,0.030000000000001137,0.0,0.0,0.0,0.0,0.0,0.0,0.29999999999999716,0.0,0.0,0.0,0.0,0.0,0.660000000000025,0.0,0.28000000000000114,0.0,0.0,8.909999999999997,0.020000000000010232,0.0,0.0,0.0,0.0,0.0,0.01999999999999602,0.0,0.9599999999999937,0.0,0.0,0.22999999999998977,0.0,0.0,0.0,1.960000000000008,0.0,0.0,0.03999999999999915,0.0,0.0,0.0,1.9599999999999937,0.0,1.980000000000004,0.0,0.0
2026-07-21T15:32:20.659,0.1607,0.0,0.0,0.010000000000005116,0.0,0.0,0.0,0.0,0.0,0.0,0.0,0.0,0.0,0.0,0.0,0.0,0.0,0.0,0.7700000000000102,0.0,0.0,0.0,0.0,0.0,0.0,0.0,0.0,9.009999999999991,0.0,1.980000000000004,0.0,0.0,0.0,0.0,0.18000000000000682,0.0,2.7900000000000063,0.0,0.0,0.0,0.0,0.0,2.969999999999999,3.1100000000000136,0.0,0.0,0.0,0.0,0.03999999999999204,0.0,0.0,0.0,0.0,0.0,0.0,0.0,0.0,0.0,0.0,1.960000000000008,2.1899999999999977,0.25,0.0,0.20999999999999375,0.8400000000000034,0.0,0.0,0.0,0.0,0.0,0.0,0.0,0.0,0.0,0.0,0.010000000000005116,0.0,1.4399999999999977,0.14000000000000057,0.0,0.0,0.0,0.0,0.0,0.0,0.0,0.0,0.0,0.0,0.0,0.0,0.0,0.20000000000000284,8.700000000000003,0.060000000000002274,0.25,0.0,0.0,0.0,0.0,0.0,0.0,0.0,0.0,0.0,0.01999999999999602,0.0,0.12000000000000455,0.0,0.0,0.01999999999999602,0.0,0.0,0.0,0.0,0.0,0.0,0.0,0.0,0.0,0.0,0.04000000000000625,0.0,23.659999999999997,0.0,0.0,0.04999999999999716,0.0,0.0,0.0,0.0,0.0,1.1200000000000045,0.0,0.0,0.0,0.0,0.0,0.0,0.9900000000000091,0.9899999999999949,0.0,0.0,0.0,1.660000000000025,0.0,0.0,0.0,0.0,0.0,0.0,0.0,0.0,0.8400000000000034,1.9599999999999937,1.0,0.0,0.0,0.0,0.0,0.009999999999990905,0.0,0.0,0.0,0.0,0.0,0.12000000000000455,0.0,0.3200000000000003,0.3400000000000034,0.0,0.0,21.0,0.0,0.0,0.0,8.139999999999986,0.21999999999999886,0.0,0.0,0.060000000000002274,0.4900000000000091,0.0,0.0,0.0,0.14000000000000057,0.0,0.0,0.0,0.0,0.0,0.0,0.0,0.0,0.0,0.0,0.11000000000001364,1.9199999999999875,0.0,0.9900000000000091,0.0,0.01999999999999602,0.20999999999999375,0.0,21.0,0.0,0.0,0.0,1.9399999999999977,0.0,0.0,0.030000000000001137,0.0,0.0,0.0,0.0,0.0,0.0,0.29999999999999716,0.0,0.0,0.0,0.0,0.0,0.660000000000025,6.0,0.0,0.0,0.0,0.0,0.020000000000010232,0.0,0.0,0.0,0.0,0.0,0.01999999999999602,0.0,0.9599999999999937,0.0,0.0,0.22999999999998977,0.0,0.0,0.0,1.960000000000008,0.0,0.0,0.03999999999999915,0.0,0.0,0.0,1.9599999999999937,0.0,1.980000000000004,0.6800000000000068,0.0
2026-07-21T15:32:20.659,0.1607,0.0,0.0,0.010000000000005116,0.0,0.0,0.0,0.0,0.0,0.0,0.0,0.0,0.0,0.0,0.0,0.0,0.0,0.0,0.7700000000000102,0.0,0.0,0.0,0.0,0.0,0.0,0.0,0.0,9.009999999999991,0.0,1.980000000000004,0.0,0.0,0.0,63.05000000000001,0.18000000000000682,0.0,0.0,0.0,0.0,0.0,0.0,0.0,0.0,3.1100000000000136,0.0,0.0,0.0,0.0,0.03999999999999204,0.0,0.0,0.0,0.0,0.0,0.0,0.0,0.0,0.0,0.0,1.960000000000008,0.18999999999999773,0.25,0.0,0.0,0.8400000000000034,0.0,0.0,0.0,0.0,0.0,0.0,0.0,0.0,0.0,0.0,0.010000000000005116,0.0,1.4399999999999977,0.14000000000000057,0.0,0.0,0.0,0.0,0.0,0.0,0.0,0.0,0.0,0.0,0.0,0.0,0.0,0.20000000000000284,8.700000000000003,0.060000000000002274,0.25,0.0,0.0,0.0,0.0,0.0,0.0,0.0,0.0,0.0,0.01999999999999602,0.0,0.12000000000000455,0.0,0.0,0.01999999999999602,0.0,0.0,0.0,0.0,0.0,0.0,0.0,0.0,0.0,0.0,0.04000000000000625,0.0,23.659999999999997,0.0,0.0,0.04999999999999716,0.0,0.0,0.0,0.0,0.0,1.1200000000000045,6.280000000000001,0.0,0.0,0.0,0.0,0.0,0.9900000000000091,0.9899999999999949,0.0,0.0,0.0,1.660000000000025,0.0,0.0,0.0,0.0,0.0,0.0,0.0,0.0,0.8400000000000034,0.0,1.0,0.0,0.0,0.0,0.0,0.009999999999990905,0.0,0.0,0.0,0.0,0.0,0.12000000000000455,0.0,0.3200000000000003,0.3400000000000034,0.0,0.0,21.0,0.0,0.0,0.0,0.0,0.21999999999999886,0.0,0.0,0.060000000000002274,0.4900000000000091,0.0,0.0,0.0,0.14000000000000057,0.0,0.0,0.0,0.0,0.9699999999999989,0.0,0.0,0.0,0.0,0.0,0.11000000000001364,1.9199999999999875,1.9399999999999977,0.9900000000000091,0.0,0.01999999999999602,0.20999999999999375,0.0,21.0,0.0,0.0,0.0,1.9399999999999977,0.0,0.0,0.030000000000001137,0.0,0.0,0.0,0.0,0.0,0.0,0.29999999999999716,0.0,0.0,0.0,0.0,0.0,0.660000000000025,0.0,0.28000000000000114,0.0,0.0,8.909999999999997,0.020000000000010232,0.0,0.0,0.0,0.0,0.0,0.01999999999999602,0.0,0.9599999999999937,0.0,0.0,0.22999999999998977,0.0,0.0,0.0,1.960000000000008,0.0,0.0,0.03999999999999915,0.0,0.0,0.0,1.9599999999999937,0.0,1.980000000000004,0.0,0.0
2026-07-21T15:32:20.659,0.1607,0.0,0.0,0.010000000000005116,0.0,0.0,0.0,0.0,0.0,0.0,0.0,0.0,0.0,0.0,0.0,0.0,0.0,0.0,0.7700000000000102,0.0,0.0,0.0,0.0,0.0,0.0,0.0,0.0,6.009999999999991,0.0,1.980000000000004,0.0,0.0,0.0,0.0,0.18000000000000682,0.0,2.7900000000000063,0.0,0.0,0.0,0.0,0.0,0.0,3.1100000000000136,0.0,0.0,0.0,0.0,0.03999999999999204,0.0,0.0,0.0,0.0,0.0,0.0,0.0,0.0,0.0,0.0,1.960000000000008,2.1899999999999977,0.25,0.0,0.0,0.8400000000000034,0.0,0.0,0.0,0.0,0.0,0.0,0.0,0.0,0.020000000000003126,0.0,0.010000000000005116,0.0,1.4399999999999977,0.14000000000000057,0.0,0.0,0.0,0.0,0.0,0.0,0.0,0.0,0.0,0.0,0.0,0.0,0.0,0.20000000000000284,8.700000000000003,0.060000000000002274,0.25,0.0,0.0,0.0,0.0,0.0,0.0,0.0,0.0,0.0,0.01999999999999602,0.0,0.12000000000000455,0.0,0.0,0.01999999999999602,0.0,0.0,0.0,0.0,0.0,0.0,0.0,0.0,0.0,0.0,0.04000000000000625,0.0,23.659999999999997,0.0,0.0,0.04999999999999716,0.0,0.0,0.0,0.0,0.0,1.1200000000000045,6.280000000000001,0.0,0.0,0.0,0.0,0.0,0.9900000000000091,0.9899999999999949,0.0,0.0,0.0,1.660000000000025,0.0,0.0,0.0,0.0,0.0,0.0,0.0,0.0,0.8400000000000034,1.9599999999999937,1.0,0.0,0.0,0.0,0.0,0.009999999999990905,0.0,0.0,0.0,0.0,0.0,0.12000000000000455,0.0,0.3200000000000003,0.3400000000000034,0.0,0.0,21.0,0.0,0.0,0.0,8.139999999999986,0.21999999999999886,0.0,0.0,0.060000000000002274,0.4900000000000091,0.0,0.0,0.0,0.14000000000000057,1.980000000000004,0.0,0.0,0.0,0.0,0.0,1.990000000000009,0.0,0.0,0.0,0.11000000000001364,1.9199999999999875,0.0,0.9900000000000091,0.0,0.01999999999999602,0.20999999999999375,0.0,21.0,0.0,0.0,0.0,1.9399999999999977,0.0,28.0,0.030000000000001137,0.0,0.0,0.0,0.0,0.0,0.0,0.29999999999999716,0.0,0.0,0.0,0.0,0.0,0.660000000000025,0.0,0.0,0.0,0.0,8.909999999999997,0.020000000000010232,0.0,0.0,0.0,0.0,28.0,0.01999999999999602,0.0,0.9599999999999937,0.0,0.0,0.22999999999998977,0.0,0.0,0.0,1.960000000000008,0.0,0.0,0.03999999999999915,0.0,0.0,0.0,0.0,0.0,0.0,0.0,0.0
2026-07-21T15:32:20.659,0.1607,0.0,0.0,0.010000000000005116,0.0,0.0,0.0,0.0,0.0,0.0,0.0,0.0,0.0,0.0,0.0,0.0,0.0,0.0,0.0,0.0,0.0,0.0,0.0,0.0,0.0,0.0,0.0,9.009999999999991,0.0,1.980000000000004,0.0,0.0,1.8899999999999864,63.05000000000001,0.18000000000000682,0.0,2.7900000000000063,0.0,0.0,0.0,0.0,0.0,0.0,3.1100000000000136,0.0,0.0,0.0,0.0,0.03999999999999204,0.0,0.0,0.0,0.0,0.0,0.0,0.0,0.0,0.0,0.0,1.960000000000008,0.18999999999999773,0.25,0.0,0.0,0.0,0.0,0.0,0.0,0.0,0.0,0.0,0.0,0.0,0.0,0.0,0.010000000000005116,0.0,1.4399999999999977,0.14000000000000057,0.0,0.0,0.0,0.0,0.0,0.0,0.0,0.0,0.0,0.0,0.0,0.0,0.0,0.20000000000000284,8.700000000000003,0.060000000000002274,0.25,0.0,0.0,0.0,0.0,0.0,0.0,0.0,0.0,0.0,0.01999999999999602,0.0,0.12000000000000455,0.0,0.0,0.01999999999999602,0.0,0.0,0.0,0.0,0.0,0.0,0.0,0.0,0.0,0.0,0.04000000000000625,0.0,23.659999999999997,0.0,0.0,0.04999999999999716,0.0,0.0,0.0,0.0,0.0,1.1200000000000045,6.280000000000001,0.0,0.0,0.0,0.0,2.0,0.9900000000000091,0.9899999999999949,0.0,0.0,0.0,1.660000000000025,0.0,9.0,0.0,0.0,0.0,0.0,0.0,0.0,0.8400000000000034,0.0,1.0,0.0,0.0,0.0,0.0,0.009999999999990905,0.0,0.0,0.0,0.0,0.0,0.12000000000000455,0.0,0.3200000000000003,0.3400000000000034,0.0,0.0,21.0,0.0,0.0,0.0,8.139999999999986,0.21999999999999886,0.0,0.0,0.060000000000002274,0.4900000000000091,0.0,0.0,0.0,0.14000000000000057,0.0,0.0,0.0,0.0,0.9699999999999989,0.0,0.0,0.0,0.0,0.0,0.11000000000001364,1.9199999999999875,0.0,0.9900000000000091,0.0,0.01999999999999602,0.20999999999999375,0.0,0.0,0.0,0.0,0.0,1.9399999999999977,0.0,0.0,0.030000000000001137,0.0,0.0,0.0,0.0,0.0,0.0,0.29999999999999716,0.0,0.0,0.0,0.0,0.0,0.660000000000025,0.0,0.28000000000000114,0.0,4.560000000000002,0.0,0.020000000000010232,0.0,0.0,0.0,0.0,0.0,0.01999999999999602,0.0,0.9599999999999937,0.0,0.0,0.22999999999998977,0.0,0.0,0.0,1.960000000000008,0.0,0.0,0.03999999999999915,0.0,0.0,0.0,0.0,0.0,1.980000000000004,0.0,0.0
2026-07-21T15:32:20.659,0.1607,0.0,0.0,0.010000000000005116,0.0,0.0,0.0,0.0,0.0,0.0,0.0,0.0,0.0,0.0,0.0,0.0,0.0,0.0,0.7700000000000102,0.0,0.0,0.0,0.0,0.0,0.0,0.0,0.0,9.009999999999991,0.0,1.980000000000004,0.0,0.0,0.0,0.0,0.18000000000000682,0.0,2.7900000000000063,0.0,0.0,0.0,0.0,0.0,0.0,3.1100000000000136,0.0,0.0,0.0,0.0,0.03999999999999204,0.0,0.0,0.0,0.0,0.0,0.0,0.0,0.0,0.0,0.0,1.960000000000008,0.18999999999999773,0.25,0.0,0.0,0.8400000000000034,0.0,0.0,0.0,0.0,0.0,0.0,0.0,0.0,0.0,0.0,0.010000000000005116,0.0,1.4399999999999977,0.14000000000000057,0.0,0.0,0.0,0.0,0.0,0.0,0.0,0.0,0.0,0.0,0.0,0.0,0.0,0.20000000000000284,8.700000000000003,0.060000000000002274,0.25,0.0,0.0,0.0,0.0,0.0,0.0,0.0,0.0,0.0,0.01999999999999602,0.0,0.12000000000000455,0.0,0.0,0.01999999999999602,0.0,0.0,0.0,0.0,0.0,0.0,0.0,0.0,0.0,0.0,0.04000000000000625,0.0,23.659999999999997,0.0,0.0,0.04999999999999716,0.0,0.0,0.0,0.0,0.0,1.1200000000000045,0.0,0.0,0.0,0.0,0.0,0.0,0.9900000000000091,0.9899999999999949,0.0,0.0,0.0,1.660000000000025,0.0,0.0,0.0,0.0,0.0,0.0,0.0,0.0,0.8400000000000034,1.9599999999999937,1.0,0.0,0.0,0.0,0.0,0.009999999999990905,0.0,0.0,0.0,0.0,0.0,0.12000000000000455,0.0,0.0,0.3400000000000034,0.0,0.0,21.0,0.0,0.0,0.0,8.139999999999986,0.21999999999999886,0.0,0.0,0.060000000000002274,0.4900000000000091,0.0,0.0,0.0,0.14000000000000057,0.0,0.0,0.0,0.0,0.0,0.9699999999999989,0.0,0.0,0.0,0.0,0.11000000000001364,1.9199999999999875,0.0,0.9900000000000091,0.0,0.01999999999999602,0.20999999999999375,0.0,21.0,0.0,0.0,0.0,1.9399999999999977,0.0,0.0,0.030000000000001137,0.0,0.0,0.0,0.0,0.0,0.0,0.29999999999999716,0.0,0.0,0.0,0.0,0.0,0.660000000000025,0.0,0.28000000000000114,0.0,0.0,8.909999999999997,0.020000000000010232,0.0,0.0,0.0,0.0,0.0,0.01999999999999602,0.0,0.9599999999999937,0.0,0.0,0.22999999999998977,0.0,0.0,0.0,1.960000000000008,0.0,0.0,0.03999999999999915,0.0,0.0,0.0,1.9599999999999937,0.0,1.980000000000004,4.680000000000007,0.0
2026-07-21T15:32:20.659,0.1607,0.0,0.0,0.010000000000005116,0.0,0.0,0.0,0.0,0.0,0.0,0.0,0.0,0.0,0.0,0.0,0.0,0.0,0.0,0.7700000000000102,0.0,0.0,0.0,0.0,0.0,0.0,0.0,0.0,9.009999999999991,0.0,1.980000000000004,0.0,0.0,1.8899999999999864,0.0,0.18000000000000682,0.0,2.7900000000000063,0.0,0.0,0.0,0.0,0.0,0.0,3.1100000000000136,0.0,0.0,0.0,0.0,0.03999999999999204,0.0,0.0,0.0,0.0,0.0,0.0,0.0,0.0,0.0,0.0,1.960000000000008,0.18999999999999773,0.25,0.0,0.20999999999999375,0.8400000000000034,0.0,0.0,0.0,0.0,0.0,0.0,0.0,0.0,0.0,0.0,0.010000000000005116,0.0,1.4399999999999977,0.14000000000000057,0.0,0.0,0.0,0.0,0.0,0.0,0.0,0.0,0.0,0.0,0.0,0.0,0.0,0.20000000000000284,8.700000000000003,0.060000000000002274,0.25,0.0,0.0,0.0,0.0,0.0,0.020000000000010232,0.0,0.0,0.0,0.01999999999999602,0.0,0.12000000000000455,0.0,0.0,0.01999999999999602,0.0,0.0,0.0,0.0,0.0,0.0,0.0,0.0,0.0,0.0,0.04000000000000625,0.0,23.659999999999997,0.0,0.0,0.04999999999999716,0.0,0.0,0.0,0.0,0.0,1.1200000000000045,0.0,0.0,0.0,0.0,0.0,2.0,0.9900000000000091,0.9899999999999949,0.0,0.0,0.0,1.660000000000025,0.0,0.0,0.0,0.0,0.0,0.0,0.0,0.0,0.8400000000000034,1.9599999999999937,1.0,0.0,0.0,0.0,0.0,0.009999999999990905,0.0,0.0,0.0,0.0,0.0,0.12000000000000455,0.0,0.0,0.3400000000000034,0.0,0.0,21.0,0.0,0.0,0.0,0.0,0.21999999999999886,0.0,0.0,0.060000000000002274,0.4900000000000091,0.0,0.0,0.0,0.14000000000000057,0.0,0.0,0.0,0.0,0.9699999999999989,0.0,0.0,0.0,0.0,0.0,0.11000000000001364,1.9199999999999875,0.0,0.9900000000000091,0.0,0.01999999999999602,0.20999999999999375,0.0,21.0,0.0,0.0,0.0,1.9399999999999977,0.0,0.0,0.030000000000001137,0.0,0.0,0.0,0.0,0.0,0.0,0.29999999999999716,0.0,0.0,0.0,0.0,0.0,0.660000000000025,0.0,0.28000000000000114,0.0,0.0,8.909999999999997,0.020000000000010232,0.0,0.0,0.0,0.0,0.0,0.01999999999999602,0.0,0.0,0.0,0.0,0.22999999999998977,0.0,0.0,0.0,1.960000000000008,0.0,0.0,0.03999999999999915,0.0,0.0,0.0,0.0,0.0,1.980000000000004,0.0,0.0
2026-07-21T15:32:20.675,0.1764,0.0,0.0,0.010000000000005116,0.0,0.0,0.0,0.0,0.0,0.0,0.0,0.0,0.0,0.0,0.0,0.0,0.0,0.0,0.0,0.0,0.0,0.0,0.0,0.0,0.0,0.0,0.0,9.009999999999991,0.0,1.980000000000004,0.0,0.0,0.0,0.0,0.18000000000000682,0.0,2.7900000000000063,0.0,0.0,0.0,0.0,0.0,0.0,1.1100000000000136,0.0,0.0,0.0,0.0,0.03999999999999204,0.0,0.0,0.0,0.0,0.0,0.0,0.0,0.0,0.0,0.0,1.960000000000008,0.18999999999999773,0.25,0.0,0.20999999999999375,0.8400000000000034,0.0,0.0,0.0,0.0,0.0,0.0,0.0,0.0,0.0,0.0,0.010000000000005116,0.0,1.4399999999999977,0.0,0.0,0.0,0.0,0.0,0.0,0.0,0.0,0.0,0.0,0.0,0.0,0.0,0.0,0.20000000000000284,10.700000000000003,0.060000000000002274,0.25,0.0,0.0,0.0,0.0,0.0,0.0,0.0,0.030000000000001137,0.0,0.01999999999999602,0.0,0.12000000000000455,0.0,0.0,0.01999999999999602,0.0,0.0,0.0,0.0,0.0,0.0,0.0,0.0,0.0,0.0,0.04000000000000625,0.0,23.659999999999997,0.0,0.0,0.04999999999999716,0.0,0.0,0.0,0.0,0.0,1.1200000000000045,0.0,0.0,0.0,0.0,0.0,2.0,0.9900000000000091,0.9899999999999949,0.0,0.0,0.0,1.660000000000025,0.0,0.0,0.0,0.0,0.0,0.0,0.0,0.0,0.8400000000000034,0.0,1.0,0.0,0.0,0.0,0.0,0.009999999999990905,0.0,0.0,0.0,0.0,0.0,0.12000000000000455,0.0,0.3200000000000003,0.3400000000000034,0.0,0.0,21.0,0.0,0.0,0.0,0.0,0.21999999999999886,0.0,0.0,0.060000000000002274,0.4900000000000091,0.0,0.0,0.0,0.14000000000000057,0.0,0.0,0.0,0.0,0.0,0.0,0.0,0.0,0.0,0.0,0.11000000000001364,1.9199999999999875,0.0,0.9900000000000091,0.0,0.01999999999999602,0.20999999999999375,0.0,0.0,0.0,0.0,0.0,1.9399999999999977,0.0,0.0,0.030000000000001137,0.0,0.0,0.0,0.0,0.0,0.0,0.29999999999999716,0.0,0.0,0.0,0.0,0.0,0.660000000000025,0.0,0.28000000000000114,0.0,0.0,8.909999999999997,0.020000000000010232,0.0,0.0,0.0,0.0,0.0,0.01999999999999602,0.0,0.9599999999999937,0.0,0.0,0.22999999999998977,0.0,0.0,0.0,1.960000000000008,0.0,0.0,0.03999999999999915,0.0,0.0,0.0,0.0,0.0,0.0,0.0,0.0
2026-07-21T15:32:20.675,0.1764,0.0,0.0,0.010000000000005116,0.0,0.0,0.0,0.0,0.0,0.0,0.0,0.0,0.0,0.0,0.0,0.0,0.0,0.0,0.0,0.0,0.0,0.0,0.0,0.0,0.0,0.0,0.0,9.009999999999991,0.0,1.980000000000004,0.0,0.0,0.0,0.0,0.18000000000000682,0.0,2.7900000000000063,0.0,0.0,0.0,0.0,0.0,0.0,1.1100000000000136,0.0,0.0,0.0,0.0,0.03999999999999204,0.0,0.0,0.0,0.0,0.0,0.0,0.0,0.0,0.0,0.0,1.960000000000008,0.18999999999999773,0.25,0.0,0.0,0.8400000000000034,0.0,0.0,0.0,0.0,0.0,0.0,0.0,0.0,0.0,0.0,0.010000000000005116,0.0,1.4399999999999977,0.14000000000000057,0.0,0.0,0.0,0.0,0.0,0.0,0.0,0.0,0.0,0.0,0.0,0.0,0.0,0.20000000000000284,8.700000000000003,0.060000000000002274,0.25,0.0,0.0,0.0,0.0,0.0,0.0,0.0,0.0,0.0,0.01999999999999602,0.0,0.12000000000000455,0.0,0.0,0.01999999999999602,0.0,0.0,0.0,0.0,0.0,0.0,0.0,0.0,0.0,0.0,0.04000000000000625,0.0,23.659999999999997,0.0,0.0,0.04999999999999716,0.0,0.0,0.0,0.0,0.0,1.1200000000000045,6.280000000000001,0.0,0.0,0.0,0.0,0.0,0.9900000000000091,0.9899999999999949,0.0,0.0,0.0,1.660000000000025,0.0,0.0,0.0,0.0,0.0,0.0,0.0,0.0,0.8400000000000034,0.0,1.0,0.0,0.0,0.0,12.870000000000005,0.009999999999990905,0.0,0.0,0.0,0.0,0.0,0.12000000000000455,28.0,0.3200000000000003,0.3400000000000034,0.0,0.0,21.0,0.0,0.0,0.0,8.139999999999986,0.21999999999999886,0.0,0.0,0.060000000000002274,0.4900000000000091,0.0,0.0,0.0,0.14000000000000057,0.0,0.0,0.0,0.0,0.9699999999999989,0.0,0.0,0.0,0.0,0.0,0.11000000000001364,1.9199999999999875,1.9399999999999977,0.9900000000000091,0.0,0.01999999999999602,0.20999999999999375,0.0,21.0,0.0,0.0,0.0,1.9399999999999977,0.0,0.0,0.030000000000001137,0.0,0.0,0.0,0.0,0.0,0.0,0.29999999999999716,0.0,0.0,0.0,0.0,0.0,0.660000000000025,0.0,0.28000000000000114,0.0,0.0,8.909999999999997,0.020000000000010232,0.0,0.0,0.0,0.0,0.0,0.01999999999999602,0.0,0.9599999999999937,0.0,0.0,0.22999999999998977,0.0,0.0,0.0,1.960000000000008,0.0,0.0,0.03999999999999915,0.0,0.0,0.0,0.0,0.0,1.980000000000004,0.0,0.0
2026-07-21T15:32:20.675,0.1764,0.0,0.0,0.010000000000005116,0.0,0.0,0.0,0.0,0.0,0.0,0.0,0.0,0.0,0.0,0.0,0.0,0.0,0.0,0.7700000000000102,0.0,0.0,0.0,0.0,0.0,0.0,0.0,0.0,9.009999999999991,0.0,1.980000000000004,11.879999999999995,0.0,0.0,63.05000000000001,0.18000000000000682,0.0,0.0,0.0,0.0,0.0,0.0,0.0,0.0,3.1100000000000136,0.0,0.0,0.0,0.0,0.03999999999999204,0.0,0.0,0.0,0.0,0.0,0.0,0.0,0.0,0.0,0.0,1.960000000000008,0.18999999999999773,0.25,0.0,0.20999999999999375,0.8400000000000034,0.0,0.0,0.0,0.0,0.0,0.0,0.0,0.0,0.0,0.0,0.010000000000005116,0.0,1.4399999999999977,0.14000000000000057,0.0,0.0,0.0,0.0,0.0,0.0,0.0,0.0,0.0,0.0,0.0,0.0,0.0,0.20000000000000284,8.700000000000003,0.060000000000002274,0.25,0.0,0.0,0.0,0.0,0.0,0.0,0.0,0.0,0.0,0.01999999999999602,0.0,0.12000000000000455,0.0,0.0,0.01999999999999602,0.0,0.0,0.0,0.0,0.0,0.0,0.0,0.0,0.0,0.0,0.04000000000000625,0.0,23.659999999999997,0.0,0.0,0.04999999999999716,0.0,0.5600000000000023,0.0,0.0,0.0,1.1200000000000045,6.280000000000001,0.0,0.0,0.0,0.0,0.0,0.9900000000000091,0.9899999999999949,0.0,0.0,0.0,1.660000000000025,0.0,0.0,0.0,0.0,0.0,0.0,0.0,0.0,0.8400000000000034,0.0,1.0,0.0,0.0,0.0,0.0,2.009999999999991,0.0,0.0,0.0,0.0,0.0,0.12000000000000455,0.0,0.3200000000000003,0.3400000000000034,0.0,0.0,21.0,0.0,0.0,0.0,8.139999999999986,0.21999999999999886,0.0,0.0,0.060000000000002274,0.4900000000000091,0.0,0.0,0.0,0.14000000000000057,0.0,0.0,0.0,0.0,0.0,0.0,0.0,0.0,0.0,0.0,0.11000000000001364,1.9199999999999875,1.9399999999999977,0.9900000000000091,0.0,0.01999999999999602,0.20999999999999375,0.0,21.0,0.0,0.0,0.0,1.9399999999999977,0.0,0.0,0.030000000000001137,0.0,0.0,0.0,0.0,0.0,0.0,0.29999999999999716,0.0,0.0,0.0,0.0,0.0,0.660000000000025,0.0,0.28000000000000114,0.0,0.0,8.909999999999997,0.020000000000010232,0.0,0.0,0.0,0.0,0.0,0.01999999999999602,0.0,0.9599999999999937,0.0,0.0,0.22999999999998977,0.0,0.0,0.0,1.960000000000008,0.0,0.0,0.03999999999999915,0.0,0.0,0.0,1.9599999999999937,0.0,0.0,0.0,0.0
2026-07-21T15:32:20.675,0.1764,0.0,0.0,0.010000000000005116,0.0,0.0,0.0,0.0,0.0,0.0,0.0,0.0,0.0,0.0,0.0,0.0,0.0,0.0,0.7700000000000102,0.0,0.0,0.0,0.0,0.0,0.0,0.0,0.0,9.009999999999991,0.0,1.980000000000004,11.879999999999995,0.0,0.0,0.0,0.18000000000000682,0.0,2.7900000000000063,0.0,0.0,0.0,0.0,0.0,0.0,3.1100000000000136,12.0,0.0,0.0,0.0,0.03999999999999204,0.0,0.0,0.0,0.0,0.0,0.0,0.0,0.0,0.0,0.0,1.960000000000008,0.18999999999999773,0.25,0.0,0.0,0.8400000000000034,0.0,0.0,0.0,0.0,0.0,0.0,0.0,0.0,0.0,0.0,0.010000000000005116,0.0,1.4399999999999977,0.14000000000000057,0.0,0.0,0.0,0.0,0.0,0.0,0.0,0.0,0.0,0.0,0.0,0.0,0.0,0.20000000000000284,0.0,0.060000000000002274,0.25,0.0,0.0,0.0,0.0,0.0,0.0,0.0,0.0,0.0,0.01999999999999602,0.0,0.12000000000000455,0.0,0.0,0.01999999999999602,0.0,0.0,0.0,0.0,0.0,0.0,0.0,0.0,0.0,0.0,0.04000000000000625,0.0,23.659999999999997,0.0,0.0,0.04999999999999716,0.0,0.0,0.0,0.0,0.0,1.1200000000000045,6.280000000000001,0.0,0.0,0.0,0.0,0.0,0.9900000000000091,0.9899999999999949,0.0,0.0,0.0,1.660000000000025,0.0,0.0,0.0,0.0,0.0,0.0,0.0,0.0,0.8400000000000034,1.9599999999999937,1.0,0.0,0.0,0.0,0.0,0.009999999999990905,0.0,0.0,0.0,0.0,0.0,0.12000000000000455,0.0,0.3200000000000003,0.3400000000000034,0.0,0.0,21.0,0.0,0.0,0.0,0.0,0.21999999999999886,0.0,0.0,0.060000000000002274,0.4900000000000091,0.0,0.0,0.0,0.14000000000000057,0.0,0.0,0.0,0.0,0.9699999999999989,0.0,0.0,0.0,0.0,0.0,0.11000000000001364,0.0,1.9399999999999977,0.9900000000000091,0.0,0.01999999999999602,0.20999999999999375,0.0,21.0,0.0,0.0,0.0,1.9399999999999977,0.0,0.0,0.030000000000001137,0.0,0.0,0.0,0.0,0.0,0.0,0.29999999999999716,0.0,0.0,0.0,0.0,0.0,0.660000000000025,0.0,0.28000000000000114,0.0,0.0,8.909999999999997,0.020000000000010232,0.0,0.0,0.0,0.0,0.0,0.01999999999999602,0.0,0.9599999999999937,0.0,0.0,0.22999999999998977,0.0,0.0,0.0,1.960000000000008,0.0,0.0,0.03999999999999915,0.0,0.0,0.0,0.0,0.0,1.980000000000004,0.0,0.0
2026-07-21T15:32:20.675,0.1764,0.0,0.0,0.010000000000005116,0.0,0.0,0.0,0.0,0.0,0.0,0.0,0.0,0.0,0.0,0.0,0.0,0.0,0.0,0.7700000000000102,0.0,0.0,0.0,0.0,0.0,0.0,0.0,0.0,9.009999999999991,0.0,1.980000000000004,0.0,0.0,0.0,0.0,0.18000000000000682,0.0,2.7900000000000063,0.0,0.0,0.0,0.0,0.0,0.0,3.1100000000000136,0.0,0.0,0.0,0.0,0.03999999999999204,0.0,0.0,0.0,0.0,0.0,0.0,0.0,0.0,0.0,0.0,1.960000000000008,0.18999999999999773,0.25,0.0,0.0,0.8400000000000034,0.0,0.0,0.0,0.0,0.0,0.0,0.0,0.0,0.0,0.0,0.010000000000005116,0.0,1.4399999999999977,0.14000000000000057,0.0,0.0,0.0,0.0,0.0,0.0,0.0,0.0,0.0,0.0,0.0,0.0,0.0,0.20000000000000284,8.700000000000003,0.060000000000002274,0.25,0.0,0.0,0.0,0.0,0.0,0.0,0.0,0.030000000000001137,0.0,0.01999999999999602,0.0,0.12000000000000455,0.0,0.0,0.01999999999999602,0.0,0.0,0.0,0.0,0.0,0.0,0.0,0.0,0.0,0.0,0.04000000000000625,0.0,23.659999999999997,0.0,0.0,0.04999999999999716,0.0,0.0,0.0,0.0,0.0,1.1200000000000045,6.280000000000001,0.0,0.0,0.0,0.0,0.0,0.9900000000000091,0.9899999999999949,0.0,0.0,0.0,1.660000000000025,0.0,0.0,0.0,0.0,0.0,0.0,0.0,0.0,0.8400000000000034,0.0,1.0,0.0,0.0,0.0,0.0,0.009999999999990905,0.0,0.0,0.0,0.0,0.0,0.12000000000000455,0.0,0.3200000000000003,0.3400000000000034,0.0,0.0,21.0,0.0,0.0,0.0,0.0,0.21999999999999886,0.0,0.0,0.060000000000002274,0.4900000000000091,0.0,0.0,5.280000000000001,0.14000000000000057,0.0,0.0,0.0,0.0,0.0,0.0,0.0,0.0,0.0,0.0,0.11000000000001364,1.9199999999999875,0.0,0.9900000000000091,0.0,0.01999999999999602,0.20999999999999375,0.0,21.0,0.0,0.0,0.0,1.9399999999999977,0.0,0.0,0.030000000000001137,0.0,0.0,0.0,0.0,0.0,0.0,0.29999999999999716,0.0,0.0,0.0,0.0,0.0,0.660000000000025,0.0,0.28000000000000114,0.0,0.0,8.909999999999997,0.020000000000010232,0.0,0.0,0.0,0.0,0.0,0.01999999999999602,0.0,0.9599999999999937,0.0,0.0,0.22999999999998977,0.0,0.0,0.0,1.960000000000008,0.0,0.0,0.03999999999999915,0.0,0.0,0.0,1.9599999999999937,0.0,0.0,0.0,0.0
2026-07-21T15:32:20.675,0.1764,0.0,0.0,0.010000000000005116,0.0,0.0,0.0,0.0,0.0,0.0,0.0,0.0,0.0,0.0,0.0,0.0,0.0,0.0,0.7700000000000102,0.0,0.0,0.0,0.0,0.0,0.0,0.0,0.0,9.009999999999991,0.0,1.980000000000004,0.0,0.0,0.0,0.0,0.18000000000000682,0.0,2.7900000000000063,0.0,0.0,0.0,0.0,0.0,0.0,3.1100000000000136,0.0,0.0,0.0,0.0,0.03999999999999204,0.0,0.0,0.0,0.0,0.0,0.0,0.0,0.0,0.0,0.0,1.960000000000008,2.1899999999999977,0.25,0.0,0.20999999999999375,0.8400000000000034,0.0,0.0,0.0,0.0,0.0,0.0,0.0,0.0,0.0,0.0,0.010000000000005116,0.0,1.4399999999999977,0.14000000000000057,0.0,0.0,0.0,0.0,0.0,0.0,0.0,0.0,0.0,0.0,0.0,0.0,0.0,0.20000000000000284,8.700000000000003,0.060000000000002274,0.25,0.0,0.0,0.0,0.0,0.0,0.0,0.0,0.0,0.0,0.01999999999999602,0.0,0.12000000000000455,0.0,0.0,0.01999999999999602,0.0,0.0,0.0,0.0,0.0,0.0,0.0,0.0,0.0,0.0,0.04000000000000625,0.0,23.659999999999997,0.0,0.0,0.04999999999999716,0.0,0.0,0.0,0.0,0.0,1.1200000000000045,6.280000000000001,0.0,0.0,0.0,0.0,0.0,0.9900000000000091,0.9899999999999949,0.0,0.0,0.0,1.660000000000025,0.0,0.0,0.0,0.0,0.0,0.0,0.0,0.0,0.8400000000000034,0.0,1.0,0.0,0.0,0.0,0.0,0.009999999999990905,0.0,0.0,0.0,0.0,0.0,0.12000000000000455,0.0,0.3200000000000003,0.3400000000000034,0.0,0.0,21.0,0.0,0.0,0.0,0.0,0.21999999999999886,0.0,0.0,0.0,0.4900000000000091,0.0,0.0,0.0,0.14000000000000057,0.0,0.0,0.0,0.0,0.0,0.0,1.990000000000009,0.0,0.0,0.0,0.11000000000001364,1.9199999999999875,0.0,0.9900000000000091,0.0,0.01999999999999602,0.20999999999999375,0.0,21.0,0.0,0.0,0.0,1.9399999999999977,0.0,0.0,0.030000000000001137,0.0,0.0,0.0,0.0,0.0,0.0,0.29999999999999716,0.0,0.0,0.0,0.0,0.0,0.660000000000025,0.0,0.28000000000000114,0.0,4.560000000000002,0.0,0.020000000000010232,0.0,0.0,0.0,0.0,0.0,0.01999999999999602,0.0,0.9599999999999937,0.0,0.0,0.22999999999998977,0.0,0.0,0.0,1.960000000000008,0.0,0.0,0.03999999999999915,0.0,0.0,0.0,1.9599999999999937,0.0,1.980000000000004,0.0,0.0
2026-07-21T15:32:20.675,0.1764,0.0,0.0,0.010000000000005116,0.0,0.0,0.0,0.0,0.0,0.0,0.0,0.0,0.0,0.0,0.0,0.0,0.0,0.0,0.7700000000000102,0.0,0.0,0.0,0.0,0.0,0.0,0.0,0.0,9.009999999999991,0.0,1.980000000000004,0.0,0.0,0.0,63.05000000000001,0.18000000000000682,0.0,0.0,0.0,0.0,0.0,0.0,0.0,0.0,3.1100000000000136,0.0,0.0,0.0,0.0,0.03999999999999204,0.0,0.0,0.0,0.0,0.0,0.0,0.0,0.0,0.0,0.0,1.960000000000008,0.18999999999999773,0.25,0.0,0.20999999999999375,0.8400000000000034,0.0,0.0,0.0,0.0,0.0,0.0,0.0,0.0,0.0,0.0,0.010000000000005116,0.0,1.4399999999999977,0.14000000000000057,0.0,0.0,0.0,0.0,0.0,0.0,0.0,0.0,0.0,0.0,0.0,13.86,0.0,0.20000000000000284,10.700000000000003,0.060000000000002274,0.25,0.0,0.0,0.0,0.0,0.0,0.0,0.0,0.0,0.0,0.01999999999999602,0.0,0.12000000000000455,0.0,0.0,0.01999999999999602,0.0,0.0,0.0,0.0,0.0,0.0,0.0,0.0,0.0,0.0,0.04000000000000625,0.0,23.659999999999997,0.0,0.0,0.04999999999999716,0.0,0.0,0.0,0.0,0.0,1.1200000000000045,6.280000000000001,0.0,0.0,0.0,0.0,0.0,0.9900000000000091,0.9899999999999949,0.0,0.0,0.0,1.660000000000025,0.0,0.0,0.0,0.0,0.0,0.0,0.0,0.0,0.8400000000000034,0.0,1.0,0.0,0.0,0.0,0.0,0.009999999999990905,0.0,0.0,0.0,0.0,0.0,0.12000000000000455,0.0,0.3200000000000003,0.3400000000000034,0.0,0.0,21.0,0.0,0.0,0.0,8.139999999999986,0.21999999999999886,0.0,0.0,0.060000000000002274,0.4900000000000091,0.0,0.0,0.0,0.14000000000000057,0.0,0.0,0.0,0.0,0.0,0.0,0.0,0.0,0.0,0.0,0.11000000000001364,1.9199999999999875,1.9399999999999977,0.9900000000000091,0.0,0.01999999999999602,0.20999999999999375,0.0,21.0,0.0,0.0,0.0,1.9399999999999977,0.0,0.0,0.030000000000001137,0.0,0.0,0.0,0.0,0.0,0.0,0.29999999999999716,0.0,0.0,0.0,0.0,0.0,0.660000000000025,0.0,0.28000000000000114,0.0,0.0,8.909999999999997,0.020000000000010232,0.0,0.0,0.0,0.0,0.0,0.01999999999999602,0.0,0.9599999999999937,0.0,0.0,0.22999999999998977,0.0,0.0,0.0,1.960000000000008,0.0,0.0,0.03999999999999915,0.0,0.0,0.0,1.9599999999999937,0.0,0.0,0.0,0.0
2026-07-21T15:32:20.675,0.1764,0.0,0.0,0.010000000000005116,0.0,0.0,0.0,0.0,0.0,0.0,0.0,0.0,0.0,0.0,0.0,0.0,0.0,0.0,0.7700000000000102,0.0,0.0,0.0,0.0,0.0,0.0,0.0,0.0,9.009999999999991,0.0,1.980000000000004,0.0,0.0,0.0,0.0,0.18000000000000682,0.0,0.0,0.0,0.0,0.0,0.0,0.0,0.0,3.1100000000000136,0.0,0.0,0.0,0.0,0.03999999999999204,0.0,0.0,0.0,0.0,0.0,0.0,0.0,0.0,0.0,0.0,1.960000000000008,0.18999999999999773,0.25,0.0,0.20999999999999375,0.8400000000000034,0.0,0.0,0.0,0.0,0.0,0.0,0.0,0.0,0.0,0.0,0.010000000000005116,0.0,1.4399999999999977,0.14000000000000057,0.0,0.0,0.0,0.0,0.0,0.0,0.0,0.0,0.0,0.0,0.0,0.0,0.0,0.20000000000000284,8.700000000000003,0.060000000000002274,0.25,0.0,0.0,0.0,0.0,0.0,0.0,0.0,0.0,0.0,0.01999999999999602,0.0,0.12000000000000455,0.0,0.0,0.01999999999999602,0.0,0.0,0.0,0.0,0.0,0.0,0.0,0.0,0.0,0.0,0.04000000000000625,0.0,23.659999999999997,0.0,0.0,0.04999999999999716,0.0,0.0,0.0,0.0,0.0,1.1200000000000045,6.280000000000001,0.0,0.0,0.0,0.0,0.0,0.9900000000000091,0.9899999999999949,0.0,0.0,0.0,1.660000000000025,0.0,0.0,0.0,0.0,0.0,0.0,0.0,0.0,0.8400000000000034,0.0,1.0,0.0,0.0,0.0,0.0,0.009999999999990905,0.0,0.0,0.0,0.0,0.0,0.12000000000000455,0.0,0.3200000000000003,0.3400000000000034,0.0,0.0,21.0,0.0,0.0,0.0,8.139999999999986,0.21999999999999886,0.0,0.0,0.060000000000002274,0.4900000000000091,0.0,0.0,0.0,0.14000000000000057,0.0,0.0,0.0,0.0,0.9699999999999989,0.0,0.0,0.0,0.0,0.0,0.11000000000001364,1.9199999999999875,0.0,0.9900000000000091,0.0,0.01999999999999602,0.20999999999999375,0.0,21.0,0.0,0.0,0.0,1.9399999999999977,0.0,0.0,0.030000000000001137,0.0,0.0,0.0,0.0,0.0,0.0,0.29999999999999716,0.0,0.0,0.0,0.0,0.0,0.660000000000025,0.0,0.28000000000000114,0.0,0.0,8.909999999999997,0.020000000000010232,0.0,0.0,0.0,0.0,0.0,0.01999999999999602,0.0,0.9599999999999937,0.0,0.0,0.22999999999998977,0.0,0.0,0.0,1.960000000000008,0.0,0.0,0.03999999999999915,0.0,0.0,0.0,0.0,0.0,1.980000000000004,0.0,0.0
2026-07-21T15:32:20.675,0.1764,0.0,0.0,0.010000000000005116,0.0,0.0,0.0,0.0,0.0,0.0,0.0,0.0,0.0,0.0,0.0,0.0,0.0,0.0,0.7700000000000102,0.0,0.0,0.0,0.0,0.0,0.0,0.0,0.0,9.009999999999991,0.0,1.980000000000004,11.879999999999995,0.0,0.0,0.0,0.18000000000000682,0.0,2.7900000000000063,0.0,0.0,0.0,0.0,0.0,0.0,1.1100000000000136,0.0,0.0,0.0,0.0,0.03999999999999204,0.0,0.0,0.0,0.0,0.0,0.0,0.0,0.0,0.0,0.0,1.960000000000008,2.1899999999999977,0.25,0.0,0.0,0.8400000000000034,0.0,0.0,0.0,0.0,0.0,0.0,0.0,0.0,0.0,0.0,0.010000000000005116,0.0,1.4399999999999977,0.14000000000000057,0.0,0.0,0.0,0.0,0.0,0.0,0.0,0.0,0.0,0.0,0.0,0.0,0.0,0.20000000000000284,8.700000000000003,0.060000000000002274,0.25,0.0,0.0,0.0,0.0,0.0,0.0,0.0,0.0,0.0,0.01999999999999602,0.0,0.12000000000000455,0.0,0.0,0.01999999999999602,0.0,0.0,0.0,0.0,0.0,0.0,0.0,0.0,0.0,0.0,0.04000000000000625,0.0,23.659999999999997,0.0,0.0,0.04999999999999716,0.0,0.0,0.0,0.0,0.0,1.1200000000000045,0.0,0.0,0.0,0.0,0.0,0.0,0.9900000000000091,0.9899999999999949,0.0,0.0,0.0,1.660000000000025,0.0,0.0,0.0,0.0,0.0,0.0,0.0,0.0,0.8400000000000034,0.0,1.0,0.0,13.86,0.0,0.0,0.009999999999990905,0.0,0.0,0.0,0.0,0.0,0.12000000000000455,0.0,0.3200000000000003,0.3400000000000034,0.0,0.0,21.0,0.0,0.0,0.0,8.139999999999986,0.21999999999999886,0.0,0.0,0.060000000000002274,0.4900000000000091,0.0,0.0,0.0,0.14000000000000057,0.0,0.0,0.0,0.0,0.9699999999999989,0.0,0.0,0.0,0.0,0.0,0.11000000000001364,1.9199999999999875,1.9399999999999977,0.9900000000000091,0.0,0.01999999999999602,0.20999999999999375,0.0,21.0,0.0,0.0,0.0,1.9399999999999977,0.0,0.0,0.030000000000001137,0.0,0.0,0.0,0.0,0.0,0.0,0.29999999999999716,0.0,0.0,0.0,0.0,0.0,1.660000000000025,0.0,0.28000000000000114,0.0,0.0,0.0,0.020000000000010232,0.0,0.0,0.0,0.0,0.0,0.01999999999999602,0.0,0.9599999999999937,0.0,0.0,0.22999999999998977,0.0,0.0,0.0,1.960000000000008,0.0,0.0,0.03999999999999915,0.0,0.0,0.0,1.9599999999999937,0.0,0.0,0.0,0.0
2026-07-21T15:32:20.675,0.1764,0.0,0.0,0.010000000000005116,0.0,0.0,0.0,0.0,0.0,0.0,0.0,0.0,0.0,0.0,0.0,0.0,0.0,0.0,0.0,0.0,0.0,0.0,0.0,0.0,0.0,0.0,0.0,9.009999999999991,0.0,1.980000000000004,0.0,0.0,1.8899999999999864,0.0,0.18000000000000682,0.0,2.7900000000000063,0.0,0.0,0.0,0.0,0.0,0.0,3.1100000000000136,0.0,0.0,0.0,0.0,0.03999999999999204,0.0,0.0,0.0,0.0,0.0,0.0,0.0,0.0,0.0,0.0,1.960000000000008,0.18999999999999773,0.25,0.0,0.20999999999999375,0.8400000000000034,0.0,0.0,0.0,0.0,0.0,0.0,0.0,0.0,0.0,0.0,0.010000000000005116,0.0,1.4399999999999977,0.14000000000000057,0.0,0.0,0.0,0.0,0.0,0.0,0.0,0.0,0.0,0.0,0.0,0.0,0.0,0.20000000000000284,8.700000000000003,0.060000000000002274,0.25,0.0,0.0,0.0,0.0,0.0,0.020000000000010232,0.0,0.0,0.0,0.01999999999999602,0.0,0.12000000000000455,0.0,0.0,0.01999999999999602,0.0,0.0,0.0,0.0,0.0,0.0,0.0,0.0,0.0,0.0,0.04000000000000625,0.0,23.659999999999997,0.0,0.0,0.04999999999999716,0.0,0.0,0.0,0.0,0.0,1.1200000000000045,6.280000000000001,0.0,0.0,0.0,0.0,2.0,13.990000000000009,0.9899999999999949,0.0,0.0,0.0,1.660000000000025,0.0,0.0,0.0,0.0,0.0,0.0,0.0,0.0,0.8400000000000034,0.0,1.0,0.0,0.0,0.0,0.0,0.009999999999990905,0.0,0.0,0.0,0.0,0.0,0.12000000000000455,0.0,0.3200000000000003,0.3400000000000034,0.0,0.0,21.0,0.0,0.0,0.0,0.0,0.21999999999999886,0.0,0.0,0.060000000000002274,0.4900000000000091,0.0,0.0,0.0,0.14000000000000057,0.0,0.0,0.0,0.0,0.9699999999999989,0.0,0.0,0.0,0.0,0.0,0.11000000000001364,1.9199999999999875,0.0,0.9900000000000091,0.0,0.01999999999999602,0.20999999999999375,0.0,21.0,0.0,0.0,0.0,1.9399999999999977,0.0,0.0,0.030000000000001137,0.0,0.0,0.0,0.0,0.0,0.0,0.29999999999999716,0.0,0.0,0.0,0.0,0.0,0.660000000000025,0.0,0.28000000000000114,0.0,0.0,8.909999999999997,0.020000000000010232,0.0,0.0,0.0,0.0,0.0,0.01999999999999602,0.0,0.0,0.0,0.0,0.22999999999998977,0.0,0.0,0.0,0.0,0.0,0.0,0.03999999999999915,0.0,0.0,0.0,1.9599999999999937,0.0,1.980000000000004,0.0,0.0
2026-07-21T15:32:20.675,0.1764,0.0,0.0,0.010000000000005116,0.0,0.0,0.0,0.0,0.0,0.0,0.0,0.0,0.0,0.0,0.0,0.0,0.0,0.0,0.7700000000000102,0.0,0.0,0.0,0.0,0.0,0.0,0.0,0.0,9.009999999999991,0.0,1.980000000000004,0.0,0.0,0.0,0.0,0.18000000000000682,0.0,2.7900000000000063,0.0,0.0,0.0,0.0,0.0,0.0,3.1100000000000136,0.0,0.0,0.0,0.0,0.03999999999999204,0.0,0.0,0.0,0.0,0.0,0.0,0.0,0.0,0.0,0.0,1.960000000000008,0.18999999999999773,0.25,0.0,0.0,0.8400000000000034,0.0,0.0,0.0,0.0,0.0,0.0,0.0,0.0,0.0,0.0,0.010000000000005116,0.0,1.4399999999999977,0.14000000000000057,0.0,0.0,0.0,0.0,0.0,0.0,0.0,0.0,0.0,0.0,0.0,0.0,0.0,0.20000000000000284,8.700000000000003,0.060000000000002274,0.25,0.0,0.0,0.0,0.0,0.0,0.0,0.0,0.0,0.0,0.01999999999999602,0.0,0.12000000000000455,0.0,0.0,0.01999999999999602,0.0,0.0,0.0,0.0,0.0,0.0,0.0,0.0,0.0,0.0,0.04000000000000625,0.0,23.659999999999997,0.0,0.0,0.04999999999999716,0.0,0.0,0.0,0.0,0.0,2.1200000000000045,6.280000000000001,0.0,0.0,0.0,0.0,0.0,0.9900000000000091,0.9899999999999949,0.0,0.0,0.0,1.660000000000025,0.0,0.0,0.0,0.0,0.0,0.0,0.0,0.0,0.8400000000000034,0.0,1.0,0.0,0.0,0.0,0.0,0.009999999999990905,0.0,0.0,0.0,0.0,0.0,0.12000000000000455,0.0,0.0,0.3400000000000034,0.0,0.0,21.0,0.0,0.0,0.0,8.139999999999986,0.21999999999999886,0.0,0.0,0.060000000000002274,0.4900000000000091,0.0,0.0,0.0,0.14000000000000057,0.0,0.0,0.0,0.0,0.9699999999999989,0.0,0.0,0.0,0.0,0.0,0.11000000000001364,1.9199999999999875,0.0,0.9900000000000091,0.0,0.01999999999999602,0.20999999999999375,0.0,21.0,0.0,0.0,0.0,1.9399999999999977,0.0,0.0,0.030000000000001137,0.0,0.0,0.0,0.0,0.0,0.0,0.29999999999999716,0.0,0.0,0.0,0.0,0.0,0.660000000000025,0.0,0.28000000000000114,0.0,0.0,8.909999999999997,0.020000000000010232,0.0,0.0,0.0,0.0,0.0,0.01999999999999602,0.0,0.9599999999999937,0.0,0.0,0.22999999999998977,0.0,0.0,0.0,1.960000000000008,0.0,0.0,0.03999999999999915,0.0,0.0,0.0,1.9599999999999937,0.0,1.980000000000004,0.0,0.0
2026-07-21T15:32:20.675,0.1764,0.0,0.0,0.010000000000005116,0.0,0.0,0.0,0.0,0.0,0.0,0.0,0.0,0.0,0.0,0.0,0.0,0.0,0.0,0.7700000000000102,0.0,0.0,0.0,0.0,0.0,0.0,0.0,0.0,9.009999999999991,0.0,1.980000000000004,11.879999999999995,0.0,0.0,63.05000000000001,0.18000000000000682,0.0,2.7900000000000063,0.0,0.0,0.0,0.0,0.0,0.0,3.1100000000000136,0.0,0.0,0.0,0.0,0.03999999999999204,0.0,0.0,0.0,0.0,0.0,0.0,0.0,0.0,0.0,0.0,1.960000000000008,0.18999999999999773,0.25,0.0,0.0,0.8400000000000034,0.0,0.0,0.0,0.0,0.0,0.0,0.0,0.0,0.0,0.0,0.010000000000005116,0.0,1.4399999999999977,0.14000000000000057,0.0,0.0,0.0,0.0,0.0,0.0,0.0,0.0,0.0,0.0,0.0,0.0,0.0,0.20000000000000284,0.0,0.060000000000002274,0.25,0.0,0.0,0.0,0.0,0.0,0.0,0.0,0.030000000000001137,0.0,0.01999999999999602,0.0,0.12000000000000455,0.0,0.0,0.01999999999999602,0.0,0.0,0.0,0.0,0.0,0.0,0.0,0.0,0.0,0.0,0.04000000000000625,0.0,23.659999999999997,0.0,0.0,0.04999999999999716,0.0,0.0,0.0,0.0,0.0,1.1200000000000045,6.280000000000001,0.0,0.0,0.0,0.0,0.0,0.9900000000000091,0.9899999999999949,0.0,0.0,0.0,1.660000000000025,0.0,0.0,0.0,0.0,0.0,0.0,0.0,0.0,0.8400000000000034,0.0,1.0,0.0,0.0,0.0,0.0,0.009999999999990905,0.0,0.0,0.0,0.0,0.0,0.0,0.0,0.3200000000000003,0.3400000000000034,0.0,0.0,21.0,0.0,0.0,0.0,8.139999999999986,0.21999999999999886,0.0,0.0,0.060000000000002274,0.4900000000000091,0.0,0.0,0.0,0.14000000000000057,1.980000000000004,0.0,0.0,0.0,0.0,0.9699999999999989,0.0,0.0,0.0,0.0,0.11000000000001364,1.9199999999999875,0.0,0.9900000000000091,0.0,0.01999999999999602,0.20999999999999375,0.0,21.0,0.0,0.0,0.0,1.9399999999999977,0.0,0.0,0.030000000000001137,0.0,0.0,0.0,0.0,0.0,0.0,0.29999999999999716,0.0,0.0,0.0,0.0,0.0,0.660000000000025,0.0,0.28000000000000114,0.0,4.560000000000002,0.0,0.020000000000010232,0.0,0.0,0.0,0.0,0.0,0.01999999999999602,0.0,0.9599999999999937,0.0,0.0,0.22999999999998977,0.0,0.0,0.0,1.960000000000008,0.0,0.0,0.03999999999999915,0.0,0.0,0.0,1.9599999999999937,0.0,1.980000000000004,0.0,0.0
2026-07-21T15:32:20.675,0.1764,0.0,0.0,0.010000000000005116,0.0,0.0,0.0,0.0,0.0,0.0,0.0,0.0,0.0,0.0,0.0,0.0,0.0,0.0,0.7700000000000102,0.0,0.0,0.0,0.0,0.0,0.0,0.0,0.0,9.009999999999991,0.0,1.980000000000004,11.879999999999995,0.0,0.0,0.0,0.18000000000000682,0.0,0.0,0.0,0.0,0.0,0.0,0.0,0.0,3.1100000000000136,0.0,0.0,0.0,0.0,0.03999999999999204,0.0,0.0,0.0,0.0,0.0,0.0,0.0,0.0,0.0,0.0,1.960000000000008,0.18999999999999773,0.25,0.0,0.0,0.8400000000000034,0.0,0.0,0.0,0.0,0.0,0.0,0.0,0.0,0.0,0.0,0.010000000000005116,0.0,1.4399999999999977,0.14000000000000057,0.0,0.0,0.0,0.0,0.0,0.0,0.0,0.0,0.0,0.0,0.0,0.0,0.0,0.20000000000000284,8.700000000000003,0.060000000000002274,0.25,0.0,0.0,0.0,0.0,0.0,0.0,0.0,0.0,0.0,0.01999999999999602,0.0,0.12000000000000455,0.0,0.0,0.01999999999999602,0.0,0.0,0.0,0.0,0.0,0.0,0.0,0.0,0.0,0.0,0.04000000000000625,0.0,23.659999999999997,0.0,0.0,0.04999999999999716,0.0,0.5600000000000023,0.0,0.0,0.0,1.1200000000000045,6.280000000000001,0.0,0.0,0.0,0.0,2.0,0.9900000000000091,0.9899999999999949,0.0,0.0,0.0,1.660000000000025,0.0,0.0,0.0,0.0,0.0,0.0,0.0,0.0,0.8400000000000034,0.0,1.0,0.0,0.0,0.0,0.0,0.009999999999990905,0.0,0.0,0.0,0.0,0.0,0.12000000000000455,0.0,0.0,0.3400000000000034,0.0,0.0,21.0,0.0,0.0,0.0,0.0,0.21999999999999886,0.0,0.0,0.060000000000002274,0.4900000000000091,0.0,0.0,0.0,0.14000000000000057,0.0,0.0,0.0,0.0,0.0,0.9699999999999989,1.990000000000009,0.0,0.0,0.0,0.11000000000001364,1.9199999999999875,1.9399999999999977,0.9900000000000091,0.0,0.01999999999999602,0.20999999999999375,0.0,21.0,0.0,0.0,0.0,1.9399999999999977,0.0,0.0,0.030000000000001137,0.0,0.0,0.0,0.0,0.0,0.0,0.29999999999999716,0.0,0.0,0.0,0.0,0.0,0.660000000000025,0.0,0.28000000000000114,0.0,0.0,8.909999999999997,0.020000000000010232,0.0,0.0,0.0,0.0,0.0,0.01999999999999602,0.0,0.9599999999999937,0.0,0.0,0.22999999999998977,1.9799999999999898,0.0,0.0,1.960000000000008,0.0,0.0,0.03999999999999915,0.0,0.0,0.0,1.9599999999999937,0.0,0.0,0.0,0.0
2026-07-21T15:32:20.675,0.1764,0.0,0.0,0.010000000000005116,0.0,0.0,0.0,0.0,0.0,0.0,0.0,0.0,0.0,0.0,0.0,0.0,0.0,0.0,0.7700000000000102,0.0,0.0,0.0,0.0,0.0,0.0,0.0,0.0,9.009999999999991,0.0,1.980000000000004,0.0,0.0,0.0,63.05000000000001,0.18000000000000682,0.0,2.7900000000000063,0.0,0.0,0.0,0.0,0.0,0.0,3.1100000000000136,0.0,0.0,0.0,0.0,0.03999999999999204,0.0,0.0,0.0,0.0,0.0,0.0,0.0,0.0,0.0,0.0,1.960000000000008,0.18999999999999773,0.25,0.0,0.0,0.0,0.0,0.0,0.0,0.0,0.0,0.0,0.0,0.0,0.0,0.0,0.010000000000005116,0.0,1.4399999999999977,0.14000000000000057,0.0,0.0,0.0,0.0,0.0,0.0,0.0,0.0,0.0,0.0,0.0,0.0,0.0,0.20000000000000284,10.700000000000003,0.060000000000002274,0.25,0.0,0.0,0.0,0.0,0.0,0.0,0.0,0.0,0.0,0.01999999999999602,0.0,0.12000000000000455,0.0,0.0,0.01999999999999602,0.0,0.0,0.0,0.0,0.0,0.0,0.0,0.0,0.0,0.0,0.0,0.0,23.659999999999997,0.0,0.0,0.04999999999999716,0.0,0.0,0.0,0.0,0.0,1.1200000000000045,6.280000000000001,0.0,0.0,0.0,0.0,2.0,0.9900000000000091,0.9899999999999949,0.0,0.0,0.0,1.660000000000025,0.0,0.0,0.0,0.0,0.0,0.0,0.0,0.0,0.8400000000000034,1.9599999999999937,1.0,0.0,0.0,0.0,0.0,0.009999999999990905,0.0,0.0,0.0,0.0,0.0,0.12000000000000455,0.0,0.3200000000000003,0.3400000000000034,0.0,0.0,21.0,0.0,0.0,0.0,8.139999999999986,0.21999999999999886,0.0,0.0,0.060000000000002274,0.4900000000000091,0.0,0.0,0.0,0.14000000000000057,0.0,0.0,0.0,0.0,0.9699999999999989,0.0,0.0,0.0,0.0,0.0,0.11000000000001364,1.9199999999999875,1.9399999999999977,0.9900000000000091,0.0,0.01999999999999602,0.20999999999999375,0.0,0.0,0.0,0.0,0.0,1.9399999999999977,0.0,0.0,0.030000000000001137,0.0,0.0,0.0,0.0,0.0,0.0,0.29999999999999716,0.0,0.0,0.0,0.0,0.0,0.660000000000025,0.0,0.0,0.0,0.0,8.909999999999997,0.020000000000010232,0.0,0.0,0.0,0.0,0.0,0.01999999999999602,0.0,0.9599999999999937,0.0,0.0,0.22999999999998977,0.0,0.0,0.0,1.960000000000008,0.0,0.0,0.03999999999999915,0.0,0.0,0.0,0.0,0.0,1.980000000000004,0.0,0.0
2026-07-21T15:32:20.675,0.1764,0.0,0.0,0.010000000000005116,0.0,0.0,0.0,0.0,0.0,0.0,0.0,0.0,0.0,0.0,0.0,0.0,0.0,0.0,0.7700000000000102,0.0,0.0,0.0,0.0,0.0,0.0,0.0,0.0,9.009999999999991,0.0,1.980000000000004,0.0,0.0,1.8899999999999864,0.0,0.18000000000000682,0.0,0.0,0.0,0.0,0.0,0.0,0.0,0.0,3.1100000000000136,0.0,0.0,0.0,0.0,0.03999999999999204,0.0,0.0,0.0,0.0,0.0,0.0,0.0,0.0,0.0,0.0,1.960000000000008,0.18999999999999773,0.25,0.0,0.20999999999999375,0.8400000000000034,0.0,0.0,0.0,0.0,0.0,0.0,0.0,0.0,0.0,0.0,0.010000000000005116,0.0,1.4399999999999977,0.14000000000000057,0.0,0.0,0.0,0.0,0.0,0.0,0.0,0.0,0.0,0.0,0.0,0.0,0.0,0.20000000000000284,8.700000000000003,0.060000000000002274,0.25,0.0,0.0,0.0,0.0,0.0,0.020000000000010232,0.0,0.0,0.0,0.01999999999999602,0.0,0.12000000000000455,0.0,0.0,0.01999999999999602,0.0,0.0,0.0,0.0,0.0,0.0,0.0,0.0,0.0,0.0,0.04000000000000625,0.0,23.659999999999997,0.0,0.0,0.04999999999999716,0.0,0.0,0.0,0.0,0.0,1.1200000000000045,0.0,0.0,0.0,0.0,0.0,0.0,0.9900000000000091,0.9899999999999949,0.0,0.0,0.0,1.660000000000025,0.0,0.0,0.0,0.0,0.0,0.0,0.0,0.0,0.8400000000000034,0.0,1.0,0.0,0.0,0.0,0.0,0.009999999999990905,0.0,0.0,0.0,0.0,0.0,0.12000000000000455,0.0,0.3200000000000003,0.3400000000000034,0.0,0.0,21.0,0.0,0.0,0.0,0.0,0.21999999999999886,0.0,0.0,0.060000000000002274,0.4900000000000091,0.0,0.0,0.0,0.14000000000000057,0.0,0.0,0.0,0.0,0.0,0.0,1.990000000000009,0.0,0.0,0.0,0.11000000000001364,1.9199999999999875,1.9399999999999977,0.9900000000000091,0.0,0.01999999999999602,0.20999999999999375,0.0,21.0,0.0,0.0,0.0,1.9399999999999977,0.0,0.0,0.030000000000001137,0.0,0.0,0.0,0.0,0.0,0.0,0.29999999999999716,0.0,0.0,0.0,0.0,0.0,0.660000000000025,0.0,0.28000000000000114,0.0,4.560000000000002,0.0,0.020000000000010232,0.0,0.0,0.0,0.0,0.0,0.01999999999999602,0.0,0.9599999999999937,0.0,0.0,0.22999999999998977,0.0,0.0,0.0,1.960000000000008,0.0,0.0,0.03999999999999915,0.0,13.86,0.0,1.9599999999999937,0.0,1.980000000000004,0.0,0.0
2026-07-21T15:32:20.675,0.1764,0.0,0.0,0.010000000000005116,0.0,0.0,0.0,0.0,0.0,0.0,0.0,0.0,0.0,0.0,0.0,0.0,0.0,0.0,0.7700000000000102,0.0,0.0,0.0,0.0,0.0,0.0,0.0,0.0,9.009999999999991,0.0,1.980000000000004,11.879999999999995,0.0,0.0,0.0,0.18000000000000682,0.0,0.0,0.0,0.0,0.0,0.0,0.0,0.0,3.1100000000000136,0.0,0.0,0.0,0.0,0.03999999999999204,0.0,0.0,0.0,0.0,0.0,0.0,0.0,0.0,0.0,0.0,1.960000000000008,0.18999999999999773,0.25,0.0,0.0,0.8400000000000034,0.0,0.0,0.0,0.0,0.0,0.0,0.0,0.0,0.0,0.0,0.010000000000005116,0.0,1.4399999999999977,0.14000000000000057,0.0,0.0,0.0,0.0,0.0,0.0,0.0,0.0,0.0,0.0,0.0,0.0,0.0,0.20000000000000284,8.700000000000003,0.060000000000002274,0.25,0.0,0.0,0.0,0.0,0.0,0.0,0.0,0.0,0.0,0.01999999999999602,0.0,0.12000000000000455,0.0,0.0,0.01999999999999602,0.0,0.0,0.0,0.0,0.0,0.0,0.0,0.0,0.0,0.0,0.04000000000000625,0.0,23.659999999999997,0.0,0.0,0.04999999999999716,0.0,0.0,0.0,0.0,0.0,1.1200000000000045,6.280000000000001,0.0,0.0,0.0,0.0,2.0,0.9900000000000091,0.9899999999999949,0.0,0.0,0.0,1.660000000000025,0.0,0.0,0.0,0.0,0.0,0.0,0.0,0.0,0.8400000000000034,1.9599999999999937,1.0,0.0,0.0,0.0,0.0,0.009999999999990905,0.0,0.0,0.0,0.0,0.0,0.12000000000000455,0.0,0.3200000000000003,0.3400000000000034,0.0,0.0,21.0,0.0,0.0,0.0,0.0,0.21999999999999886,0.0,0.0,0.060000000000002274,0.4900000000000091,0.0,0.0,0.0,0.14000000000000057,0.0,0.0,0.0,0.0,0.0,0.0,0.0,0.0,0.0,0.0,0.11000000000001364,1.9199999999999875,0.0,0.9900000000000091,0.0,0.01999999999999602,0.20999999999999375,0.0,21.0,0.0,0.0,0.0,1.9399999999999977,0.0,0.0,0.030000000000001137,0.0,0.0,0.0,0.0,0.0,0.0,0.29999999999999716,0.0,0.0,0.0,0.0,0.0,0.660000000000025,0.0,0.28000000000000114,0.0,0.0,8.909999999999997,0.020000000000010232,0.0,0.0,0.0,0.0,0.0,0.01999999999999602,0.0,0.9599999999999937,0.0,0.0,0.22999999999998977,1.9799999999999898,0.0,0.0,1.960000000000008,0.0,0.0,0.03999999999999915,0.0,13.86,0.0,0.0,0.0,1.980000000000004,0.0,0.0
2026-07-21T15:32:20.675,0.1764,0.0,0.0,0.010000000000005116,0.0,0.0,0.0,0.0,0.0,0.0,0.0,0.0,0.0,0.0,0.0,0.0,0.0,0.0,0.0,0.0,0.0,0.0,0.0,0.0,0.0,0.0,0.0,9.009999999999991,0.0,1.980000000000004,0.0,0.0,0.0,63.05000000000001,0.18000000000000682,0.0,0.0,0.0,0.0,0.0,0.0,0.0,0.0,3.1100000000000136,0.0,0.0,0.0,0.0,0.03999999999999204,0.0,0.0,0.0,0.0,0.0,0.0,0.0,0.0,0.0,0.0,1.960000000000008,0.18999999999999773,0.25,0.0,0.0,0.8400000000000034,0.0,0.0,0.0,0.0,0.0,0.0,0.14000000000000057,0.0,0.0,0.0,0.010000000000005116,0.0,1.4399999999999977,0.0,0.0,0.0,0.0,0.0,0.0,0.0,0.0,0.0,0.0,0.0,0.0,0.0,0.0,0.20000000000000284,8.700000000000003,0.060000000000002274,0.25,0.0,0.0,0.0,0.0,0.0,0.0,0.0,0.030000000000001137,0.0,0.01999999999999602,0.0,0.12000000000000455,0.0,0.0,0.01999999999999602,0.0,0.0,0.0,0.0,0.0,0.0,0.0,0.0,0.0,0.0,0.04000000000000625,0.0,23.659999999999997,0.0,0.0,0.04999999999999716,0.0,0.0,0.0,0.0,0.0,1.1200000000000045,6.280000000000001,0.0,0.0,0.0,0.0,0.0,0.9900000000000091,0.9899999999999949,0.0,0.0,0.0,1.660000000000025,0.0,0.0,0.0,0.0,0.0,0.0,0.0,0.0,0.8400000000000034,1.9599999999999937,1.0,0.0,0.0,0.0,0.0,0.009999999999990905,0.0,0.0,0.0,0.0,0.0,0.12000000000000455,0.0,0.3200000000000003,0.3400000000000034,0.0,0.0,21.0,0.0,0.0,0.0,0.0,0.21999999999999886,0.0,0.0,0.060000000000002274,0.4900000000000091,0.0,0.0,5.280000000000001,0.14000000000000057,0.0,0.0,0.0,0.0,0.0,0.0,0.0,0.0,0.0,0.0,0.11000000000001364,1.9199999999999875,0.0,0.9900000000000091,0.0,0.01999999999999602,0.20999999999999375,0.0,21.0,0.0,0.0,0.0,1.9399999999999977,0.0,0.0,0.0,0.0,0.0,0.0,0.0,0.0,0.0,0.29999999999999716,0.0,0.0,0.0,0.0,0.0,0.660000000000025,0.0,0.28000000000000114,0.0,0.0,8.909999999999997,0.020000000000010232,0.0,0.0,0.0,0.0,0.0,0.01999999999999602,0.0,0.9599999999999937,0.0,0.0,0.22999999999998977,0.0,0.0,0.0,1.960000000000008,0.0,0.0,0.03999999999999915,0.0,0.0,0.0,0.0,0.0,1.980000000000004,0.0,0.0
2026-07-21T15:32:20.691,0.1922,0.0,0.0,0.010000000000005116,0.0,0.0,0.0,0.0,0.0,0.0,0.0,0.0,0.0,0.0,0.0,0.0,0.0,0.0,0.7700000000000102,0.0,0.0,0.0,0.0,0.0,0.0,0.0,0.0,9.009999999999991,0.0,1.980000000000004,0.0,0.0,0.0,63.05000000000001,0.18000000000000682,0.0,0.0,0.0,0.0,0.0,0.0,0.0,0.0,3.1100000000000136,0.0,0.0,0.0,0.0,0.03999999999999204,0.0,0.0,0.0,0.0,0.0,0.0,0.0,0.0,0.0,0.0,1.960000000000008,0.18999999999999773,0.25,0.0,0.0,0.0,0.0,0.0,0.0,0.0,0.0,0.0,0.0,0.0,0.0,0.0,0.010000000000005116,0.0,1.4399999999999977,0.14000000000000057,0.0,0.0,0.0,0.0,0.0,0.0,0.0,0.0,0.0,0.0,0.0,0.0,0.0,0.20000000000000284,8.700000000000003,0.060000000000002274,0.25,0.0,0.0,0.0,0.0,0.0,0.0,0.0,0.0,0.0,0.01999999999999602,0.0,0.12000000000000455,0.0,0.0,0.01999999999999602,0.0,0.0,0.0,0.0,0.0,0.0,0.0,0.0,0.0,0.0,0.0,0.0,23.659999999999997,0.0,0.0,0.04999999999999716,0.0,0.0,0.0,0.0,0.0,1.1200000000000045,6.280000000000001,0.0,0.0,0.0,0.0,0.0,0.9900000000000091,0.9899999999999949,0.0,0.0,0.0,1.660000000000025,0.0,0.0,0.0,0.0,0.0,0.0,0.0,0.0,0.8400000000000034,0.0,1.0,0.0,0.0,0.0,0.0,0.009999999999990905,0.0,0.0,0.0,0.0,0.0,0.12000000000000455,0.0,0.3200000000000003,0.3400000000000034,0.0,0.0,21.0,0.0,0.0,0.0,0.0,0.21999999999999886,0.0,0.0,0.060000000000002274,0.4900000000000091,0.0,0.0,0.0,0.14000000000000057,0.0,0.0,0.0,0.0,0.0,0.0,0.0,0.0,0.0,0.0,0.11000000000001364,1.9199999999999875,0.0,0.9900000000000091,0.0,0.01999999999999602,0.20999999999999375,0.0,21.0,0.0,0.0,0.0,1.9399999999999977,0.0,0.0,0.030000000000001137,0.0,0.0,0.0,0.0,0.0,0.0,0.29999999999999716,0.0,0.0,0.0,0.0,0.0,0.660000000000025,0.0,0.28000000000000114,0.0,4.560000000000002,0.0,0.020000000000010232,0.0,0.0,0.0,0.0,0.0,0.01999999999999602,0.0,0.9599999999999937,0.0,0.0,0.22999999999998977,0.0,0.0,0.0,1.960000000000008,0.0,0.0,0.03999999999999915,0.0,0.0,0.0,0.0,0.0,1.980000000000004,0.0,0.0
