wall_time,elapsed_s,F1_N,F2_N
2026-07-21T15:56:51.890,0.0336,6.0373,6.3684
2026-07-21T15:56:51.890,0.0336,6.2136,6.5251
2026-07-21T15:56:51.890,0.0336,6.3115,6.858
2026-07-21T15:56:51.918,0.0336,6.9772,7.0146
2026-07-21T15:56:51.918,0.0336,6.8793,7.0538
2026-07-21T15:56:51.920,0.0721,6.5269,6.8971
2026-07-21T15:56:51.937,0.0721,6.7618,6.858
2026-07-21T15:56:51.937,0.0721,6.7814,6.7992
2026-07-21T15:56:51.952,0.0811,6.5464,6.7601
2026-07-21T15:56:51.967,0.1125,6.6639,6.9559
2026-07-21T15:56:51.990,0.1125,6.5464,6.8775
2026-07-21T15:56:51.990,0.1125,6.6639,6.8971
2026-07-21T15:56:51.999,0.1125,6.801,6.7992
2026-07-21T15:56:51.999,0.1282,6.7422,6.8971
2026-07-21T15:56:52.030,0.1596,6.8793,6.8384
2026-07-21T15:56:52.030,0.1596,6.7422,6.8775
2026-07-21T15:56:52.030,0.1617,6.6835,6.7405
2026-07-21T15:56:52.046,0.1722,6.6248,6.8775
2026-07-21T15:56:52.062,0.2009,6.5856,6.8775
2026-07-21T15:56:52.062,0.2009,6.6248,6.9363
2026-07-21T15:56:52.078,0.2009,6.566,6.8971
2026-07-21T15:56:52.090,0.207,6.8206,6.9754
2026-07-21T15:56:52.109,0.2387,6.8989,6.6817
2026-07-21T15:56:52.109,0.2387,6.6835,7.0342
2026-07-21T15:56:52.109,0.2387,6.6639,7.0146
2026-07-21T15:56:52.125,0.2387,6.9185,6.9363
2026-07-21T15:56:52.141,0.2725,6.6052,6.8384
2026-07-21T15:56:52.141,0.2725,6.9381,6.8188
2026-07-21T15:56:52.157,0.2725,6.801,6.7796
2026-07-21T15:56:52.157,0.2866,6.5073,7.0146
2026-07-21T15:56:52.189,0.3126,6.6248,6.8775
2026-07-21T15:56:52.191,0.3126,6.7422,6.9363
2026-07-21T15:56:52.191,0.3186,6.6248,6.9559
2026-07-21T15:56:52.205,0.3186,6.801,6.8971
2026-07-21T15:56:52.221,0.3503,6.7422,6.7013
2026-07-21T15:56:52.231,0.3503,6.5464,6.8971
2026-07-21T15:56:52.237,0.3503,6.566,6.7405
2026-07-21T15:56:52.252,0.3817,6.8597,6.7405
2026-07-21T15:56:52.268,0.3817,6.4681,6.8775
2026-07-21T15:56:52.268,0.3817,6.7031,6.858
2026-07-21T15:56:52.268,0.3974,6.7031,6.8971
2026-07-21T15:56:52.300,0.4291,6.6639,6.9167
2026-07-21T15:56:52.300,0.4291,6.566,6.7992
2026-07-21T15:56:52.300,0.4291,6.7227,6.7796
2026-07-21T15:56:52.315,0.4291,6.6052,6.858
2026-07-21T15:56:52.333,0.4609,6.6835,6.8188
2026-07-21T15:56:52.333,0.4609,6.6443,6.6817
2026-07-21T15:56:52.333,0.4609,6.6443,6.8188
2026-07-21T15:56:52.347,0.4725,6.4485,7.0734
2026-07-21T15:56:52.379,0.5019,6.8597,6.7796
2026-07-21T15:56:52.379,0.5019,6.6443,7.0146
2026-07-21T15:56:52.379,0.5019,6.6639,7.0929
2026-07-21T15:56:52.400,0.5242,6.6443,6.7209
2026-07-21T15:56:52.411,0.5401,6.7031,6.7796
2026-07-21T15:56:52.420,0.5414,6.4681,6.7601
2026-07-21T15:56:52.426,0.5414,6.801,6.6622
2026-07-21T15:56:52.426,0.5726,6.5073,6.7405
2026-07-21T15:56:52.442,0.5726,6.6639,6.7796
2026-07-21T15:56:52.458,0.5726,6.4485,6.858
2026-07-21T15:56:52.459,0.6042,6.7422,6.7209
2026-07-21T15:56:52.474,0.6042,6.5269,7.0342
2026-07-21T15:56:52.491,0.6198,6.8793,6.7405
2026-07-21T15:56:52.491,0.6198,6.6052,7.0538
2026-07-21T15:56:52.522,0.6515,6.8401,6.7209
2026-07-21T15:56:52.522,0.6515,6.5269,6.6426
2026-07-21T15:56:52.522,0.6515,6.6639,6.7209
2026-07-21T15:56:52.538,0.6515,6.429,6.7992
2026-07-21T15:56:52.554,0.6833,6.5269,6.6426
2026-07-21T15:56:52.554,0.6833,6.429,6.8384
2026-07-21T15:56:52.554,0.6833,6.5464,6.7796
2026-07-21T15:56:52.570,0.6993,6.5269,6.7405
2026-07-21T15:56:52.601,0.7149,6.5856,6.6622
2026-07-21T15:56:52.601,0.7149,6.4681,6.7405
2026-07-21T15:56:52.601,0.7308,6.5856,6.7013
2026-07-21T15:56:52.601,0.7308,6.429,6.7405
2026-07-21T15:56:52.633,0.7623,6.4681,6.7601
2026-07-21T15:56:52.633,0.7623,6.5464,6.5838
2026-07-21T15:56:52.649,0.7623,6.5073,6.623
2026-07-21T15:56:52.649,0.7944,6.3115,6.7209
2026-07-21T15:56:52.665,0.8029,6.429,6.5838
2026-07-21T15:56:52.665,0.8029,6.5073,6.7796
2026-07-21T15:56:52.680,0.8029,6.5464,6.6426
2026-07-21T15:56:52.696,0.8262,6.5073,6.5838
2026-07-21T15:56:52.712,0.8419,6.801,6.5447
2026-07-21T15:56:52.712,0.8419,6.4877,6.6622
2026-07-21T15:56:52.728,0.8419,6.4877,6.4859
2026-07-21T15:56:52.744,0.8728,6.3702,6.6426
2026-07-21T15:56:52.744,0.8728,6.3702,6.5447
2026-07-21T15:56:52.760,0.8728,6.6443,6.7013
2026-07-21T15:56:52.760,0.8885,6.5073,6.6034
2026-07-21T15:56:52.776,0.9046,6.4094,6.6034
2026-07-21T15:56:52.776,0.9046,6.429,6.4664
2026-07-21T15:56:52.791,0.9046,6.6443,6.6622
2026-07-21T15:56:52.806,0.937,6.4485,6.6622
2026-07-21T15:56:52.823,0.937,6.429,6.5447
2026-07-21T15:56:52.823,0.952,6.3115,6.4664
2026-07-21T15:56:52.838,0.952,6.2919,6.7796
2026-07-21T15:56:52.855,0.9727,6.2331,6.4859
2026-07-21T15:56:52.855,0.9841,6.3898,6.6426
2026-07-21T15:56:52.855,0.9841,6.429,6.6817
2026-07-21T15:56:52.870,1.0161,6.566,6.6817
2026-07-21T15:56:52.886,1.0161,6.6248,6.4076
2026-07-21T15:56:52.891,1.0161,6.2919,6.6034
2026-07-21T15:56:52.902,1.0161,6.3506,6.4859
2026-07-21T15:56:52.922,1.0506,6.3702,6.5251
2026-07-21T15:56:52.922,1.0506,6.3506,6.5447
2026-07-21T15:56:52.934,1.0506,6.3506,6.6034
2026-07-21T15:56:52.934,1.0792,6.5073,6.5055
2026-07-21T15:56:52.950,1.0792,6.2331,6.5447
2026-07-21T15:56:52.969,1.0792,6.3115,6.5055
2026-07-21T15:56:52.969,1.0965,6.2331,6.4664
2026-07-21T15:56:52.991,1.111,6.1548,6.3684
2026-07-21T15:56:52.997,1.111,6.2919,6.3684
2026-07-21T15:56:52.997,1.1269,6.1352,6.1335
2026-07-21T15:56:53.014,1.1269,5.959,6.1726
2026-07-21T15:56:53.029,1.1583,6.1548,6.4076
2026-07-21T15:56:53.029,1.1583,6.3115,6.7209
2026-07-21T15:56:53.045,1.1583,6.5269,6.8384
2026-07-21T15:56:53.061,1.1918,6.6248,6.858
2026-07-21T15:56:53.061,1.1918,6.6248,6.6426
2026-07-21T15:56:53.076,1.1918,6.4681,6.6622
2026-07-21T15:56:53.092,1.2222,6.4681,6.4272
2026-07-21T15:56:53.092,1.2222,6.3115,6.5251
2026-07-21T15:56:53.110,1.2222,6.4681,6.5643
2026-07-21T15:56:53.110,1.2222,6.4485,6.7013
2026-07-21T15:56:53.140,1.2539,6.5269,6.7209
2026-07-21T15:56:53.140,1.2539,6.3898,6.8188
2026-07-21T15:56:53.140,1.2539,6.6835,6.7209
2026-07-21T15:56:53.156,1.2925,6.4681,6.6817
2026-07-21T15:56:53.172,1.2925,4.8429,4.9782
2026-07-21T15:56:53.172,1.2925,1.0834,1.297
2026-07-21T15:56:53.188,1.3321,0.3198,0.4551
2026-07-21T15:56:53.211,1.3321,0.4177,0.69
2026-07-21T15:56:53.211,1.3321,0.3981,0.5725
2026-07-21T15:56:53.219,1.3321,1.3771,1.5712
2026-07-21T15:56:53.223,1.3731,4.6471,4.9586
2026-07-21T15:56:53.242,1.3731,5.8024,5.9964
2026-07-21T15:56:53.250,1.3731,6.5464,6.6622
2026-07-21T15:56:53.250,1.3796,5.0779,5.3698
2026-07-21T15:56:53.266,1.405,1.1226,1.3166
2026-07-21T15:56:53.282,1.4115,0.633,0.8467
2026-07-21T15:56:53.282,1.4115,1.945,2.0215
2026-07-21T15:56:53.298,1.4115,6.429,6.6034
2026-07-21T15:56:53.323,1.4461,7.2513,7.1713
2026-07-21T15:56:53.323,1.4461,6.8401,7.4454
2026-07-21T15:56:53.330,1.4461,6.2919,6.4664
2026-07-21T15:56:53.330,1.4461,2.2778,2.5698
2026-07-21T15:56:53.361,1.4747,1.24,1.4733
2026-07-21T15:56:53.361,1.4747,2.0429,2.2761
2026-07-21T15:56:53.364,1.4908,6.0961,6.1531
2026-07-21T15:56:53.377,1.4908,6.9772,7.2496
2026-07-21T15:56:53.393,1.5236,7.0555,7.1321
2026-07-21T15:56:53.393,1.5236,6.5269,6.6817
2026-07-21T15:56:53.393,1.5236,4.1967,4.4495
2026-07-21T15:56:53.425,1.5554,2.4932,2.6285
2026-07-21T15:56:53.425,1.5554,2.552,2.8439
2026-07-21T15:56:53.425,1.5704,4.8625,5.2915
2026-07-21T15:56:53.442,1.5736,6.8206,7.1125
2026-07-21T15:56:53.457,1.606,6.7227,6.8775
2026-07-21T15:56:53.473,1.606,6.5464,6.6622
2026-07-21T15:56:53.473,1.606,6.7227,6.8384
2026-07-21T15:56:53.492,1.606,6.331,6.4076
2026-07-21T15:56:53.492,1.6342,4.7254,4.7432
2026-07-21T15:56:53.520,1.6492,4.8429,5.409
2026-07-21T15:56:53.520,1.6492,6.7031,7.1125
2026-07-21T15:56:53.524,1.6492,6.566,6.7209
2026-07-21T15:56:53.535,1.6492,6.5269,6.6034
2026-07-21T15:56:53.552,1.6807,6.4094,6.7405
2026-07-21T15:56:53.552,1.6807,6.9772,7.0929
2026-07-21T15:56:53.567,1.6965,6.6248,6.7013
2026-07-21T15:56:53.567,1.6965,5.8807,6.1531
2026-07-21T15:56:53.599,1.7284,6.1352,6.251
2026-07-21T15:56:53.599,1.7284,6.8989,7.0538
2026-07-21T15:56:53.599,1.7284,6.7031,7.1908
2026-07-21T15:56:53.614,1.7284,6.8989,7.0342
2026-07-21T15:56:53.631,1.7598,7.173,7.23
2026-07-21T15:56:53.631,1.7598,6.9185,7.2887
2026-07-21T15:56:53.646,1.7598,6.8989,6.995
2026-07-21T15:56:53.646,1.7757,6.8793,6.8775
2026-07-21T15:56:53.678,1.7921,5.9786,6.4272
2026-07-21T15:56:53.678,1.8072,5.9003,5.8985
2026-07-21T15:56:53.678,1.8072,5.8219,6.0943
2026-07-21T15:56:53.710,1.8386,6.194,6.5838
2026-07-21T15:56:53.710,1.8386,6.8206,6.9754
2026-07-21T15:56:53.710,1.8386,6.5856,6.9167
2026-07-21T15:56:53.725,1.8386,6.4681,6.7405
2026-07-21T15:56:53.741,1.8741,6.9968,6.8775
2026-07-21T15:56:53.741,1.8741,6.3115,6.8188
2026-07-21T15:56:53.757,1.8862,6.0373,6.4076
2026-07-21T15:56:53.757,1.8862,5.8807,6.0356
2026-07-21T15:56:53.772,1.9175,6.566,6.4468
2026-07-21T15:56:53.792,1.9332,6.4094,6.7209
2026-07-21T15:56:53.792,1.9332,6.4877,6.7992
2026-07-21T15:56:53.804,1.9332,6.3898,6.5643
2026-07-21T15:56:53.820,1.9332,6.3898,6.4859
2026-07-21T15:56:53.825,1.9662,6.2331,5.8398
2026-07-21T15:56:53.836,1.9743,6.0178,6.0356
2026-07-21T15:56:53.836,1.9808,6.0373,6.2314
2026-07-21T15:56:53.851,1.9808,6.2919,6.5838
2026-07-21T15:56:53.867,2.0129,6.1744,6.3489
2026-07-21T15:56:53.884,2.0129,6.331,6.4664
2026-07-21T15:56:53.892,2.0129,5.724,5.9768
2026-07-21T15:56:53.899,2.0286,5.5478,5.9573
2026-07-21T15:56:53.899,2.0603,5.6849,5.9573
2026-07-21T15:56:53.931,2.0603,5.9199,6.0356
2026-07-21T15:56:53.931,2.0603,5.9394,6.0552
2026-07-21T15:56:53.931,2.0773,5.7632,5.4677
2026-07-21T15:56:53.947,2.0773,5.6849,5.4677
2026-07-21T15:56:53.978,2.1083,5.4303,5.4873
2026-07-21T15:56:53.978,2.1083,4.9408,4.6649
2026-07-21T15:56:53.978,2.1083,4.5884,4.6845
2026-07-21T15:56:53.978,2.124,4.4709,4.567
2026-07-21T15:56:53.995,2.1331,4.2163,4.0971
2026-07-21T15:56:54.010,2.1401,3.4918,3.4118
2026-07-21T15:56:54.026,2.1748,3.1394,3.7055
2026-07-21T15:56:54.026,2.1748,3.1394,3.8425
2026-07-21T15:56:54.026,2.1874,2.8457,4.0383
2026-07-21T15:56:54.051,2.1874,2.3562,3.8425
2026-07-21T15:56:54.058,2.1874,2.1408,3.5684
2026-07-21T15:56:54.074,2.2204,2.2387,3.8621
2026-07-21T15:56:54.074,2.2204,1.9058,3.8425
2026-07-21T15:56:54.093,2.2359,1.6317,3.6663
2026-07-21T15:56:54.105,2.2359,1.71,3.6271
2026-07-21T15:56:54.105,2.2359,1.5925,3.5097
2026-07-21T15:56:54.121,2.2515,1.5925,3.725
2026-07-21T15:56:54.127,2.2748,1.6708,3.4118
2026-07-21T15:56:54.138,2.2829,1.3771,3.4901
2026-07-21T15:56:54.138,2.2829,1.4359,3.1376
2026-07-21T15:56:54.154,2.2829,1.3184,3.1376
2026-07-21T15:56:54.169,2.2986,1.4554,3.4705
2026-07-21T15:56:54.169,2.3301,1.4163,3.353
2026-07-21T15:56:54.193,2.3301,1.6121,3.4705
2026-07-21T15:56:54.193,2.3458,1.6512,3.4313
2026-07-21T15:56:54.201,2.3458,1.8079,3.2747
2026-07-21T15:56:54.217,2.3458,1.5338,3.2159
2026-07-21T15:56:54.232,2.3936,1.6708,3.2551
2026-07-21T15:56:54.248,2.3936,1.5925,3.1376
2026-07-21T15:56:54.248,2.3936,1.6708,3.1376
2026-07-21T15:56:54.264,2.3936,1.4946,3.2159
2026-07-21T15:56:54.264,2.4099,1.5338,3.1964
2026-07-21T15:56:54.280,2.4099,1.4359,3.2355
2026-07-21T15:56:54.296,2.4412,1.7687,3.3726
2026-07-21T15:56:54.296,2.4412,1.7883,3.2159
2026-07-21T15:56:54.296,2.4412,1.5533,3.2159
2026-07-21T15:56:54.312,2.4569,1.5729,3.1572
2026-07-21T15:56:54.328,2.4569,1.4946,3.0985
2026-07-21T15:56:54.343,2.4887,1.6317,2.9614
2026-07-21T15:56:54.359,2.4887,1.7491,3.2159
2026-07-21T15:56:54.359,2.4887,2.0624,3.2355
2026-07-21T15:56:54.359,2.5044,1.8275,3.6859
2026-07-21T15:56:54.375,2.51,1.8862,3.4509
2026-07-21T15:56:54.392,2.5359,1.945,3.3922
2026-07-21T15:56:54.407,2.5359,1.5925,3.2551
2026-07-21T15:56:54.407,2.5359,1.6904,3.0201
2026-07-21T15:56:54.407,2.5527,1.7687,2.9418
2026-07-21T15:56:54.428,2.5527,1.5729,3.0593
2026-07-21T15:56:54.454,2.5837,1.6708,2.981
2026-07-21T15:56:54.454,2.5837,1.6708,3.0397
2026-07-21T15:56:54.454,2.5837,1.7491,3.3138
2026-07-21T15:56:54.454,2.6005,1.6904,3.3334
2026-07-21T15:56:54.471,2.6005,1.945,3.2159
2026-07-21T15:56:54.502,2.6313,1.6512,3.0985
2026-07-21T15:56:54.502,2.6313,1.5925,3.0985
2026-07-21T15:56:54.502,2.6313,1.6708,2.981
2026-07-21T15:56:54.518,2.647,1.9841,3.2355
2026-07-21T15:56:54.528,2.6789,2.1603,3.3138
2026-07-21T15:56:54.534,2.6789,2.2582,3.4705
2026-07-21T15:56:54.549,2.6945,2.0037,3.0593
2026-07-21T15:56:54.549,2.6945,1.7491,3.2159
2026-07-21T15:56:54.565,2.6945,1.7296,2.9614
2026-07-21T15:56:54.565,2.7108,1.8275,3.0397
2026-07-21T15:56:54.597,2.7421,1.8471,2.8635
2026-07-21T15:56:54.597,2.7421,1.7687,3.0006
2026-07-21T15:56:54.597,2.7421,1.945,2.9222
2026-07-21T15:56:54.613,2.7578,2.1016,3.1768
2026-07-21T15:56:54.629,2.7578,1.9841,3.2159
2026-07-21T15:56:54.644,2.7892,2.0233,3.0397
2026-07-21T15:56:54.644,2.7892,1.9058,2.8635
2026-07-21T15:56:54.660,2.805,1.8471,3.118
2026-07-21T15:56:54.660,2.8112,1.8471,2.9614
2026-07-21T15:56:54.676,2.8112,2.0233,3.1768
2026-07-21T15:56:54.694,2.8526,1.9841,3.2159
2026-07-21T15:56:54.707,2.8526,2.1212,3.0593
2026-07-21T15:56:54.707,2.8526,2.3562,3.0789
2026-07-21T15:56:54.707,2.8526,1.8862,3.1376
2026-07-21T15:56:54.729,2.8683,2.0429,3.0201
2026-07-21T15:56:54.739,2.8683,1.9254,3.0593
2026-07-21T15:56:54.739,2.8998,2.0233,3.0789
2026-07-21T15:56:54.755,2.8998,1.7883,2.9222
2026-07-21T15:56:54.771,2.8998,2.0037,2.9614
2026-07-21T15:56:54.771,2.9119,1.8666,3.0593
2026-07-21T15:56:54.786,2.9154,2.2974,3.4313
2026-07-21T15:56:54.802,2.9469,2.3953,3.4901
2026-07-21T15:56:54.802,2.9469,2.4149,3.4313
2026-07-21T15:56:54.818,2.9469,2.082,2.9027
2026-07-21T15:56:54.833,2.9469,2.0429,2.9027
2026-07-21T15:56:54.833,2.9783,1.9645,2.9027
2026-07-21T15:56:54.849,2.9946,1.8862,3.0006
2026-07-21T15:56:54.849,2.9946,2.0624,3.2355
2026-07-21T15:56:54.865,2.9946,2.5128,3.5292
2026-07-21T15:56:54.881,3.0121,2.8653,3.3726
2026-07-21T15:56:54.894,3.0419,2.1995,3.2159
2026-07-21T15:56:54.896,3.0419,1.8862,2.8439
2026-07-21T15:56:54.913,3.0419,1.945,2.8635
2026-07-21T15:56:54.913,3.0576,1.8079,2.8831
2026-07-21T15:56:54.930,3.0576,2.2191,2.9614
2026-07-21T15:56:54.930,3.089,2.2974,3.2159
2026-07-21T15:56:54.944,3.089,2.4345,3.4901
2026-07-21T15:56:54.944,3.089,2.5128,3.3922
2026-07-21T15:56:54.960,3.1053,2.3757,3.3334
2026-07-21T15:56:54.976,3.1053,2.1603,2.9614
2026-07-21T15:56:54.994,3.1366,2.082,2.9222
2026-07-21T15:56:55.007,3.1366,1.9841,3.2355
2026-07-21T15:56:55.007,3.1366,1.9841,3.0593
2026-07-21T15:56:55.023,3.1534,2.4541,3.0201
2026-07-21T15:56:55.023,3.1534,2.2778,3.4901
2026-07-21T15:56:55.039,3.1846,2.1016,3.2943
2026-07-21T15:56:55.055,3.1846,2.1799,3.1964
2026-07-21T15:56:55.055,3.2003,2.2191,3.0397
2026-07-21T15:56:55.071,3.2003,2.1603,3.1768
2026-07-21T15:56:55.071,3.2003,2.317,3.0201
2026-07-21T15:56:55.094,3.2318,2.082,3.0985
2026-07-21T15:56:55.103,3.2318,2.1212,3.0789
2026-07-21T15:56:55.103,3.2318,2.3562,3.0789
2026-07-21T15:56:55.118,3.2486,2.2191,2.981
2026-07-21T15:56:55.131,3.2797,2.1212,3.2159
2026-07-21T15:56:55.135,3.2797,2.2778,3.0789
2026-07-21T15:56:55.150,3.2797,2.2191,3.2355
2026-07-21T15:56:55.150,3.2797,2.317,3.118
2026-07-21T15:56:55.167,3.2954,2.2778,3.0201
2026-07-21T15:56:55.198,3.327,2.3562,3.1768
2026-07-21T15:56:55.198,3.327,2.3953,3.1964
2026-07-21T15:56:55.198,3.327,2.5715,3.2355
2026-07-21T15:56:55.198,3.3427,2.4932,3.0397
2026-07-21T15:56:55.213,3.3427,2.4932,3.0985
2026-07-21T15:56:55.245,3.3765,2.5715,2.9614
2026-07-21T15:56:55.245,3.3765,2.924,3.4118
2026-07-21T15:56:55.245,3.3905,3.7072,4.0971
2026-07-21T15:56:55.261,3.4062,4.1772,4.5474
2026-07-21T15:56:55.261,3.4139,4.4317,4.8411
2026-07-21T15:56:55.294,3.4376,4.7842,5.2328
2026-07-21T15:56:55.294,3.4376,4.9996,5.1153
2026-07-21T15:56:55.294,3.4533,5.2541,5.5656
2026-07-21T15:56:55.309,3.4533,5.7436,5.7614
2026-07-21T15:56:55.324,3.4691,5.9982,6.016
2026-07-21T15:56:55.332,3.4691,5.8807,6.3097
2026-07-21T15:56:55.340,3.5005,6.0961,5.9181
2026-07-21T15:56:55.356,3.5005,6.0178,5.9181
2026-07-21T15:56:55.356,3.5005,5.8415,5.9964
2026-07-21T15:56:55.371,3.5005,5.9003,5.781
2026-07-21T15:56:55.371,3.5005,5.959,5.8789
2026-07-21T15:56:55.387,3.5141,5.7436,5.5265
2026-07-21T15:56:55.395,3.5318,5.6457,5.5656
2026-07-21T15:56:55.403,3.5318,5.6457,5.5852
2026-07-21T15:56:55.418,3.5318,5.7436,5.9181
2026-07-21T15:56:55.432,3.5476,6.2723,6.251
2026-07-21T15:56:55.450,3.5813,6.194,6.2705
2026-07-21T15:56:55.450,3.5813,6.1744,6.388
2026-07-21T15:56:55.450,3.5813,5.7828,5.8398
2026-07-21T15:56:55.466,3.5813,5.8415,5.6831
2026-07-21T15:56:55.481,3.6146,5.6066,5.6831
2026-07-21T15:56:55.495,3.6146,5.9003,5.781
2026-07-21T15:56:55.499,3.6146,6.3898,6.3489
2026-07-21T15:56:55.499,3.6146,6.566,6.6426
2026-07-21T15:56:55.529,3.6432,6.6639,6.4664
2026-07-21T15:56:55.529,3.6432,6.0178,6.1531
2026-07-21T15:56:55.533,3.659,5.5674,5.8789
2026-07-21T15:56:55.561,3.6767,5.6066,5.5265
2026-07-21T15:56:55.561,3.6767,5.9003,6.0552
2026-07-21T15:56:55.561,3.6906,6.9968,6.8188
2026-07-21T15:56:55.577,3.7149,7.1339,7.0342
2026-07-21T15:56:55.595,3.7149,6.9772,7.0342
2026-07-21T15:56:55.595,3.7224,7.036,6.7601
2026-07-21T15:56:55.612,3.7224,6.2723,6.2118
2026-07-21T15:56:55.624,3.7542,5.724,6.0552
2026-07-21T15:56:55.633,3.7542,6.4681,6.6034
2026-07-21T15:56:55.633,3.7542,7.1339,6.9363
2026-07-21T15:56:55.640,3.7856,7.1926,7.23
2026-07-21T15:56:55.656,3.7856,7.0555,6.9363
2026-07-21T15:56:55.672,3.7856,7.0555,7.1125
2026-07-21T15:56:55.672,3.8015,6.7618,6.8775
2026-07-21T15:56:55.688,3.8332,6.4094,6.3097
2026-07-21T15:56:55.704,3.8332,6.566,6.2901
2026-07-21T15:56:55.704,3.8332,6.8206,7.0929
2026-07-21T15:56:55.720,3.8332,6.8597,6.9363
2026-07-21T15:56:55.733,3.8648,6.9968,7.0734
2026-07-21T15:56:55.736,3.8648,6.9576,7.0342
2026-07-21T15:56:55.736,3.8648,7.0555,6.9754
2026-07-21T15:56:55.751,3.8807,7.0947,7.0342
2026-07-21T15:56:55.783,3.9125,6.7227,7.0146
2026-07-21T15:56:55.783,3.9156,6.9576,6.7796
2026-07-21T15:56:55.783,3.9156,6.8206,6.7796
2026-07-21T15:56:55.799,3.9156,6.8206,6.9754
2026-07-21T15:56:55.814,3.944,6.7618,6.858
2026-07-21T15:56:55.814,3.944,6.6248,6.5838
2026-07-21T15:56:55.830,3.9598,6.5073,6.4859
2026-07-21T15:56:55.834,3.9598,6.2919,5.9181
2026-07-21T15:56:55.846,3.9915,5.724,5.5461
2026-07-21T15:56:55.862,3.9915,6.5269,6.1922
2026-07-21T15:56:55.862,4.0073,6.5269,6.1531
2026-07-21T15:56:55.878,4.0073,6.5073,6.1139
2026-07-21T15:56:55.878,4.0159,6.2331,5.9377
2026-07-21T15:56:55.895,4.0387,6.0765,5.8006
2026-07-21T15:56:55.910,4.0387,5.6653,5.644
2026-07-21T15:56:55.910,4.0545,5.8611,5.5656
2026-07-21T15:56:55.934,4.0545,6.2527,5.6048
2026-07-21T15:56:55.942,4.0702,6.1157,6.016
2026-07-21T15:56:55.957,4.0859,6.0373,5.5656
2026-07-21T15:56:55.957,4.0859,6.1744,5.4677
2026-07-21T15:56:55.972,4.1017,5.2345,4.9391
2026-07-21T15:56:55.972,4.1017,5.0191,4.3516
2026-07-21T15:56:55.988,4.1178,5.3716,4.6258
2026-07-21T15:56:56.004,4.1349,5.6849,5.4677
2026-07-21T15:56:56.004,4.1349,5.7045,5.2719
2026-07-21T15:56:56.020,4.1499,5.7436,5.4873
2026-07-21T15:56:56.020,4.1499,5.8024,5.2719
2026-07-21T15:56:56.053,4.1823,4.9408,4.43
2026-07-21T15:56:56.053,4.1823,4.1576,3.6467
2026-07-21T15:56:56.053,4.1823,4.6079,4.332
2026-07-21T15:56:56.068,4.1823,5.7632,4.8803
2026-07-21T15:56:56.084,4.2199,5.5282,5.1544
2026-07-21T15:56:56.095,4.2199,5.5478,5.2719
2026-07-21T15:56:56.100,4.2199,5.2933,4.9586
2026-07-21T15:56:56.100,4.231,4.7646,4.3908
2026-07-21T15:56:56.116,4.2614,4.2359,3.7642
2026-07-21T15:56:56.138,4.2614,4.6471,3.9796
2026-07-21T15:56:56.138,4.2614,5.1954,4.8607
2026-07-21T15:56:56.149,4.2614,5.5478,5.2132
2026-07-21T15:56:56.164,4.2937,5.4499,4.9391
2026-07-21T15:56:56.164,4.2937,5.4499,4.9978
2026-07-21T15:56:56.179,4.2937,5.1758,4.7628
2026-07-21T15:56:56.179,4.3113,4.5688,4.2146
2026-07-21T15:56:56.196,4.3256,4.2555,4.0383
2026-07-21T15:56:56.212,4.3407,5.0387,4.6845
2026-07-21T15:56:56.212,4.3407,5.587,4.8803
2026-07-21T15:56:56.231,4.3407,5.3912,5.0761
2026-07-21T15:56:56.244,4.3773,5.5087,4.8803
2026-07-21T15:56:56.244,4.3773,5.3912,4.9391
2026-07-21T15:56:56.259,4.3773,4.98,4.567
2026-07-21T15:56:56.259,4.3899,4.7842,4.0775
2026-07-21T15:56:56.291,4.4047,4.9408,4.43
2026-07-21T15:56:56.291,4.4174,5.1954,5.2915
2026-07-21T15:56:56.295,4.4204,5.3324,4.8216
2026-07-21T15:56:56.311,4.453,5.2541,4.9195
2026-07-21T15:56:56.323,4.453,5.1366,4.7824
2026-07-21T15:56:56.323,4.453,5.2933,4.4691
2026-07-21T15:56:56.338,4.453,4.98,4.1362
2026-07-21T15:56:56.354,4.4837,4.5688,4.1167
2026-07-21T15:56:56.354,4.4837,5.0779,4.3516
2026-07-21T15:56:56.371,4.4837,4.9408,4.5474
2026-07-21T15:56:56.371,4.4994,4.9996,4.4495
2026-07-21T15:56:56.386,4.5178,4.8233,4.3908
2026-07-21T15:56:56.402,4.5313,4.6471,4.0971
2026-07-21T15:56:56.402,4.5384,4.5492,4.1167
2026-07-21T15:56:56.417,4.5477,4.373,3.8817
2026-07-21T15:56:56.433,4.5628,4.4905,3.9796
2026-07-21T15:56:56.436,4.5628,4.6471,4.0775
2026-07-21T15:56:56.449,4.5804,4.7058,4.0383
2026-07-21T15:56:56.465,4.5804,4.5492,3.9209
2026-07-21T15:56:56.466,4.6117,4.1772,3.6663
2026-07-21T15:56:56.466,4.6117,4.0401,3.5684
2026-07-21T15:56:56.481,4.618,3.9422,3.8034
2026-07-21T15:56:56.498,4.6265,4.0597,3.8034
2026-07-21T15:56:56.529,4.6579,4.0401,3.6663
2026-07-21T15:56:56.529,4.6589,4.1576,3.9796
2026-07-21T15:56:56.530,4.6589,4.0988,3.7446
2026-07-21T15:56:56.536,4.6589,3.9226,3.8817
2026-07-21T15:56:56.545,4.6781,3.5897,3.7642
2026-07-21T15:56:56.560,4.6901,3.5897,3.588
2026-07-21T15:56:56.560,4.6901,3.3744,3.5292
2026-07-21T15:56:56.577,4.7058,3.3744,3.7055
2026-07-21T15:56:56.577,4.7058,3.1785,3.588
2026-07-21T15:56:56.596,4.7375,3.2569,3.8425
2026-07-21T15:56:56.608,4.7375,3.0806,4.0579
2026-07-21T15:56:56.608,4.7532,3.1002,3.9013
2026-07-21T15:56:56.624,4.7532,2.689,3.5292
2026-07-21T15:56:56.656,4.7783,2.4345,3.588
2026-07-21T15:56:56.656,4.7854,2.3366,3.5097
2026-07-21T15:56:56.656,4.7854,2.3366,3.5097
2026-07-21T15:56:56.671,4.7854,2.2582,3.7642
2026-07-21T15:56:56.687,4.819,2.317,3.8229
2026-07-21T15:56:56.696,4.833,2.317,3.725
2026-07-21T15:56:56.696,4.833,2.2387,3.9404
2026-07-21T15:56:56.712,4.8488,2.0429,3.7446
2026-07-21T15:56:56.719,4.8488,1.9058,3.725
2026-07-21T15:56:56.735,4.8809,2.0037,3.6859
2026-07-21T15:56:56.737,4.8809,1.8666,3.6467
2026-07-21T15:56:56.751,4.8809,1.9841,3.5097
2026-07-21T15:56:56.751,4.8809,2.1016,3.6271
2026-07-21T15:56:56.767,4.8966,2.4345,3.588
2026-07-21T15:56:56.767,4.8966,2.6499,3.9209
2026-07-21T15:56:56.783,4.9279,3.0806,3.9013
2026-07-21T15:56:56.799,4.9279,3.1785,3.7642
2026-07-21T15:56:56.815,4.9279,3.1981,3.7838
2026-07-21T15:56:56.815,4.9436,3.1785,3.8034
2026-07-21T15:56:56.837,4.9597,3.1981,3.6271
2026-07-21T15:56:56.837,4.9597,2.9827,3.9013
2026-07-21T15:56:56.846,4.9784,2.9827,3.725
2026-07-21T15:56:56.862,4.9784,2.7869,3.5292
2026-07-21T15:56:56.878,5.0072,2.6303,3.8229
2026-07-21T15:56:56.878,5.0072,2.5128,3.6663
2026-07-21T15:56:56.894,5.0232,2.5715,3.7838
2026-07-21T15:56:56.896,5.0232,2.4541,3.9013
2026-07-21T15:56:56.910,5.0557,2.3953,3.7055
2026-07-21T15:56:56.925,5.0557,2.4541,3.6663
2026-07-21T15:56:56.925,5.0557,2.6694,4.0188
2026-07-21T15:56:56.941,5.0557,2.1603,3.7642
2026-07-21T15:56:56.941,5.0707,2.2191,3.588
2026-07-21T15:56:56.957,5.0864,2.317,3.7838
2026-07-21T15:56:56.957,5.0864,2.1995,4.0579
2026-07-21T15:56:56.974,5.1023,2.1408,3.8034
2026-07-21T15:56:56.989,5.1023,2.1799,3.8817
2026-07-21T15:56:57.004,5.1341,2.2974,3.8817
2026-07-21T15:56:57.004,5.1341,2.2974,3.8817
2026-07-21T15:56:57.004,5.1341,2.1799,3.8621
2026-07-21T15:56:57.036,5.1666,2.3757,3.9209
2026-07-21T15:56:57.038,5.1666,2.1016,3.5292
2026-07-21T15:56:57.052,5.1786,2.0233,3.6663
2026-07-21T15:56:57.052,5.1816,2.3366,3.8229
2026-07-21T15:56:57.068,5.1973,2.3562,4.0971
2026-07-21T15:56:57.085,5.2131,2.2191,3.9796
2026-07-21T15:56:57.085,5.2151,2.3366,4.0775
2026-07-21T15:56:57.100,5.2151,2.3366,3.8229
2026-07-21T15:56:57.115,5.2297,2.1603,3.8034
2026-07-21T15:56:57.115,5.2452,2.2387,3.8621
2026-07-21T15:56:57.133,5.2462,2.2778,3.9796
2026-07-21T15:56:57.139,5.2786,2.2582,4.1754
2026-07-21T15:56:57.148,5.2786,2.2778,3.7838
2026-07-21T15:56:57.164,5.2786,2.317,4.0188
2026-07-21T15:56:57.164,5.2786,2.1212,3.9404
2026-07-21T15:56:57.179,5.3102,2.3562,3.9209
2026-07-21T15:56:57.179,5.3102,2.3757,3.9796
2026-07-21T15:56:57.197,5.3102,2.4149,3.9796
2026-07-21T15:56:57.211,5.3405,2.4932,3.8229
2026-07-21T15:56:57.227,5.3405,2.317,3.9796
2026-07-21T15:56:57.228,5.3405,2.1799,3.8621
2026-07-21T15:56:57.239,5.372,2.3366,3.8229
2026-07-21T15:56:57.259,5.3786,2.1408,3.8229
2026-07-21T15:56:57.259,5.3786,2.2387,4.1167
2026-07-21T15:56:57.259,5.3786,2.2387,3.7642
2026-07-21T15:56:57.290,5.4042,2.317,4.0383
2026-07-21T15:56:57.290,5.4042,2.317,3.9013
2026-07-21T15:56:57.297,5.4215,2.4149,3.96
2026-07-21T15:56:57.322,5.436,2.2974,3.96
2026-07-21T15:56:57.322,5.436,2.2974,3.96
2026-07-21T15:56:57.322,5.4521,2.2387,3.725
2026-07-21T15:56:57.339,5.4521,2.2974,3.8229
2026-07-21T15:56:57.354,5.4847,2.0624,3.8425
2026-07-21T15:56:57.354,5.4847,2.1408,4.0579
2026-07-21T15:56:57.370,5.4847,2.1212,3.9796
2026-07-21T15:56:57.386,5.5152,2.082,3.7838
2026-07-21T15:56:57.396,5.5152,2.0429,3.8817
2026-07-21T15:56:57.403,5.5218,1.9254,3.8621
2026-07-21T15:56:57.403,5.5466,1.8666,3.8425
2026-07-21T15:56:57.417,5.5466,1.7296,3.8817
2026-07-21T15:56:57.433,5.5466,2.0429,3.8034
2026-07-21T15:56:57.440,5.5466,1.7296,3.725
2026-07-21T15:56:57.449,5.5787,1.8471,3.9796
2026-07-21T15:56:57.465,5.5787,1.5729,3.8817
2026-07-21T15:56:57.465,5.5939,2.0037,3.8621
2026-07-21T15:56:57.480,5.5939,1.6512,4.0579
2026-07-21T15:56:57.480,5.6255,2.0037,3.96
2026-07-21T15:56:57.497,5.6255,1.7687,3.725
2026-07-21T15:56:57.512,5.6255,1.6512,4.1754
2026-07-21T15:56:57.540,5.6573,1.6512,3.7642
2026-07-21T15:56:57.540,5.6573,1.7687,3.7838
2026-07-21T15:56:57.540,5.6573,1.5925,3.8621
2026-07-21T15:56:57.543,5.6573,1.6317,3.7642
2026-07-21T15:56:57.560,5.6893,1.7883,3.8621
2026-07-21T15:56:57.575,5.6893,1.71,3.9013
2026-07-21T15:56:57.575,5.6893,2.0037,3.8229
2026-07-21T15:56:57.596,5.7223,1.6904,3.9992
2026-07-21T15:56:57.596,5.7223,1.6904,3.8425
2026-07-21T15:56:57.607,5.7223,1.8275,3.6467
2026-07-21T15:56:57.607,5.7374,1.7491,3.6271
2026-07-21T15:56:57.640,5.7541,1.5533,3.8425
2026-07-21T15:56:57.640,5.7541,1.6708,3.8229
2026-07-21T15:56:57.655,5.7691,1.8079,3.8621
2026-07-21T15:56:57.672,5.7848,1.7687,3.9209
2026-07-21T15:56:57.672,5.7848,1.7687,3.8034
2026-07-21T15:56:57.672,5.8008,1.9645,3.6271
2026-07-21T15:56:57.687,5.8008,1.9645,3.7642
2026-07-21T15:56:57.703,5.8322,2.1212,3.7642
2026-07-21T15:56:57.703,5.8322,2.1799,3.8621
2026-07-21T15:56:57.719,5.8479,2.3366,3.725
2026-07-21T15:56:57.735,5.8796,2.552,3.8034
2026-07-21T15:56:57.750,5.8796,2.6499,4.1754
2026-07-21T15:56:57.750,5.8796,3.0219,4.4104
2026-07-21T15:56:57.767,5.8954,3.531,4.7432
2026-07-21T15:56:57.767,5.8954,3.7855,4.9195
2026-07-21T15:56:57.782,5.9272,4.373,5.2132
2026-07-21T15:56:57.782,5.9272,4.6863,5.2132
2026-07-21T15:56:57.798,5.9272,4.98,5.6244
2026-07-21T15:56:57.813,5.9429,5.1758,5.6048
2026-07-21T15:56:57.813,5.9429,5.352,6.0356
2026-07-21T15:56:57.829,5.9744,5.352,6.1335
2026-07-21T15:56:57.841,5.9786,5.7045,6.0943
2026-07-21T15:56:57.845,5.9786,5.7632,6.0552
2026-07-21T15:56:57.861,5.9902,5.7828,6.2314
2026-07-21T15:56:57.861,6.0059,5.9394,6.1335
2026-07-21T15:56:57.877,6.0216,6.1157,6.2314
2026-07-21T15:56:57.892,6.0231,6.0961,6.2705
2026-07-21T15:56:57.897,6.0231,6.1157,6.1335
2026-07-21T15:56:57.908,6.0231,6.2527,6.2118
2026-07-21T15:56:57.908,6.0533,6.0961,6.4076
2026-07-21T15:56:57.924,6.0533,6.3898,6.4468
2026-07-21T15:56:57.941,6.0533,6.5269,6.7405
2026-07-21T15:56:57.941,6.0691,6.6052,6.5838
2026-07-21T15:56:57.971,6.0864,6.801,6.6426
2026-07-21T15:56:57.971,6.0864,6.7031,6.8188
2026-07-21T15:56:57.971,6.0864,6.331,6.5055
2026-07-21T15:56:57.987,6.1009,6.3898,6.3489
2026-07-21T15:56:58.003,6.1234,6.3702,6.388
2026-07-21T15:56:58.004,6.1234,6.4877,6.5643
2026-07-21T15:56:58.019,6.1485,6.5269,6.6426
2026-07-21T15:56:58.041,6.1485,6.5269,6.5643
2026-07-21T15:56:58.041,6.1485,6.4681,6.6034
2026-07-21T15:56:58.051,6.1485,6.6835,6.5643
2026-07-21T15:56:58.066,6.1803,6.6443,6.9363
2026-07-21T15:56:58.066,6.1803,6.7814,6.6622
2026-07-21T15:56:58.066,6.1803,6.5856,6.5251
2026-07-21T15:56:58.098,6.2123,6.6639,6.623
2026-07-21T15:56:58.098,6.2123,6.4877,6.4664
2026-07-21T15:56:58.114,6.2439,6.6639,6.7013
2026-07-21T15:56:58.130,6.2449,6.5269,6.7601
2026-07-21T15:56:58.130,6.2449,6.7031,6.7601
2026-07-21T15:56:58.146,6.2787,6.6443,6.4859
2026-07-21T15:56:58.146,6.2787,6.4681,6.623
2026-07-21T15:56:58.163,6.2787,6.2919,5.9768
2026-07-21T15:56:58.163,6.2918,6.1157,5.9573
2026-07-21T15:56:58.197,6.3238,5.724,5.6635
2026-07-21T15:56:58.197,6.3238,5.8807,5.7419
2026-07-21T15:56:58.197,6.3238,5.6457,5.4873
2026-07-21T15:56:58.210,6.3404,5.3324,5.781
2026-07-21T15:56:58.231,6.3714,5.0779,5.4677
2026-07-21T15:56:58.231,6.3714,4.8625,5.4873
2026-07-21T15:56:58.242,6.379,4.5688,5.2328
2026-07-21T15:56:58.258,6.3881,4.5688,5.3894
2026-07-21T15:56:58.258,6.3881,4.373,4.9391
2026-07-21T15:56:58.274,6.4188,4.138,5.174
2026-07-21T15:56:58.274,6.4244,4.2359,4.9586
2026-07-21T15:56:58.289,6.4244,3.8835,4.9391
2026-07-21T15:56:58.306,6.4366,3.8639,4.8411
2026-07-21T15:56:58.306,6.4366,3.4723,4.8411
2026-07-21T15:56:58.321,6.4664,3.1198,4.4887
2026-07-21T15:56:58.321,6.4664,3.2569,4.6258
2026-07-21T15:56:58.342,6.479,3.4723,4.6649
2026-07-21T15:56:58.342,6.482,3.3548,4.6258
2026-07-21T15:56:58.355,6.482,3.3939,4.567
2026-07-21T15:56:58.369,6.5138,3.3744,4.4691
2026-07-21T15:56:58.384,6.5138,3.296,4.43
2026-07-21T15:56:58.384,6.5249,2.9827,4.0383
2026-07-21T15:56:58.400,6.5249,2.9632,4.2341
2026-07-21T15:56:58.416,6.5451,3.0806,4.5866
2026-07-21T15:56:58.416,6.5451,3.2373,4.43
2026-07-21T15:56:58.432,6.5612,3.1394,4.2146
2026-07-21T15:56:58.443,6.5612,3.1198,4.3125
2026-07-21T15:56:58.447,6.5932,3.0415,4.0383
2026-07-21T15:56:58.463,6.5932,2.9827,3.9796
2026-07-21T15:56:58.463,6.5932,2.5911,3.6859
2026-07-21T15:56:58.479,6.5932,2.9436,3.8034
2026-07-21T15:56:58.495,6.6252,3.1002,3.7642
2026-07-21T15:56:58.497,6.6408,2.6694,4.2146
2026-07-21T15:56:58.511,6.6418,2.7673,3.7838
2026-07-21T15:56:58.511,6.6418,2.7869,3.8621
2026-07-21T15:56:58.527,6.6736,2.6303,3.8229
2026-07-21T15:56:58.543,6.6736,2.7673,3.7642
2026-07-21T15:56:58.543,6.6736,2.6694,3.7838
2026-07-21T15:56:58.560,6.6792,2.3562,3.725
2026-07-21T15:56:58.575,6.7045,2.4736,3.7838
2026-07-21T15:56:58.575,6.7045,2.317,3.8425
2026-07-21T15:56:58.592,6.7202,2.5128,3.7838
2026-07-21T15:56:58.597,6.7202,2.317,3.7642
2026-07-21T15:56:58.622,6.7541,2.6107,3.7838
2026-07-21T15:56:58.622,6.7552,2.4149,4.1754
2026-07-21T15:56:58.622,6.7594,2.8261,4.2537
2026-07-21T15:56:58.643,6.7675,2.6694,4.6062
2026-07-21T15:56:58.654,6.7842,2.7673,5.0174
2026-07-21T15:56:58.654,6.7992,2.9632,5.0565
2026-07-21T15:56:58.675,6.7992,2.9827,5.5461
2026-07-21T15:56:58.685,6.7992,3.296,5.8985
2026-07-21T15:56:58.685,6.7992,3.3744,6.1922
2026-07-21T15:56:58.702,6.8307,3.4527,6.7209
2026-07-21T15:56:58.702,6.8464,3.9618,6.6817
2026-07-21T15:56:58.717,6.8464,4.1772,6.9559
2026-07-21T15:56:58.717,6.8464,4.5688,7.0538
2026-07-21T15:56:58.749,6.8799,4.5884,6.7992
2026-07-21T15:56:58.749,6.894,5.0583,6.9167
2026-07-21T15:56:58.764,6.894,5.5478,7.1713
2026-07-21T15:56:58.764,6.894,6.0569,7.3671
2026-07-21T15:56:58.780,6.9259,6.2331,7.3475
2026-07-21T15:56:58.780,6.9259,6.4877,7.6412
2026-07-21T15:56:58.798,6.9417,6.6443,7.4845
2026-07-21T15:56:58.812,6.9417,6.8206,7.4258
2026-07-21T15:56:58.812,6.9574,6.6835,7.2692
2026-07-21T15:56:58.828,6.9574,6.9772,7.3671
2026-07-21T15:56:58.844,6.9798,7.036,7.3671
2026-07-21T15:56:58.844,6.9798,7.0751,7.5237
2026-07-21T15:56:58.860,6.9895,7.036,7.2887
2026-07-21T15:56:58.875,6.9895,7.0164,7.4845
2026-07-21T15:56:58.875,7.0054,6.801,7.4258
2026-07-21T15:56:58.891,7.0212,6.8597,7.465
2026-07-21T15:56:58.898,7.0212,7.036,7.3475
2026-07-21T15:56:58.908,7.0263,6.9576,7.4062
2026-07-21T15:56:58.923,7.037,7.1143,7.3083
2026-07-21T15:56:58.923,7.037,6.9576,7.4845
2026-07-21T15:56:58.939,7.0527,7.036,7.4454
2026-07-21T15:56:58.955,7.0686,7.1143,7.2104
2026-07-21T15:56:58.955,7.0797,7.0164,7.1713
2026-07-21T15:56:58.971,7.0797,6.7618,7.3279
2026-07-21T15:56:58.987,7.1,6.9772,7.23
2026-07-21T15:56:58.987,7.1,7.2318,7.5041
2026-07-21T15:56:59.002,7.1,7.1534,7.6412
2026-07-21T15:56:59.018,7.1266,7.2122,7.3083
2026-07-21T15:56:59.018,7.1317,7.173,7.6216
2026-07-21T15:56:59.034,7.1474,6.9772,7.2692
2026-07-21T15:56:59.045,7.1474,7.0555,7.4062
2026-07-21T15:56:59.050,7.1474,7.1143,7.2496
2026-07-21T15:56:59.065,7.1801,7.2513,7.3866
2026-07-21T15:56:59.065,7.1801,6.9381,7.3475
2026-07-21T15:56:59.097,7.2107,7.173,7.5041
2026-07-21T15:56:59.097,7.2107,7.1339,7.3671
2026-07-21T15:56:59.098,7.2107,7.1534,7.4845
2026-07-21T15:56:59.113,7.227,7.1926,7.5433
2026-07-21T15:56:59.113,7.227,7.036,7.4845
2026-07-21T15:56:59.129,7.2426,6.9772,7.1517
2026-07-21T15:56:59.145,7.2604,7.2709,7.3279
2026-07-21T15:56:59.145,7.2604,7.0751,7.2887
2026-07-21T15:56:59.161,7.2744,7.0751,7.4062
2026-07-21T15:56:59.161,7.2911,6.9576,7.5629
2026-07-21T15:56:59.178,7.2911,7.1339,7.5825
2026-07-21T15:56:59.192,7.2911,7.1534,7.2496
2026-07-21T15:56:59.209,7.3273,6.9381,7.3083
2026-07-21T15:56:59.209,7.3273,6.9968,7.5237
2026-07-21T15:56:59.209,7.3273,7.0751,7.4062
2026-07-21T15:56:59.244,7.3531,7.0164,7.1908
2026-07-21T15:56:59.244,7.3531,7.0947,7.465
2026-07-21T15:56:59.245,7.3531,7.0947,7.1125
2026-07-21T15:56:59.271,7.3854,6.801,7.3475
2026-07-21T15:56:59.271,7.3854,6.8401,7.1321
2026-07-21T15:56:59.271,7.401,6.8989,7.1517
2026-07-21T15:56:59.303,7.4324,6.7422,7.0342
2026-07-21T15:56:59.303,7.4324,6.8989,7.1321
2026-07-21T15:56:59.303,7.4324,6.9968,7.0538
2026-07-21T15:56:59.319,7.4324,6.801,7.2104
2026-07-21T15:56:59.346,7.4652,6.9381,7.0734
2026-07-21T15:56:59.346,7.4652,6.9185,7.1713
2026-07-21T15:56:59.350,7.4652,6.6248,7.1713
2026-07-21T15:56:59.350,7.4652,6.7422,7.0146
2026-07-21T15:56:59.383,7.4965,6.8793,7.2104
2026-07-21T15:56:59.383,7.4965,7.0947,7.3279
2026-07-21T15:56:59.383,7.4965,7.0751,7.23
2026-07-21T15:56:59.414,7.5284,6.9968,7.4062
2026-07-21T15:56:59.414,7.5284,7.2709,7.3475
2026-07-21T15:56:59.414,7.5284,6.8206,6.9167
2026-07-21T15:56:59.430,7.5598,6.9185,7.1908
2026-07-21T15:56:59.446,7.5598,6.801,7.1125
2026-07-21T15:56:59.446,7.5598,6.9968,7.4454
2026-07-21T15:56:59.462,7.5919,6.8793,7.3475
2026-07-21T15:56:59.478,7.5919,7.1339,7.4258
2026-07-21T15:56:59.478,7.5919,7.036,7.23
2026-07-21T15:56:59.510,7.629,6.9381,7.3083
2026-07-21T15:56:59.510,7.629,6.8597,7.0929
2026-07-21T15:56:59.510,7.629,6.8401,7.1125
2026-07-21T15:56:59.510,7.629,7.036,7.1321
2026-07-21T15:56:59.541,7.6563,7.1339,7.2104
2026-07-21T15:56:59.541,7.6563,6.9968,7.1908
2026-07-21T15:56:59.547,7.6877,6.8206,7.6608
2026-07-21T15:56:59.574,7.6877,6.9772,7.2104
2026-07-21T15:56:59.574,7.6877,6.6248,6.9754
2026-07-21T15:56:59.574,7.6877,6.7814,6.858
2026-07-21T15:56:59.606,7.7193,6.6248,6.7796
2026-07-21T15:56:59.606,7.7193,6.801,7.1125
2026-07-21T15:56:59.606,7.7293,6.9381,7.1321
2026-07-21T15:56:59.622,7.7511,7.0555,7.2104
2026-07-21T15:56:59.637,7.7511,6.9576,7.23
2026-07-21T15:56:59.637,7.7511,6.8206,7.3083
2026-07-21T15:56:59.653,7.783,6.3898,6.6622
2026-07-21T15:56:59.669,7.783,6.6248,6.7796
2026-07-21T15:56:59.669,7.783,6.4485,6.7601
2026-07-21T15:56:59.669,7.8154,6.6443,6.7601
2026-07-21T15:56:59.701,7.8154,6.5856,6.8971
2026-07-21T15:56:59.701,7.8154,6.9185,7.1713
2026-07-21T15:56:59.717,7.8462,7.0164,7.0734
2026-07-21T15:56:59.733,7.8462,6.801,7.0146
2026-07-21T15:56:59.733,7.8462,6.4094,6.7013
2026-07-21T15:56:59.748,7.8721,6.2919,6.7405
2026-07-21T15:56:59.748,7.8721,6.4094,6.9363
2026-07-21T15:56:59.764,7.8776,6.6052,6.8971
2026-07-21T15:56:59.764,7.9091,6.8206,7.0929
2026-07-21T15:56:59.790,7.9091,6.6443,6.9559
2026-07-21T15:56:59.790,7.9091,6.5269,6.6622
2026-07-21T15:56:59.799,7.9299,6.2723,6.5643
2026-07-21T15:56:59.811,7.9408,6.3506,6.5055
2026-07-21T15:56:59.811,7.9408,6.3898,6.7405
2026-07-21T15:56:59.827,7.9408,6.2331,6.4468
2026-07-21T15:56:59.843,7.9564,5.9394,6.388
2026-07-21T15:56:59.848,7.9722,6.2527,6.4272
2026-07-21T15:56:59.859,7.9722,6.1157,6.5055
2026-07-21T15:56:59.874,7.9883,6.1157,6.3097
2026-07-21T15:56:59.874,7.9883,6.1157,6.1531
2026-07-21T15:56:59.890,8.0044,6.0373,6.2901
2026-07-21T15:56:59.906,8.03,5.8611,6.2118
2026-07-21T15:56:59.906,8.03,5.959,6.0552
2026-07-21T15:56:59.922,8.0361,5.9003,6.1726
2026-07-21T15:56:59.948,8.0522,5.7828,6.388
2026-07-21T15:56:59.948,8.0522,6.0373,6.2118
2026-07-21T15:56:59.948,8.0522,6.0373,6.2314
2026-07-21T15:56:59.954,8.084,5.9199,6.1531
2026-07-21T15:56:59.970,8.084,6.0569,6.1922
2026-07-21T15:56:59.970,8.084,5.8611,6.1922
2026-07-21T15:57:00.002,8.1302,6.0178,6.1531
2026-07-21T15:57:00.002,8.1312,5.8611,6.2118
2026-07-21T15:57:00.002,8.1342,5.9394,6.0552
2026-07-21T15:57:00.042,8.1617,5.7632,5.9964
2026-07-21T15:57:00.042,8.1627,5.7436,6.1726
2026-07-21T15:57:00.042,8.1627,5.8219,6.1335
2026-07-21T15:57:00.055,8.1627,5.8807,6.0747
2026-07-21T15:57:00.078,8.1941,5.8415,6.0552
2026-07-21T15:57:00.078,8.1941,5.7436,6.0552
2026-07-21T15:57:00.081,8.1941,5.9394,6.0552
2026-07-21T15:57:00.081,8.2259,5.724,6.1726
2026-07-21T15:57:00.112,8.2305,5.8415,6.016
2026-07-21T15:57:00.112,8.2305,5.7632,6.1139
2026-07-21T15:57:00.128,8.2578,5.6653,6.1335
2026-07-21T15:57:00.144,8.2578,5.7632,5.9377
2026-07-21T15:57:00.144,8.2578,5.8415,6.2314
2026-07-21T15:57:00.149,8.2578,5.7045,6.0552
2026-07-21T15:57:00.176,8.2908,5.8415,6.0552
2026-07-21T15:57:00.176,8.2908,5.8415,5.9377
2026-07-21T15:57:00.176,8.2908,5.7045,6.0552
2026-07-21T15:57:00.200,8.3229,5.7828,5.7419
2026-07-21T15:57:00.209,8.3308,5.6066,6.016
2026-07-21T15:57:00.209,8.3308,5.7436,6.2705
2026-07-21T15:57:00.209,8.3378,5.6849,5.9377
2026-07-21T15:57:00.241,8.3535,5.8024,6.1726
2026-07-21T15:57:00.241,8.3535,5.7045,6.1139
2026-07-21T15:57:00.256,8.3693,5.8415,6.016
2026-07-21T15:57:00.256,8.3849,5.7632,6.0943
2026-07-21T15:57:00.271,8.4007,6.1157,6.1139
2026-07-21T15:57:00.287,8.4038,5.7632,5.8789
2026-07-21T15:57:00.287,8.4174,5.8024,5.9768
2026-07-21T15:57:00.303,8.4322,5.5674,5.9768
2026-07-21T15:57:00.303,8.4322,5.6849,6.0356
2026-07-21T15:57:00.322,8.4322,6.0178,6.0356
2026-07-21T15:57:00.335,8.4487,5.8024,6.3097
2026-07-21T15:57:00.335,8.4641,5.8415,5.9573
2026-07-21T15:57:00.350,8.4641,5.8219,6.0747
2026-07-21T15:57:00.366,8.4817,5.7828,5.9964
2026-07-21T15:57:00.367,8.4817,5.724,5.9181
2026-07-21T15:57:00.382,8.4959,5.7632,5.9181
2026-07-21T15:57:00.400,8.5117,5.7828,5.9964
2026-07-21T15:57:00.400,8.5117,5.7045,6.1335
2026-07-21T15:57:00.414,8.5274,5.6261,6.0747
2026-07-21T15:57:00.414,8.5431,5.7828,6.0356
2026-07-21T15:57:00.430,8.5431,5.8219,6.1531
2026-07-21T15:57:00.445,8.5588,5.9394,6.0747
2026-07-21T15:57:00.461,8.582,6.0569,5.9768
2026-07-21T15:57:00.461,8.582,5.8024,5.9377
2026-07-21T15:57:00.461,8.582,5.7436,6.0747
2026-07-21T15:57:00.492,8.6062,5.8807,6.016
2026-07-21T15:57:00.500,8.6062,5.6261,6.1726
2026-07-21T15:57:00.500,8.6062,5.7632,6.0747
2026-07-21T15:57:00.524,8.638,6.1352,6.1726
2026-07-21T15:57:00.524,8.638,6.0373,6.2705
2026-07-21T15:57:00.524,8.638,6.0373,6.2118
2026-07-21T15:57:00.542,8.6541,5.9982,6.1531
2026-07-21T15:57:00.556,8.6714,6.0961,6.6622
2026-07-21T15:57:00.556,8.6714,6.4094,6.3489
2026-07-21T15:57:00.572,8.7026,5.9394,6.1531
2026-07-21T15:57:00.589,8.7026,6.0178,6.3293
2026-07-21T15:57:00.589,8.7026,5.9199,6.4859
2026-07-21T15:57:00.604,8.7344,6.0961,6.3489
2026-07-21T15:57:00.621,8.7344,5.8611,6.251
2026-07-21T15:57:00.621,8.7344,6.0961,6.3293
2026-07-21T15:57:00.650,8.7656,6.2136,6.2901
2026-07-21T15:57:00.650,8.7656,6.0373,6.3684
2026-07-21T15:57:00.652,8.7656,5.959,6.0747
2026-07-21T15:57:00.668,8.7822,6.0569,6.2118
2026-07-21T15:57:00.668,8.7822,5.959,6.2118
2026-07-21T15:57:00.684,8.7974,5.959,6.4076
2026-07-21T15:57:00.700,8.8134,5.9199,6.2118
2026-07-21T15:57:00.700,8.8134,5.959,6.4076
2026-07-21T15:57:00.715,8.8134,6.2331,6.3293
2026-07-21T15:57:00.731,8.8458,6.1157,6.6034
2026-07-21T15:57:00.731,8.8458,5.9199,6.1531
2026-07-21T15:57:00.731,8.8458,6.0765,6.2901
2026-07-21T15:57:00.764,8.8824,6.1352,6.3684
2026-07-21T15:57:00.764,8.8824,5.9982,6.388
2026-07-21T15:57:00.764,8.9081,5.959,6.0747
2026-07-21T15:57:00.794,8.9081,5.8219,6.3684
2026-07-21T15:57:00.794,8.9081,6.2527,6.4076
2026-07-21T15:57:00.800,8.9081,6.2527,6.6426
2026-07-21T15:57:00.826,8.9399,6.0178,6.1726
2026-07-21T15:57:00.826,8.9399,5.9982,6.388
2026-07-21T15:57:00.826,8.9399,6.3115,6.2705
2026-07-21T15:57:00.858,8.9714,5.9982,6.3684
2026-07-21T15:57:00.858,8.9714,5.9786,6.1531
2026-07-21T15:57:00.858,8.9714,6.1744,6.0356
2026-07-21T15:57:00.874,9.0032,6.1157,6.251
2026-07-21T15:57:00.889,9.0032,5.6457,6.0943
2026-07-21T15:57:00.889,9.0032,5.9394,6.4272
2026-07-21T15:57:00.900,9.0351,5.9199,6.2314
2026-07-21T15:57:00.921,9.0351,6.1744,6.3489
2026-07-21T15:57:00.921,9.0351,6.2723,6.1922
2026-07-21T15:57:00.937,9.0508,5.9982,6.251
2026-07-21T15:57:00.952,9.0669,5.7436,6.0552
2026-07-21T15:57:00.953,9.0669,5.9003,6.0747
2026-07-21T15:57:00.969,9.0825,5.9394,6.1335
2026-07-21T15:57:00.969,9.0983,5.8024,6.1726
2026-07-21T15:57:00.969,9.0983,6.0765,6.1139
2026-07-21T15:57:01.000,9.1143,5.9786,6.388
2026-07-21T15:57:01.000,9.1302,6.1744,6.2705
2026-07-21T15:57:01.000,9.1302,6.0373,6.2901
2026-07-21T15:57:01.016,9.1458,5.9394,6.1726
2026-07-21T15:57:01.032,9.1625,5.9003,6.2901
2026-07-21T15:57:01.032,9.1625,5.9199,6.016
2026-07-21T15:57:01.052,9.1625,5.8024,6.1139
2026-07-21T15:57:01.064,9.1827,5.9394,6.2118
2026-07-21T15:57:01.064,9.1937,6.1352,6.4468
2026-07-21T15:57:01.081,9.1937,6.0765,6.3684
2026-07-21T15:57:01.096,9.2094,5.959,6.1922
2026-07-21T15:57:01.101,9.2252,6.1352,6.3097
2026-07-21T15:57:01.112,9.2252,5.8611,6.1531
2026-07-21T15:57:01.127,9.2408,5.9394,6.1139
2026-07-21T15:57:01.127,9.2565,5.7828,6.3293
2026-07-21T15:57:01.143,9.2565,5.9199,6.1335
2026-07-21T15:57:01.152,9.2827,5.9003,6.1531
2026-07-21T15:57:01.159,9.2883,5.8415,6.2705
2026-07-21T15:57:01.159,9.2883,5.7828,6.3097
2026-07-21T15:57:01.201,9.3151,5.959,6.2118
2026-07-21T15:57:01.201,9.3151,6.0178,6.2705
2026-07-21T15:57:01.201,9.3201,5.9199,6.3097
2026-07-21T15:57:01.222,9.3368,5.9982,6.1139
2026-07-21T15:57:01.233,9.3368,5.8024,6.251
2026-07-21T15:57:01.233,9.3368,5.9982,6.016
2026-07-21T15:57:01.240,9.3539,6.0569,6.2314
2026-07-21T15:57:01.255,9.3684,5.7828,6.1726
2026-07-21T15:57:01.255,9.3684,5.724,6.3684
2026-07-21T15:57:01.272,9.3998,6.0961,6.1139
2026-07-21T15:57:01.286,9.3998,5.8024,6.3684
2026-07-21T15:57:01.286,9.3998,5.9199,6.0747
2026-07-21T15:57:01.302,9.4171,5.8611,6.2118
2026-07-21T15:57:01.318,9.4353,5.9394,6.251
2026-07-21T15:57:01.318,9.4353,6.0178,6.1531
2026-07-21T15:57:01.334,9.4353,5.9003,6.1531
2026-07-21T15:57:01.339,9.4645,5.7436,6.0747
2026-07-21T15:57:01.353,9.4645,5.8415,6.1922
2026-07-21T15:57:01.365,9.4645,5.7436,6.1531
2026-07-21T15:57:01.382,9.4956,5.8807,6.2705
2026-07-21T15:57:01.382,9.4956,5.9199,6.0552
2026-07-21T15:57:01.382,9.4956,5.9394,6.1726
2026-07-21T15:57:01.414,9.5356,5.8807,6.1335
2026-07-21T15:57:01.414,9.5356,6.1352,6.4468
2026-07-21T15:57:01.414,9.5381,5.7632,6.1335
2026-07-21T15:57:01.445,9.5591,5.9003,6.1139
2026-07-21T15:57:01.445,9.5591,5.8611,6.0943
2026-07-21T15:57:01.456,9.5591,5.9003,6.2118
2026-07-21T15:57:01.477,9.5908,5.8415,6.2705
2026-07-21T15:57:01.477,9.5908,6.0569,6.3293
2026-07-21T15:57:01.477,9.5908,6.1352,6.1922
2026-07-21T15:57:01.509,9.6233,5.8807,6.2314
2026-07-21T15:57:01.509,9.6233,6.0373,6.2118
2026-07-21T15:57:01.509,9.6233,5.9199,6.2314
2026-07-21T15:57:01.525,9.6549,5.9199,6.0747
2026-07-21T15:57:01.525,9.6549,5.8415,6.1726
2026-07-21T15:57:01.541,9.6549,5.7045,6.2314
2026-07-21T15:57:01.556,9.6872,5.8024,6.1531
2026-07-21T15:57:01.556,9.6872,6.0373,6.1531
2026-07-21T15:57:01.573,9.6872,5.8611,6.251
2026-07-21T15:57:01.573,9.7172,6.0178,6.1139
2026-07-21T15:57:01.602,9.7172,5.8219,6.1531
2026-07-21T15:57:01.605,9.7172,5.9199,6.1335
2026-07-21T15:57:01.605,9.7367,5.8024,6.0943
2026-07-21T15:57:01.619,9.7497,5.8807,6.0747
2026-07-21T15:57:01.635,9.7497,5.6849,6.2118
2026-07-21T15:57:01.635,9.7664,6.0569,6.1922
2026-07-21T15:57:01.655,9.7805,6.0178,6.251
2026-07-21T15:57:01.655,9.7805,5.959,6.1922
2026-07-21T15:57:01.668,9.7836,6.0765,6.0356
2026-07-21T15:57:01.684,9.7966,6.1157,6.1335
2026-07-21T15:57:01.684,9.7966,5.8415,6.1139
2026-07-21T15:57:01.702,9.8123,6.0373,6.3293
2026-07-21T15:57:01.715,9.8372,5.9982,6.2705
2026-07-21T15:57:01.715,9.8372,6.1548,6.2705
2026-07-21T15:57:01.730,9.8439,5.8415,6.1531
2026-07-21T15:57:01.755,9.8598,5.8807,6.1922
2026-07-21T15:57:01.755,9.8598,5.9394,6.1139
2026-07-21T15:57:01.762,9.8775,5.959,6.251
2026-07-21T15:57:01.778,9.9068,5.8611,6.1922
2026-07-21T15:57:01.778,9.908,5.959,6.2118
2026-07-21T15:57:01.795,9.908,5.9003,5.9964
2026-07-21T15:57:01.809,9.9386,5.8807,6.1726
2026-07-21T15:57:01.809,9.9386,5.9003,6.0747
2026-07-21T15:57:01.825,9.9386,5.8807,6.5643
2026-07-21T15:57:01.841,9.9701,5.8611,6.3293
2026-07-21T15:57:01.841,9.9701,6.0961,6.388
2026-07-21T15:57:01.841,9.9701,6.0961,6.2118
2026-07-21T15:57:01.857,9.9701,5.9786,6.3489
2026-07-21T15:57:01.872,10.002,6.1157,6.251
2026-07-21T15:57:01.888,10.002,6.1157,6.3684
2026-07-21T15:57:01.888,10.002,6.0765,6.3097
2026-07-21T15:57:01.904,10.0381,6.1548,6.5643
2026-07-21T15:57:01.920,10.0381,6.2136,6.6034
2026-07-21T15:57:01.920,10.0381,5.9982,6.4859
2026-07-21T15:57:01.920,10.0381,6.1157,6.4272
2026-07-21T15:57:01.956,10.0648,6.1157,6.4076
2026-07-21T15:57:01.956,10.0648,6.1157,6.3489
2026-07-21T15:57:01.956,10.0648,6.1744,6.5251
2026-07-21T15:57:01.983,10.0962,6.2136,6.4272
2026-07-21T15:57:01.983,10.0962,6.1157,6.4076
2026-07-21T15:57:01.983,10.0962,6.2136,6.3293
2026-07-21T15:57:02.014,10.1276,6.0178,6.4859
2026-07-21T15:57:02.014,10.1382,6.1744,6.388
2026-07-21T15:57:02.014,10.1382,6.0373,6.4272
2026-07-21T15:57:02.046,10.1652,6.1744,6.5643
2026-07-21T15:57:02.046,10.1652,6.1352,6.7209
2026-07-21T15:57:02.046,10.1652,6.3506,6.4859
2026-07-21T15:57:02.083,10.192,6.2331,6.5838
2026-07-21T15:57:02.083,10.192,6.3506,6.5643
2026-07-21T15:57:02.083,10.192,6.2527,6.4272
2026-07-21T15:57:02.093,10.2228,6.2919,6.4664
2026-07-21T15:57:02.110,10.2228,6.0765,6.5055
2026-07-21T15:57:02.110,10.2228,6.1548,6.5251
2026-07-21T15:57:02.110,10.2384,6.1548,6.7013
2026-07-21T15:57:02.141,10.2542,6.331,6.6034
2026-07-21T15:57:02.141,10.2542,6.2919,6.5055
2026-07-21T15:57:02.156,10.2699,6.3898,6.6426
2026-07-21T15:57:02.172,10.3013,6.6443,6.5447
2026-07-21T15:57:02.172,10.3013,6.3115,6.5838
2026-07-21T15:57:02.172,10.3013,6.3115,6.5643
2026-07-21T15:57:02.204,10.3387,6.2723,6.6034
2026-07-21T15:57:02.204,10.3387,6.3115,6.7209
2026-07-21T15:57:02.204,10.3387,6.3115,6.7013
2026-07-21T15:57:02.219,10.3387,6.566,6.4664
2026-07-21T15:57:02.240,10.3649,6.4681,6.8384
2026-07-21T15:57:02.251,10.3649,6.5269,6.6426
2026-07-21T15:57:02.251,10.3811,6.429,6.7601
2026-07-21T15:57:02.266,10.3841,6.5269,6.6622
2026-07-21T15:57:02.267,10.4119,6.2723,6.623
2026-07-21T15:57:02.283,10.4119,6.429,6.4859
2026-07-21T15:57:02.283,10.4119,6.2331,6.7013
2026-07-21T15:57:02.302,10.4119,6.2723,6.7209
2026-07-21T15:57:02.314,10.444,6.3506,6.5643
2026-07-21T15:57:02.330,10.444,6.6639,6.9559
2026-07-21T15:57:02.330,10.444,6.7814,7.1125
2026-07-21T15:57:02.346,10.4611,7.1339,6.995
2026-07-21T15:57:02.357,10.4844,6.5269,6.9363
2026-07-21T15:57:02.362,10.4919,6.6248,6.7992
2026-07-21T15:57:02.362,10.4929,6.6052,6.6034
2026-07-21T15:57:02.379,10.4929,6.6639,6.9754
2026-07-21T15:57:02.402,10.524,6.8401,7.0538
2026-07-21T15:57:02.402,10.524,7.0751,7.3671
2026-07-21T15:57:02.411,10.524,7.0164,7.3475
2026-07-21T15:57:02.426,10.5556,7.2318,7.4062
2026-07-21T15:57:02.442,10.5556,7.036,7.3083
2026-07-21T15:57:02.442,10.5556,7.0555,7.2496
2026-07-21T15:57:02.442,10.5714,6.8989,7.0929
2026-07-21T15:57:02.458,10.5871,6.9381,7.1125
2026-07-21T15:57:02.474,10.6032,6.7814,7.0734
2026-07-21T15:57:02.474,10.6032,6.7814,7.2496
2026-07-21T15:57:02.489,10.6346,6.7031,7.0342
2026-07-21T15:57:02.505,10.6403,6.6639,7.2104
2026-07-21T15:57:02.505,10.6403,6.7618,7.2104
2026-07-21T15:57:02.521,10.6503,6.5464,7.0342
2026-07-21T15:57:02.537,10.666,6.6835,7.1517
2026-07-21T15:57:02.537,10.666,6.7814,7.0538
2026-07-21T15:57:02.553,10.6819,6.7814,6.8971
2026-07-21T15:57:02.568,10.6844,6.801,7.0342
2026-07-21T15:57:02.568,10.6844,6.8597,6.995
2026-07-21T15:57:02.584,10.698,6.7227,7.2104
2026-07-21T15:57:02.584,10.7147,6.7227,7.1517
2026-07-21T15:57:02.602,10.7147,7.0555,7.2104
2026-07-21T15:57:02.616,10.7456,6.9576,7.1125
2026-07-21T15:57:02.616,10.7456,6.8989,7.3083
2026-07-21T15:57:02.633,10.7456,7.0164,7.0538
2026-07-21T15:57:02.633,10.7634,6.8206,7.1713
2026-07-21T15:57:02.659,10.7634,6.8597,7.2496
2026-07-21T15:57:02.664,10.7782,6.8989,6.9167
2026-07-21T15:57:02.664,10.7974,6.6835,6.995
2026-07-21T15:57:02.681,10.7974,6.5856,6.995
2026-07-21T15:57:02.696,10.8095,6.7618,6.8384
2026-07-21T15:57:02.712,10.8252,6.6443,7.0929
2026-07-21T15:57:02.715,10.8252,6.7031,7.1125
2026-07-21T15:57:02.715,10.8411,6.6443,6.9363
2026-07-21T15:57:02.727,10.847,6.7422,6.9167
2026-07-21T15:57:02.743,10.8571,6.4094,6.9167
2026-07-21T15:57:02.743,10.8729,6.6052,6.7405
2026-07-21T15:57:02.766,10.889,6.3506,6.9754
2026-07-21T15:57:02.775,10.889,6.5856,6.995
2026-07-21T15:57:02.775,10.889,6.5856,6.9559
2026-07-21T15:57:02.791,10.9074,6.8793,7.0146
2026-07-21T15:57:02.807,10.9205,6.8989,6.9754
2026-07-21T15:57:02.807,10.9362,6.7814,6.8775
2026-07-21T15:57:02.823,10.9377,6.5464,6.9754
2026-07-21T15:57:02.838,10.9523,6.6052,7.0929
2026-07-21T15:57:02.838,10.9523,6.566,6.7405
2026-07-21T15:57:02.856,10.9698,6.5856,6.995
2026-07-21T15:57:02.860,10.985,6.5856,6.995
2026-07-21T15:57:02.870,11.0,6.5464,7.0929
2026-07-21T15:57:02.870,11.0,6.5464,6.995
2026-07-21T15:57:02.888,11.0317,6.7227,7.0538
2026-07-21T15:57:02.903,11.0317,6.6052,6.8188
2026-07-21T15:57:02.903,11.0317,6.5073,6.9559
2026-07-21T15:57:02.918,11.0423,6.6052,6.8971
2026-07-21T15:57:02.934,11.0636,6.5856,6.858
2026-07-21T15:57:02.934,11.0636,6.7814,6.858
2026-07-21T15:57:02.950,11.0636,6.3898,6.9167
2026-07-21T15:57:02.966,11.0952,6.3506,6.7405
2026-07-21T15:57:02.982,11.0952,6.4094,6.9167
2026-07-21T15:57:02.982,11.1111,6.5856,7.0734
2026-07-21T15:57:02.982,11.1111,6.5073,6.9363
2026-07-21T15:57:03.013,11.1426,6.8597,6.9559
2026-07-21T15:57:03.013,11.1426,6.7814,7.1321
2026-07-21T15:57:03.013,11.1426,6.8989,6.8971
2026-07-21T15:57:03.029,11.1426,6.5464,7.1517
2026-07-21T15:57:03.045,11.1748,6.6835,6.8775
2026-07-21T15:57:03.045,11.1748,6.6639,7.0929
2026-07-21T15:57:03.061,11.1852,6.6835,7.1125
2026-07-21T15:57:03.077,11.2067,6.6443,6.9167
2026-07-21T15:57:03.093,11.2067,6.4485,6.7796
2026-07-21T15:57:03.093,11.2067,6.2136,6.5251
2026-07-21T15:57:03.103,11.224,6.6248,6.7796
2026-07-21T15:57:03.109,11.2539,6.6248,7.0734
2026-07-21T15:57:03.125,11.2699,6.7618,7.0538
2026-07-21T15:57:03.125,11.2699,6.7814,6.7601
2026-07-21T15:57:03.142,11.3015,6.7031,7.0734
2026-07-21T15:57:03.172,11.3015,6.4877,6.9167
2026-07-21T15:57:03.172,11.3015,6.5073,7.0342
2026-07-21T15:57:03.172,11.3015,6.3702,6.7796
2026-07-21T15:57:03.172,11.3015,6.801,6.858
2026-07-21T15:57:03.188,11.3173,6.8793,7.1125
2026-07-21T15:57:03.204,11.3491,6.6639,7.0734
2026-07-21T15:57:03.219,11.3491,6.7618,6.9363
2026-07-21T15:57:03.219,11.3491,6.8206,7.1713
2026-07-21T15:57:03.235,11.3491,6.566,6.7992
2026-07-21T15:57:03.251,11.386,6.5856,6.7796
2026-07-21T15:57:03.262,11.386,6.3506,6.5251
2026-07-21T15:57:03.267,11.3965,6.6248,7.0929
2026-07-21T15:57:03.267,11.3965,6.8401,7.0342
2026-07-21T15:57:03.304,11.4284,6.8206,7.1125
2026-07-21T15:57:03.304,11.4284,6.8401,7.0538
2026-07-21T15:57:03.304,11.4284,6.7422,6.8971
2026-07-21T15:57:03.315,11.4284,6.4877,6.6622
2026-07-21T15:57:03.315,11.4599,6.5464,6.6622
2026-07-21T15:57:03.346,11.4757,6.566,6.7405
2026-07-21T15:57:03.346,11.4757,6.7814,7.0929
2026-07-21T15:57:03.346,11.4757,6.7814,7.1125
2026-07-21T15:57:03.362,11.4861,6.8597,7.2496
2026-07-21T15:57:03.378,11.5085,6.8989,7.0146
2026-07-21T15:57:03.378,11.5085,6.8206,7.0146
2026-07-21T15:57:03.394,11.5085,6.7422,6.995
2026-07-21T15:57:03.404,11.524,6.5464,6.8971
2026-07-21T15:57:03.411,11.5446,6.6443,6.7796
2026-07-21T15:57:03.427,11.5446,6.7227,6.8188
2026-07-21T15:57:03.427,11.5556,6.7422,7.1908
2026-07-21T15:57:03.442,11.5859,6.7422,7.0734
2026-07-21T15:57:03.463,11.5875,6.9772,7.1321
2026-07-21T15:57:03.463,11.5875,6.7227,7.0146
2026-07-21T15:57:03.474,11.5875,6.7422,6.9559
2026-07-21T15:57:03.489,11.6192,6.9381,6.7992
2026-07-21T15:57:03.489,11.6192,6.6443,6.9167
2026-07-21T15:57:03.505,11.637,6.7031,6.8775
2026-07-21T15:57:03.505,11.637,6.7814,6.9559
2026-07-21T15:57:03.522,11.6667,6.5856,7.1321
2026-07-21T15:57:03.537,11.6667,6.801,7.0929
2026-07-21T15:57:03.537,11.6667,6.8597,6.9754
2026-07-21T15:57:03.555,11.6667,6.7618,7.0342
2026-07-21T15:57:03.569,11.6985,6.8793,6.858
2026-07-21T15:57:03.569,11.6985,6.8206,7.1713
2026-07-21T15:57:03.585,11.6985,6.7422,7.0342
2026-07-21T15:57:03.585,11.7307,6.9576,6.995
2026-07-21T15:57:03.604,11.7307,6.8597,6.995
2026-07-21T15:57:03.617,11.7478,6.6639,7.1321
2026-07-21T15:57:03.617,11.7478,6.8989,6.9754
2026-07-21T15:57:03.634,11.7478,6.7227,6.9754
2026-07-21T15:57:03.649,11.7787,6.7618,6.995
2026-07-21T15:57:03.649,11.7787,6.7227,6.9559
2026-07-21T15:57:03.666,11.7863,6.8793,6.9559
2026-07-21T15:57:03.666,11.8136,6.6639,7.0538
2026-07-21T15:57:03.681,11.8136,6.9968,6.9167
2026-07-21T15:57:03.697,11.8136,6.801,6.9559
2026-07-21T15:57:03.704,11.8271,6.6835,7.0929
2026-07-21T15:57:03.732,11.8457,6.7031,7.1713
2026-07-21T15:57:03.732,11.8457,6.7422,7.0146
2026-07-21T15:57:03.732,11.8588,6.6443,7.0929
2026-07-21T15:57:03.745,11.8588,6.9185,7.0146
2026-07-21T15:57:03.745,11.8902,6.8206,7.0734
2026-07-21T15:57:03.764,11.8902,6.8989,7.2104
2026-07-21T15:57:03.777,11.8902,6.8597,6.9167
2026-07-21T15:57:03.777,11.8902,6.7422,6.9167
2026-07-21T15:57:03.805,11.9219,6.7031,7.1713
2026-07-21T15:57:03.805,11.9219,6.7422,7.0146
2026-07-21T15:57:03.808,11.9219,6.429,6.8775
2026-07-21T15:57:03.824,11.9551,6.7422,6.995
2026-07-21T15:57:03.824,11.9551,6.7814,6.9363
2026-07-21T15:57:03.840,11.9551,6.6639,6.8384
2026-07-21T15:57:03.856,11.9696,6.5856,6.7796
2026-07-21T15:57:03.873,11.9864,6.7814,6.8775
2026-07-21T15:57:03.873,11.9864,6.5269,6.8188
2026-07-21T15:57:03.873,12.0019,6.7618,6.7405
2026-07-21T15:57:03.888,12.0174,6.6248,6.7601
2026-07-21T15:57:03.904,12.0335,6.6639,7.2104
2026-07-21T15:57:03.904,12.0335,6.7814,7.1908
2026-07-21T15:57:03.920,12.0654,6.7422,6.9363
2026-07-21T15:57:03.935,12.0654,6.801,6.9363
2026-07-21T15:57:03.935,12.0654,6.9576,6.9559
2026-07-21T15:57:03.952,12.0654,7.1339,6.9559
2026-07-21T15:57:03.968,12.0968,6.7422,6.995
2026-07-21T15:57:03.968,12.0968,7.4472,7.1517
2026-07-21T15:57:03.983,12.0968,7.3688,7.4454
2026-07-21T15:57:03.983,12.1125,7.3101,7.602
2026-07-21T15:57:04.015,12.1282,7.4667,7.9153
2026-07-21T15:57:04.015,12.1282,7.5255,7.9936
2026-07-21T15:57:04.015,12.147,7.9171,8.1699
2026-07-21T15:57:04.030,12.147,8.0737,8.4244
2026-07-21T15:57:04.046,12.1759,8.4066,9.1685
2026-07-21T15:57:04.046,12.1759,8.9157,9.8342
2026-07-21T15:57:04.065,12.1938,9.2486,10.5783
2026-07-21T15:57:04.065,12.2234,9.5815,11.342
2026-07-21T15:57:04.094,12.2234,9.6598,12.4385
2026-07-21T15:57:04.094,12.2234,10.3843,13.7112
2026-07-21T15:57:04.105,12.2391,11.1871,15.2385
2026-07-21T15:57:04.118,12.2472,11.5004,16.7854
2026-07-21T15:57:04.141,12.2872,11.9507,18.5085
2026-07-21T15:57:04.141,12.2872,12.3032,19.9575
2026-07-21T15:57:04.141,12.2872,12.5186,21.4456
2026-07-21T15:57:04.157,12.3027,13.0472,22.5617
2026-07-21T15:57:04.165,12.3152,13.5759,24.1086
2026-07-21T15:57:04.174,12.3187,14.0459,25.6359
2026-07-21T15:57:04.189,12.3506,14.4179,27.0653
2026-07-21T15:57:04.189,12.3506,15.0445,28.3772
2026-07-21T15:57:04.205,12.3662,15.5144,29.7087
2026-07-21T15:57:04.205,12.3662,16.0431,30.864
2026-07-21T15:57:04.233,12.3662,16.1998,31.5493
2026-07-21T15:57:04.237,12.382,16.4151,31.5493
2026-07-21T15:57:04.237,12.3872,16.1802,30.7857
2026-07-21T15:57:04.266,12.4149,16.0235,29.415
2026-07-21T15:57:04.266,12.4149,15.4165,27.222
2026-07-21T15:57:04.269,12.432,14.8291,24.6177
2026-07-21T15:57:04.284,12.4326,13.5759,21.6414
2026-07-21T15:57:04.284,12.4477,12.6165,19.0372
2026-07-21T15:57:04.305,12.4477,11.3829,17.2358
2026-07-21T15:57:04.316,12.4785,10.9325,16.6288
2026-07-21T15:57:04.317,12.4876,10.5801,15.6106
2026-07-21T15:57:04.333,12.4932,10.6192,15.5322
2026-07-21T15:57:04.351,12.4932,10.9129,15.728
2026-07-21T15:57:04.351,12.4932,11.2067,15.6693
2026-07-21T15:57:04.366,12.5092,11.1675,15.6693
2026-07-21T15:57:04.380,12.5481,10.9521,15.356
2026-07-21T15:57:04.396,12.5481,10.8542,14.4749
2026-07-21T15:57:04.396,12.5572,10.4038,13.6133
2026-07-21T15:57:04.406,12.5572,10.071,12.556
2026-07-21T15:57:04.427,12.5572,9.5227,11.4594
2026-07-21T15:57:04.427,12.5572,8.8961,10.9895
2026-07-21T15:57:04.444,12.6047,8.2108,10.1084
2026-07-21T15:57:04.444,12.6047,7.7604,9.2664
2026-07-21T15:57:04.459,12.6047,7.2513,8.9335
2026-07-21T15:57:04.466,12.6215,7.1926,8.5223
2026-07-21T15:57:04.475,12.6215,7.2318,8.1503
2026-07-21T15:57:04.475,12.6215,7.4667,8.6202
2026-07-21T15:57:04.492,12.6365,7.6234,8.8944
2026-07-21T15:57:04.507,12.6683,8.3674,9.7755
2026-07-21T15:57:04.507,12.6683,8.8374,10.6175
2026-07-21T15:57:04.523,12.673,9.7185,11.8902
2026-07-21T15:57:04.539,12.684,10.5605,13.4175
2026-07-21T15:57:04.539,12.6876,11.0892,15.4148
2026-07-21T15:57:04.554,12.6996,12.2836,18.1952
2026-07-21T15:57:04.571,12.7321,13.7913,21.2302
2026-07-21T15:57:04.571,12.7321,14.6529,24.2065
2026-07-21T15:57:04.586,12.7492,16.0823,27.7898
2026-07-21T15:57:04.602,12.7492,17.2963,30.9619
2026-07-21T15:57:04.606,12.7631,18.0795,34.1535
2026-07-21T15:57:04.618,12.7631,18.9802,36.5032
2026-07-21T15:57:04.618,12.7631,19.9397,39.9299
2026-07-21T15:57:04.633,12.795,21.0166,42.9845
2026-07-21T15:57:04.633,12.795,21.9761,45.9216
2026-07-21T15:57:04.667,12.8107,22.818,48.2713
2026-07-21T15:57:04.681,12.8107,23.7579,50.0335
2026-07-21T15:57:04.681,12.8107,24.5999,51.1888
2026-07-21T15:57:04.681,12.8275,25.1873,52.6378
2026-07-21T15:57:04.698,12.8275,25.9118,53.9889
2026-07-21T15:57:04.713,12.8583,26.558,55.3399
2026-07-21T15:57:04.713,12.8583,27.2041,56.6127
2026-07-21T15:57:04.729,12.874,27.6937,57.5721
2026-07-21T15:57:04.729,12.874,28.4965,58.8057
2026-07-21T15:57:04.745,12.8897,29.2601,59.5106
2026-07-21T15:57:04.745,12.8897,30.3175,60.333
2026-07-21T15:57:04.776,12.9217,31.3553,61.0771
2026-07-21T15:57:04.776,12.9217,32.1581,61.9974
2026-07-21T15:57:04.776,12.9374,32.8238,62.761
2026-07-21T15:57:04.792,12.9374,33.47,63.4464
2026-07-21T15:57:04.808,12.9374,33.607,63.0547
2026-07-21T15:57:04.824,12.9701,33.5091,62.4673
2026-07-21T15:57:04.840,12.9862,34.0574,62.1149
2026-07-21T15:57:04.840,12.9862,34.5078,62.1932
2026-07-21T15:57:04.840,12.9883,35.2518,62.4477
2026-07-21T15:57:04.855,12.9883,35.8784,62.7806
2026-07-21T15:57:04.871,12.9883,36.5637,62.8394
2026-07-21T15:57:04.871,13.0165,36.9358,62.7806
2026-07-21T15:57:04.888,13.0165,37.5036,61.9974
2026-07-21T15:57:04.888,13.0333,37.5428,61.8407
2026-07-21T15:57:04.906,13.0333,37.6603,61.3121
2026-07-21T15:57:04.906,13.0482,37.9148,61.5274
2026-07-21T15:57:04.934,13.0802,38.2477,61.7233
2026-07-21T15:57:04.934,13.0802,38.561,61.7428
2026-07-21T15:57:04.934,13.0802,39.0897,61.4295
2026-07-21T15:57:04.951,13.0883,39.2463,61.0967
2026-07-21T15:57:04.966,13.0959,39.6771,60.7051
2026-07-21T15:57:04.969,13.1117,40.01,60.6072
2026-07-21T15:57:04.982,13.1117,40.4603,60.6659
2026-07-21T15:57:04.998,13.1275,40.3624,60.94
2026-07-21T15:57:05.006,13.1275,40.3428,60.9596
2026-07-21T15:57:05.014,13.1275,40.1079,61.3708
2026-07-21T15:57:05.014,13.1748,40.4603,61.6449
2026-07-21T15:57:05.030,13.1748,40.3624,62.1149
2026-07-21T15:57:05.045,13.1748,40.9694,62.2519
2026-07-21T15:57:05.045,13.191,41.1652,61.782
2026-07-21T15:57:05.071,13.2067,41.2435,61.2337
2026-07-21T15:57:05.077,13.2223,41.4198,60.803
2026-07-21T15:57:05.077,13.2223,41.4785,61.0379
2026-07-21T15:57:05.093,13.2223,41.0477,60.7246
2026-07-21T15:57:05.093,13.2383,40.7932,59.9218
2026-07-21T15:57:05.109,13.2701,39.0701,58.747
2026-07-21T15:57:05.125,13.2701,36.5442,56.4952
2026-07-21T15:57:05.125,13.2869,32.7847,52.8336
2026-07-21T15:57:05.140,13.2885,28.8098,47.1943
2026-07-21T15:57:05.156,13.3019,24.5803,40.1453
2026-07-21T15:57:05.156,13.3159,20.6446,32.9983
2026-07-21T15:57:05.172,13.352,17.4138,27.3003
2026-07-21T15:57:05.172,13.352,15.1424,23.6583
2026-07-21T15:57:05.188,13.3649,13.2235,20.6232
2026-07-21T15:57:05.206,13.3649,11.5199,17.9994
2026-07-21T15:57:05.206,13.3806,9.8947,15.2581
2026-07-21T15:57:05.220,13.3889,8.5045,12.556
2026-07-21T15:57:05.251,13.4122,7.6234,10.4412
2026-07-21T15:57:05.251,13.4122,7.0947,8.7377
2026-07-21T15:57:05.251,13.429,6.2136,7.4454
2026-07-21T15:57:05.283,13.444,5.8807,6.5447
2026-07-21T15:57:05.283,13.4445,5.4891,6.0747
2026-07-21T15:57:05.307,13.4501,5.352,5.7223
2026-07-21T15:57:05.307,13.4512,5.6653,5.8789
2026-07-21T15:57:05.314,13.4522,4.98,5.5265
2026-07-21T15:57:05.314,13.4756,5.4108,6.016
2026-07-21T15:57:05.330,13.4756,5.8807,6.3293
2026-07-21T15:57:05.330,13.4756,6.2723,6.4272
2026-07-21T15:57:05.363,13.4913,6.1744,6.2705
2026-07-21T15:57:05.368,13.4913,6.1157,6.7209
2026-07-21T15:57:05.368,13.4913,6.331,6.5447
2026-07-21T15:57:05.370,13.4913,6.0765,6.6034
2026-07-21T15:57:05.394,13.5231,5.8415,6.251
2026-07-21T15:57:05.394,13.5231,5.7632,6.0747
2026-07-21T15:57:05.409,13.5231,6.1744,6.4664
2026-07-21T15:57:05.409,13.5231,6.0569,6.858
2026-07-21T15:57:05.427,13.5556,6.2919,6.623
2026-07-21T15:57:05.427,13.5556,6.2919,6.7209
2026-07-21T15:57:05.441,13.5556,6.2331,6.623
2026-07-21T15:57:05.457,13.5894,6.2136,6.7209
2026-07-21T15:57:05.474,13.5894,6.0373,6.3293
2026-07-21T15:57:05.474,13.5894,5.8415,6.4468
2026-07-21T15:57:05.474,13.6044,6.1744,6.3293
2026-07-21T15:57:05.507,13.6185,6.0178,6.8384
2026-07-21T15:57:05.507,13.6185,6.2136,6.8384
2026-07-21T15:57:05.507,13.6341,6.194,6.623
2026-07-21T15:57:05.536,13.6529,6.331,6.6817
2026-07-21T15:57:05.536,13.6529,6.0765,6.4664
2026-07-21T15:57:05.536,13.6529,6.0961,6.2901
2026-07-21T15:57:05.552,13.6657,6.1157,6.4468
2026-07-21T15:57:05.571,13.6944,6.2919,6.5838
2026-07-21T15:57:05.571,13.6981,6.194,6.4272
2026-07-21T15:57:05.584,13.6986,6.0765,6.5447
2026-07-21T15:57:05.607,13.7135,6.2723,6.5055
2026-07-21T15:57:05.607,13.7292,6.3506,6.7796
2026-07-21T15:57:05.617,13.7292,6.8206,6.7209
2026-07-21T15:57:05.617,13.7606,8.0346,7.2692
2026-07-21T15:57:05.631,13.7606,9.3465,7.5433
2026-07-21T15:57:05.631,13.7606,10.8934,8.2482
2026-07-21T15:57:05.647,13.7894,12.9493,8.679
2026-07-21T15:57:05.679,13.8089,13.9871,9.286
2026-07-21T15:57:05.679,13.8089,15.534,9.6384
2026-07-21T15:57:05.679,13.8237,17.2375,10.0888
2026-07-21T15:57:05.694,13.8395,18.7061,10.5196
2026-07-21T15:57:05.694,13.8395,20.7425,11.3811
2026-07-21T15:57:05.727,13.8722,23.4642,12.2231
2026-07-21T15:57:05.727,13.8722,26.2447,13.3392
2026-07-21T15:57:05.727,13.8893,29.7301,14.3966
2026-07-21T15:57:05.742,13.8893,32.9413,15.356
2026-07-21T15:57:05.742,13.903,36.1134,16.5896
2026-07-21T15:57:05.757,13.9188,39.2855,17.5295
2026-07-21T15:57:05.774,13.9502,42.5163,18.5477
2026-07-21T15:57:05.790,13.9538,45.1401,19.8792
2026-07-21T15:57:05.790,13.9538,48.0968,20.819
2026-07-21T15:57:05.807,13.9661,50.4073,21.7981
2026-07-21T15:57:05.807,13.9661,52.5221,22.2289
2026-07-21T15:57:05.821,13.9661,54.3235,22.8359
2026-07-21T15:57:05.837,13.9818,55.9487,23.0513
2026-07-21T15:57:05.852,13.9991,56.8886,23.2471
2026-07-21T15:57:05.852,14.0147,57.476,23.3645
2026-07-21T15:57:05.872,14.0147,58.3963,23.6387
2026-07-21T15:57:05.884,14.0147,58.8662,23.9128
2026-07-21T15:57:05.884,14.0147,59.5124,24.4611
2026-07-21T15:57:05.900,14.0298,60.3544,24.6765
2026-07-21T15:57:05.907,14.0623,61.353,25.3618
2026-07-21T15:57:05.917,14.0623,63.546,25.91
2026-07-21T15:57:05.933,14.0623,65.5824,26.1254
2026-07-21T15:57:05.933,14.0623,67.1489,26.4779
2026-07-21T15:57:05.948,14.0773,66.9335,26.8108
2026-07-21T15:57:05.948,14.0898,66.2678,26.8891
2026-07-21T15:57:05.972,14.1087,65.5237,27.0066
2026-07-21T15:57:05.972,14.1087,65.4845,27.2611
2026-07-21T15:57:05.980,14.1087,65.1908,27.3786
2026-07-21T15:57:05.995,14.1244,65.23,27.6527
2026-07-21T15:57:06.008,14.1244,65.5628,27.966
2026-07-21T15:57:06.011,14.1561,65.9545,28.1814
2026-07-21T15:57:06.027,14.1561,65.8174,28.2402
2026-07-21T15:57:06.027,14.1561,65.837,28.4555
2026-07-21T15:57:06.042,14.1718,65.5433,28.436
2026-07-21T15:57:06.058,14.19,65.6607,28.6905
2026-07-21T15:57:06.058,14.19,65.8174,28.808
2026-07-21T15:57:06.074,14.2035,65.8761,29.2192
2026-07-21T15:57:06.090,14.2035,65.837,29.5912
2026-07-21T15:57:06.090,14.2196,65.7391,29.8262
2026-07-21T15:57:06.108,14.2196,65.5237,29.9045
2026-07-21T15:57:06.108,14.2351,65.5628,30.394
2026-07-21T15:57:06.122,14.2546,65.2496,30.4724
2026-07-21T15:57:06.137,14.2546,65.1517,30.7661
2026-07-21T15:57:06.138,14.2668,65.4258,31.001
2026-07-21T15:57:06.153,14.2668,65.4845,31.2556
2026-07-21T15:57:06.153,14.2987,64.9558,31.4318
2026-07-21T15:57:06.173,14.2987,64.4076,31.8039
2026-07-21T15:57:06.185,14.3077,64.6817,31.9018
2026-07-21T15:57:06.201,14.3307,65.0929,32.3717
2026-07-21T15:57:06.208,14.3307,65.0146,32.4304
2026-07-21T15:57:06.217,14.3307,65.2887,33.057
2026-07-21T15:57:06.226,14.3307,65.0929,33.0766
2026-07-21T15:57:06.249,14.3635,64.8971,33.4095
2026-07-21T15:57:06.249,14.3635,65.1712,33.5661
2026-07-21T15:57:06.249,14.3635,65.2691,33.8403
2026-07-21T15:57:06.264,14.3944,65.0537,34.1144
2026-07-21T15:57:06.282,14.3944,65.1517,34.1535
2026-07-21T15:57:06.282,14.3944,65.6999,34.5647
2026-07-21T15:57:06.296,14.4102,66.581,34.8193
2026-07-21T15:57:06.312,14.4259,67.0118,34.8389
2026-07-21T15:57:06.312,14.4259,66.7573,35.2109
2026-07-21T15:57:06.328,14.4417,66.6202,35.3676
2026-07-21T15:57:06.328,14.4584,66.3461,35.3284
2026-07-21T15:57:06.344,14.4734,66.0915,35.8375
2026-07-21T15:57:06.360,14.4739,66.0524,35.9941
2026-07-21T15:57:06.360,14.5053,66.0132,36.0725
2026-07-21T15:57:06.376,14.5053,66.1698,36.327
2026-07-21T15:57:06.376,14.5053,66.8356,36.3858
2026-07-21T15:57:06.392,14.5053,67.1685,36.0137
2026-07-21T15:57:06.408,14.5383,67.3839,36.0333
2026-07-21T15:57:06.408,14.5383,67.3055,35.8571
2026-07-21T15:57:06.423,14.5532,67.3251,35.7592
2026-07-21T15:57:06.423,14.5558,66.8552,35.8375
2026-07-21T15:57:06.456,14.5689,66.5027,36.0333
2026-07-21T15:57:06.456,14.5689,66.1307,35.7787
2026-07-21T15:57:06.471,14.5903,66.0328,35.7004
2026-07-21T15:57:06.474,14.6168,65.8761,35.3284
2026-07-21T15:57:06.487,14.6168,66.0915,35.0934
2026-07-21T15:57:06.487,14.6168,66.0915,35.0347
2026-07-21T15:57:06.508,14.6168,65.974,34.6235
2026-07-21T15:57:06.519,14.6496,65.4258,34.0165
2026-07-21T15:57:06.519,14.6562,64.7209,33.664
2026-07-21T15:57:06.535,14.6562,64.5838,33.2724
2026-07-21T15:57:06.535,14.6647,64.2118,33.1941
2026-07-21T15:57:06.568,14.6903,64.2314,32.3325
2026-07-21T15:57:06.568,14.6903,64.6426,31.8626
2026-07-21T15:57:06.574,14.6964,64.3293,31.1577
2026-07-21T15:57:06.599,14.728,63.7223,30.629
2026-07-21T15:57:06.599,14.728,62.9586,29.8262
2026-07-21T15:57:06.608,14.728,62.1166,29.415
2026-07-21T15:57:06.614,14.728,61.6859,29.0038
2026-07-21T15:57:06.630,14.7597,60.9614,28.5926
2026-07-21T15:57:06.630,14.7597,60.4914,28.4751
2026-07-21T15:57:06.646,14.7597,59.9627,28.1618
2026-07-21T15:57:06.646,14.7597,59.9823,27.6723
2026-07-21T15:57:06.675,14.7915,59.1599,27.4178
2026-07-21T15:57:06.678,14.7915,58.6313,27.1436
2026-07-21T15:57:06.678,14.7915,58.3571,26.8891
2026-07-21T15:57:06.709,14.823,58.1026,26.752
2026-07-21T15:57:06.709,14.823,57.9459,26.6737
2026-07-21T15:57:06.709,14.823,58.083,26.5954
2026-07-21T15:57:06.725,14.8568,57.6914,26.8499
2026-07-21T15:57:06.741,14.8568,57.2214,26.752
2026-07-21T15:57:06.741,14.8568,56.5949,26.3408
2026-07-21T15:57:06.758,14.8708,56.3011,26.2821
2026-07-21T15:57:06.775,14.8904,55.9291,26.2038
2026-07-21T15:57:06.775,14.8904,56.027,26.145
2026-07-21T15:57:06.789,14.904,55.42,26.2038
2026-07-21T15:57:06.789,14.9262,55.185,26.0863
2026-07-21T15:57:06.808,14.9348,54.7151,25.773
2026-07-21T15:57:06.808,14.9348,54.3235,25.9688
2026-07-21T15:57:06.822,14.9348,53.9906,25.8513
2026-07-21T15:57:06.844,14.9661,54.3822,26.0079
2026-07-21T15:57:06.844,14.9661,54.2843,26.0275
2026-07-21T15:57:06.853,14.9818,54.4018,26.0275
2026-07-21T15:57:06.853,14.9904,54.3431,25.9296
2026-07-21T15:57:06.884,15.0136,53.9123,25.91
2026-07-21T15:57:06.884,15.0136,53.7948,25.7534
2026-07-21T15:57:06.884,15.0136,53.364,25.6751
2026-07-21T15:57:06.908,15.0293,52.4242,25.3814
2026-07-21T15:57:06.916,15.0574,51.9738,25.3618
2026-07-21T15:57:06.916,15.0574,51.5822,25.1268
2026-07-21T15:57:06.932,15.0614,51.0927,25.2443
2026-07-21T15:57:06.947,15.0614,50.6423,24.9702
2026-07-21T15:57:06.948,15.0954,50.0353,24.8527
2026-07-21T15:57:06.965,15.0954,49.3696,24.6765
2026-07-21T15:57:06.979,15.1086,48.6842,24.4023
2026-07-21T15:57:06.979,15.1086,48.2339,24.3436
2026-07-21T15:57:06.995,15.1243,47.5485,24.2261
2026-07-21T15:57:07.008,15.1401,47.0003,24.2065
2026-07-21T15:57:07.013,15.1401,46.4716,24.1478
2026-07-21T15:57:07.027,15.1558,46.5108,24.0107
2026-07-21T15:57:07.027,15.1719,46.2171,23.7757
2026-07-21T15:57:07.042,15.1719,45.9821,23.6191
2026-07-21T15:57:07.058,15.1719,45.5121,23.3645
2026-07-21T15:57:07.058,15.1904,45.1989,23.345
2026-07-21T15:57:07.090,15.2191,44.8268,23.2079
2026-07-21T15:57:07.090,15.2191,44.631,23.1296
2026-07-21T15:57:07.090,15.2191,44.259,22.9534
2026-07-21T15:57:07.108,15.2191,43.6911,23.2275
2026-07-21T15:57:07.121,15.2506,43.9261,23.0904
2026-07-21T15:57:07.121,15.258,43.8282,23.1296
2026-07-21T15:57:07.121,15.258,43.3974,23.2275
2026-07-21T15:57:07.137,15.2664,42.9471,22.738
2026-07-21T15:57:07.169,15.2902,42.5359,22.6205
2026-07-21T15:57:07.169,15.2902,42.0855,22.6988
2026-07-21T15:57:07.176,15.2978,42.1247,22.2484
2026-07-21T15:57:07.184,15.3252,41.9876,22.6792
2026-07-21T15:57:07.200,15.3252,41.9484,22.7771
2026-07-21T15:57:07.208,15.3293,41.7722,22.6401
2026-07-21T15:57:07.216,15.3293,41.9484,22.7184
2026-07-21T15:57:07.234,15.3582,41.5568,22.6792
2026-07-21T15:57:07.234,15.3582,41.6547,22.6792
2026-07-21T15:57:07.247,15.3613,41.4589,22.7575
2026-07-21T15:57:07.264,15.3929,41.596,22.6792
2026-07-21T15:57:07.264,15.3929,41.4002,22.5226
2026-07-21T15:57:07.279,15.3929,41.2044,22.5226
2026-07-21T15:57:07.279,15.3929,41.0282,22.4247
2026-07-21T15:57:07.296,15.4247,41.0282,22.6009
2026-07-21T15:57:07.308,15.4247,41.2044,22.7575
2026-07-21T15:57:07.311,15.4247,41.4785,22.6205
2026-07-21T15:57:07.327,15.4585,41.4981,22.6596
2026-07-21T15:57:07.327,15.4585,41.596,22.7184
2026-07-21T15:57:07.343,15.4585,41.7331,22.6401
2026-07-21T15:57:07.359,15.4906,41.7331,22.875
2026-07-21T15:57:07.359,15.4906,42.0072,22.9534
2026-07-21T15:57:07.376,15.4906,42.3205,22.9534
2026-07-21T15:57:07.391,15.521,42.4967,23.2275
2026-07-21T15:57:07.391,15.521,42.4575,23.3058
2026-07-21T15:57:07.409,15.521,42.9471,23.3645
2026-07-21T15:57:07.409,15.521,42.6534,23.5212
2026-07-21T15:57:07.423,15.5525,43.0254,23.6191
2026-07-21T15:57:07.439,15.5525,43.652,23.6191
2026-07-21T15:57:07.439,15.559,43.789,24.1478
2026-07-21T15:57:07.470,15.5842,44.2786,24.0303
2026-07-21T15:57:07.470,15.5908,44.3765,24.2653
2026-07-21T15:57:07.477,15.5908,44.3569,24.3436
2026-07-21T15:57:07.486,15.616,44.1415,24.4806
2026-07-21T15:57:07.502,15.618,43.9653,24.4023
2026-07-21T15:57:07.509,15.618,43.6128,24.5981
2026-07-21T15:57:07.509,15.6322,43.3583,24.4023
2026-07-21T15:57:07.518,15.6479,42.9471,24.5198
2026-07-21T15:57:07.536,15.6479,42.6534,24.559
2026-07-21T15:57:07.550,15.6702,41.8114,23.9715
2026-07-21T15:57:07.550,15.6702,40.8128,23.7757
2026-07-21T15:57:07.566,15.6817,39.168,23.1492
2026-07-21T15:57:07.582,15.6954,36.5833,22.4834
2026-07-21T15:57:07.588,15.7135,32.5497,20.6624
2026-07-21T15:57:07.600,15.7135,28.8293,18.8414
2026-07-21T15:57:07.600,15.7431,25.0111,16.5896
2026-07-21T15:57:07.613,15.759,21.7607,14.8861
2026-07-21T15:57:07.631,15.7601,19.0781,13.0259
2026-07-21T15:57:07.631,15.7763,16.5914,11.5965
2026-07-21T15:57:07.645,15.7763,14.7116,10.4412
2026-07-21T15:57:07.645,15.8066,13.4389,9.286
2026-07-21T15:57:07.661,15.8066,12.8123,8.7377
2026-07-21T15:57:07.678,15.8066,12.6361,9.0902
2026-07-21T15:57:07.693,15.8223,13.3214,8.8552
2026-07-21T15:57:07.694,15.8223,13.7913,9.1293
2026-07-21T15:57:07.709,15.8382,14.7116,9.6776
2026-07-21T15:57:07.709,15.8541,16.141,10.0692
2026-07-21T15:57:07.725,15.8603,17.7662,11.0287
2026-07-21T15:57:07.725,15.8603,19.6264,12.1839
2026-07-21T15:57:07.740,15.8708,21.9369,13.4763
2026-07-21T15:57:07.756,15.9017,24.737,15.0427
2026-07-21T15:57:07.756,15.9017,27.3804,16.7267
2026-07-21T15:57:07.778,15.9017,29.9063,18.1561
2026-07-21T15:57:07.788,15.9185,31.8839,19.3113
2026-07-21T15:57:07.809,15.9345,33.9203,20.447
2026-07-21T15:57:07.809,15.9345,36.1525,21.6806
2026-07-21T15:57:07.820,15.9495,38.3652,22.131
2026-07-21T15:57:07.836,15.9495,40.0883,22.6988
2026-07-21T15:57:07.837,15.9495,41.6547,22.9925
2026-07-21T15:57:07.852,15.9814,42.7708,23.5799
2026-07-21T15:57:07.852,15.9814,44.3373,24.4611
2026-07-21T15:57:07.867,15.9914,45.9625,25.0289
2026-07-21T15:57:07.867,15.9914,48.0381,25.4009
2026-07-21T15:57:07.884,16.013,49.8591,25.4988
2026-07-21T15:57:07.899,16.013,51.7192,25.9296
2026-07-21T15:57:07.909,16.013,52.6591,26.2038
2026-07-21T15:57:07.915,16.0444,54.1277,26.517
2026-07-21T15:57:07.931,16.0444,54.8718,26.6933
2026-07-21T15:57:07.931,16.0601,55.7529,26.8891
2026-07-21T15:57:07.947,16.0622,56.3403,27.0066
2026-07-21T15:57:07.962,16.0772,56.9865,27.2611
2026-07-21T15:57:07.962,16.0772,57.9459,27.4373
2026-07-21T15:57:07.980,16.0918,59.0816,27.6527
2026-07-21T15:57:07.995,16.1074,60.3544,27.8877
2026-07-21T15:57:07.995,16.1074,62.1558,28.1618
2026-07-21T15:57:07.995,16.1264,63.7614,28.1814
2026-07-21T15:57:08.025,16.1389,65.0929,28.4555
2026-07-21T15:57:08.025,16.1389,66.0915,28.3381
2026-07-21T15:57:08.025,16.155,66.3069,28.6318
2026-07-21T15:57:08.044,16.1707,66.209,28.4947
2026-07-21T15:57:08.057,16.1868,66.4831,28.5339
2026-07-21T15:57:08.057,16.1868,67.3839,28.8276
2026-07-21T15:57:08.080,16.1921,68.03,28.9255
2026-07-21T15:57:08.089,16.2183,69.2636,28.9059
2026-07-21T15:57:08.089,16.2183,69.8706,29.2388
2026-07-21T15:57:08.105,16.2201,70.4776,28.9451
2026-07-21T15:57:08.121,16.2342,70.6147,28.7884
2026-07-21T15:57:08.121,16.2501,70.6538,28.8667
2026-07-21T15:57:08.138,16.2501,70.3406,28.8863
2026-07-21T15:57:08.152,16.2829,70.2035,29.043
2026-07-21T15:57:08.152,16.285,70.0664,29.0038
2026-07-21T15:57:08.168,16.2861,70.5755,29.0625
2026-07-21T15:57:08.180,16.3136,70.9671,28.8472
2026-07-21T15:57:08.184,16.318,71.6329,29.043
2026-07-21T15:57:08.184,16.3221,72.2595,28.8276
2026-07-21T15:57:08.207,16.3453,72.3182,29.1017
2026-07-21T15:57:08.216,16.3453,71.9266,28.9646
2026-07-21T15:57:08.234,16.3453,71.1238,28.9059
2026-07-21T15:57:08.238,16.361,70.1643,29.0038
2026-07-21T15:57:08.247,16.3929,69.7923,29.1409
2026-07-21T15:57:08.263,16.3939,70.7909,29.1996
2026-07-21T15:57:08.263,16.3939,71.0455,29.4542
2026-07-21T15:57:08.279,16.3939,71.3196,29.3563
2026-07-21T15:57:08.296,16.4236,70.9476,29.1017
2026-07-21T15:57:08.296,16.4236,70.5559,28.9059
2026-07-21T15:57:08.296,16.4236,69.7335,28.6122
2026-07-21T15:57:08.312,16.4393,69.5769,28.3381
2026-07-21T15:57:08.326,16.4627,68.9503,28.6318
2026-07-21T15:57:08.342,16.4627,68.8916,28.5534
2026-07-21T15:57:08.342,16.4708,69.0678,28.5143
2026-07-21T15:57:08.357,16.4708,69.6161,28.7297
2026-07-21T15:57:08.357,16.5026,70.0664,28.6318
2026-07-21T15:57:08.381,16.5026,70.321,28.6514
2026-07-21T15:57:08.389,16.5026,69.9489,28.4751
2026-07-21T15:57:08.389,16.5026,69.4398,28.3381
2026-07-21T15:57:08.405,16.5349,68.9699,28.2402
2026-07-21T15:57:08.411,16.5349,69.0482,28.3185
2026-07-21T15:57:08.421,16.5504,68.9307,28.3968
2026-07-21T15:57:08.437,16.5662,68.6958,28.4751
2026-07-21T15:57:08.453,16.5662,68.4216,28.5926
2026-07-21T15:57:08.453,16.5819,68.6762,28.3772
2026-07-21T15:57:08.453,16.5819,68.4804,28.5143
2026-07-21T15:57:08.484,16.6138,68.2454,28.2402
2026-07-21T15:57:08.484,16.6138,67.658,28.2793
2026-07-21T15:57:08.500,16.6138,66.5419,28.3185
2026-07-21T15:57:08.500,16.6138,65.4649,28.3772
2026-07-21T15:57:08.532,16.6463,63.7418,27.966
2026-07-21T15:57:08.532,16.6463,62.7041,28.1423
2026-07-21T15:57:08.532,16.6463,62.2929,27.966
2026-07-21T15:57:08.547,16.6639,62.0775,27.8485
2026-07-21T15:57:08.547,16.677,62.2929,27.5744
2026-07-21T15:57:08.564,16.6924,62.802,27.7898
2026-07-21T15:57:08.564,16.6944,62.5278,27.6919
2026-07-21T15:57:08.588,16.7241,61.9991,27.6527
2026-07-21T15:57:08.595,16.7241,61.725,27.5352
2026-07-21T15:57:08.610,16.7241,61.3726,27.7311
2026-07-21T15:57:08.612,16.7409,60.9418,27.9464
2026-07-21T15:57:08.642,16.7693,59.9432,27.5744
2026-07-21T15:57:08.642,16.7718,59.1012,27.7506
2026-07-21T15:57:08.642,16.7718,58.2592,27.6919
2026-07-21T15:57:08.659,16.8036,58.0438,27.5548
2026-07-21T15:57:08.684,16.8036,58.0243,27.3982
2026-07-21T15:57:08.684,16.8036,58.8662,27.5548
2026-07-21T15:57:08.687,16.8036,59.0033,27.2611
2026-07-21T15:57:08.690,16.8195,59.1208,27.4569
2026-07-21T15:57:08.711,16.8511,58.7683,27.3786
2026-07-21T15:57:08.722,16.8511,58.2396,27.6332
2026-07-21T15:57:08.722,16.8511,57.7305,27.5157
2026-07-21T15:57:08.738,16.8642,57.5935,27.6136
2026-07-21T15:57:08.769,16.8992,57.8089,27.6136
2026-07-21T15:57:08.769,16.8992,58.1809,27.829
2026-07-21T15:57:08.769,16.8992,58.3571,27.8094
2026-07-21T15:57:08.782,16.8992,58.3767,27.9464
2026-07-21T15:57:08.785,16.9299,58.3963,27.6527
2026-07-21T15:57:08.800,16.9299,58.0634,27.7115
2026-07-21T15:57:08.811,16.9299,58.0047,27.7506
2026-07-21T15:57:08.817,16.9467,58.0634,28.0639
2026-07-21T15:57:08.817,16.9467,58.1613,28.1423
2026-07-21T15:57:08.848,16.9778,58.0047,28.1227
2026-07-21T15:57:08.848,16.9778,57.5935,28.1814
2026-07-21T15:57:08.848,16.9939,57.4172,27.829
2026-07-21T15:57:08.865,16.9939,56.7123,27.3982
2026-07-21T15:57:08.896,17.0253,56.6536,26.8108
2026-07-21T15:57:08.896,17.0253,57.6914,27.8681
2026-07-21T15:57:08.896,17.0253,57.7305,28.1031
2026-07-21T15:57:08.912,17.0413,57.8284,28.0443
2026-07-21T15:57:08.912,17.0413,57.5347,27.9856
2026-07-21T15:57:08.943,17.0729,57.3977,27.9073
2026-07-21T15:57:08.943,17.0729,56.9473,27.4765
2026-07-21T15:57:08.943,17.0729,56.3011,26.9282
2026-07-21T15:57:08.959,17.0931,56.634,27.2611
2026-07-21T15:57:08.959,17.0931,57.5152,27.8485
2026-07-21T15:57:08.991,17.1217,57.9263,27.7311
2026-07-21T15:57:08.991,17.1217,58.2005,27.966
2026-07-21T15:57:08.991,17.1367,58.2396,27.9856
2026-07-21T15:57:09.008,17.1367,57.6914,27.829
2026-07-21T15:57:09.023,17.1367,57.0256,27.3394
2026-07-21T15:57:09.040,17.1683,56.5753,27.1436
2026-07-21T15:57:09.040,17.1683,57.6326,27.7311
2026-07-21T15:57:09.055,17.1843,57.7501,27.8877
2026-07-21T15:57:09.055,17.1934,58.2201,27.9856
2026-07-21T15:57:09.071,17.2161,57.9068,27.9464
2026-07-21T15:57:09.086,17.2318,58.0047,27.966
2026-07-21T15:57:09.086,17.2318,57.5347,27.7311
2026-07-21T15:57:09.086,17.2318,57.2998,27.6136
2026-07-21T15:57:09.111,17.2318,56.869,27.4961
2026-07-21T15:57:09.134,17.2659,56.8494,27.9269
2026-07-21T15:57:09.134,17.2659,56.2032,27.8877
2026-07-21T15:57:09.134,17.2659,55.4983,27.3786
2026-07-21T15:57:09.150,17.2795,55.6746,27.4373
2026-07-21T15:57:09.150,17.2795,55.1459,27.3786
2026-07-21T15:57:09.166,17.3111,53.971,26.3604
2026-07-21T15:57:09.184,17.3111,51.9934,25.1464
2026-07-21T15:57:09.184,17.3268,52.2675,26.3604
2026-07-21T15:57:09.197,17.3329,52.4242,26.6933
2026-07-21T15:57:09.197,17.3329,52.1696,26.7324
2026-07-21T15:57:09.213,17.3664,51.8759,26.752
2026-07-21T15:57:09.229,17.3749,51.6018,26.9087
2026-07-21T15:57:09.229,17.3749,50.7206,26.4779
2026-07-21T15:57:09.251,17.3749,47.9793,24.9702
2026-07-21T15:57:09.261,17.3907,46.687,24.3436
2026-07-21T15:57:09.261,17.4074,47.7835,25.773
2026-07-21T15:57:09.284,17.4074,47.7052,25.8121
2026-07-21T15:57:09.284,17.4224,47.5094,25.6947
2026-07-21T15:57:09.293,17.4224,46.9415,25.6555
2026-07-21T15:57:09.309,17.454,46.1975,25.5576
2026-07-21T15:57:09.325,17.454,44.6114,24.8527
2026-07-21T15:57:09.325,17.4666,41.4198,23.8736
2026-07-21T15:57:09.340,17.4702,37.8757,22.7184
2026-07-21T15:57:09.340,17.4702,34.5273,21.5044
2026-07-21T15:57:09.356,17.502,32.5888,20.5449
2026-07-21T15:57:09.372,17.502,30.5524,19.7029
2026-07-21T15:57:09.372,17.5177,28.9468,18.6847
2026-07-21T15:57:09.388,17.5177,27.1062,17.4512
2026-07-21T15:57:09.388,17.5334,24.7565,15.7868
2026-07-21T15:57:09.420,17.5668,21.7215,13.9266
2026-07-21T15:57:09.420,17.5668,18.7648,12.1839
2026-07-21T15:57:09.436,17.5819,15.8865,10.8329
2026-07-21T15:57:09.436,17.5819,13.713,10.0105
2026-07-21T15:57:09.451,17.5975,11.6179,8.7965
2026-07-21T15:57:09.451,17.5975,9.7968,8.1503
2026-07-21T15:57:09.468,17.6289,8.4066,7.6804
2026-07-21T15:57:09.468,17.6289,7.3297,6.9754
2026-07-21T15:57:09.485,17.6521,6.4681,6.4076
2026-07-21T15:57:09.500,17.6521,5.6457,6.1531
2026-07-21T15:57:09.500,17.6521,5.352,6.016
2026-07-21T15:57:09.515,17.6672,5.0583,5.8985
2026-07-21T15:57:09.515,17.6672,4.9017,5.781
2026-07-21T15:57:09.547,17.6943,4.8037,5.5461
2026-07-21T15:57:09.547,17.6943,4.4709,5.644
2026-07-21T15:57:09.547,17.71,4.138,5.6831
2026-07-21T15:57:09.570,17.71,4.4905,5.7223
2026-07-21T15:57:09.580,17.7263,4.4513,5.7419
2026-07-21T15:57:09.585,17.7263,4.7254,5.8789
2026-07-21T15:57:09.595,17.7586,4.8037,5.6635
2026-07-21T15:57:09.612,17.7674,4.6079,5.9964
2026-07-21T15:57:09.612,17.7674,4.7842,5.781
2026-07-21T15:57:09.628,17.7742,4.9212,5.9181
2026-07-21T15:57:09.643,17.7742,4.8821,5.9181
2026-07-21T15:57:09.644,17.7742,4.7842,5.9768
2026-07-21T15:57:09.659,17.8047,5.0191,5.8593
2026-07-21T15:57:09.675,17.8047,5.0191,6.0943
2026-07-21T15:57:09.677,17.8047,5.3128,5.9377
2026-07-21T15:57:09.685,17.8047,5.0583,5.9377
2026-07-21T15:57:09.692,17.8204,5.2737,6.1922
2026-07-21T15:57:09.708,17.8361,5.1562,5.9377
2026-07-21T15:57:09.723,17.8361,5.2345,5.9181
2026-07-21T15:57:09.723,17.8361,5.1366,5.8593
2026-07-21T15:57:09.738,17.8519,5.2933,6.1139
2026-07-21T15:57:09.738,17.8837,5.1366,6.1139
2026-07-21T15:57:09.754,17.8837,5.4108,6.1922
2026-07-21T15:57:09.770,17.8837,5.4108,6.0552
2026-07-21T15:57:09.770,17.9161,5.4108,6.3097
2026-07-21T15:57:09.786,17.9161,5.4891,5.9964
2026-07-21T15:57:09.786,17.9161,5.5674,6.1922
2026-07-21T15:57:09.813,17.9161,5.5282,6.1335
2026-07-21T15:57:09.817,17.9467,5.6457,6.0552
2026-07-21T15:57:09.834,17.9467,5.587,6.1335
2026-07-21T15:57:09.834,17.9467,5.587,6.3489
2026-07-21T15:57:09.849,17.9792,5.8024,6.3293
2026-07-21T15:57:09.865,17.9792,5.7632,6.3684
2026-07-21T15:57:09.865,17.9792,5.8611,6.388
2026-07-21T15:57:09.881,17.9947,5.9786,6.1922
2026-07-21T15:57:09.886,18.0107,6.1744,6.4859
2026-07-21T15:57:09.897,18.0266,5.8807,6.5055
2026-07-21T15:57:09.897,18.0266,6.0765,6.4272
2026-07-21T15:57:09.913,18.0423,6.0373,6.4664
2026-07-21T15:57:09.929,18.0581,5.8611,6.5447
2026-07-21T15:57:09.929,18.0581,6.0373,6.4076
2026-07-21T15:57:09.945,18.0581,5.9199,6.388
2026-07-21T15:57:09.960,18.0903,6.0961,6.388
2026-07-21T15:57:09.960,18.0903,5.959,6.4272
2026-07-21T15:57:09.976,18.0951,6.0178,6.4272
2026-07-21T15:57:09.992,18.1071,5.9786,6.3684
2026-07-21T15:57:09.992,18.1227,5.959,6.3684
2026-07-21T15:57:10.008,18.1227,5.8219,6.2314
2026-07-21T15:57:10.013,18.1382,5.9982,6.3684
2026-07-21T15:57:10.025,18.1382,5.724,6.4664
2026-07-21T15:57:10.040,18.1382,6.0373,6.5055
2026-07-21T15:57:10.056,18.1707,6.0569,6.3684
2026-07-21T15:57:10.056,18.1707,6.1548,6.5251
2026-07-21T15:57:10.056,18.1707,5.9982,6.4076
2026-07-21T15:57:10.089,18.2006,5.9199,6.4272
2026-07-21T15:57:10.089,18.2006,5.7632,6.4664
2026-07-21T15:57:10.089,18.2006,5.8611,6.1726
2026-07-21T15:57:10.119,18.2326,5.8807,6.2705
2026-07-21T15:57:10.119,18.2326,5.8219,6.7992
2026-07-21T15:57:10.119,18.2326,5.8611,6.388
2026-07-21T15:57:10.151,18.2644,5.8611,6.4468
2026-07-21T15:57:10.151,18.2644,5.9982,6.5055
2026-07-21T15:57:10.151,18.2695,6.1744,6.2901
2026-07-21T15:57:10.167,18.2951,5.9982,6.4859
2026-07-21T15:57:10.167,18.2966,5.8807,6.388
2026-07-21T15:57:10.198,18.3162,5.9982,6.3684
2026-07-21T15:57:10.198,18.3162,5.9199,6.388
2026-07-21T15:57:10.198,18.3281,5.9394,6.4664
2026-07-21T15:57:10.215,18.3281,5.9199,6.3684
2026-07-21T15:57:10.230,18.3534,5.8807,6.5643
2026-07-21T15:57:10.234,18.3534,6.0373,6.4468
2026-07-21T15:57:10.246,18.3605,6.2919,6.4076
2026-07-21T15:57:10.262,18.3757,6.0765,6.4859
2026-07-21T15:57:10.262,18.3757,5.9786,6.4272
2026-07-21T15:57:10.279,18.4075,6.0961,6.388
2026-07-21T15:57:10.294,18.4075,5.8807,6.3489
2026-07-21T15:57:10.294,18.4075,5.9199,6.5055
2026-07-21T15:57:10.326,18.4402,6.0178,6.5643
2026-07-21T15:57:10.326,18.4402,5.9982,6.5055
2026-07-21T15:57:10.326,18.4402,6.0373,6.3489
2026-07-21T15:57:10.357,18.4553,5.9982,6.5251
2026-07-21T15:57:10.357,18.4553,6.0178,6.3684
2026-07-21T15:57:10.358,18.4699,5.9786,6.7601
2026-07-21T15:57:10.373,18.4874,6.0569,6.4076
2026-07-21T15:57:10.373,18.4874,6.1352,6.3489
2026-07-21T15:57:10.388,18.495,6.0373,6.388
2026-07-21T15:57:10.405,18.5188,5.7436,6.4859
2026-07-21T15:57:10.405,18.5188,5.9786,6.4859
2026-07-21T15:57:10.427,18.5346,5.9786,6.6034
2026-07-21T15:57:10.437,18.5346,6.0569,6.623
2026-07-21T15:57:10.437,18.5503,6.3506,6.388
2026-07-21T15:57:10.453,18.57,5.9199,6.623
2026-07-21T15:57:10.453,18.57,5.959,6.2901
2026-07-21T15:57:10.468,18.5818,5.959,6.5643
2026-07-21T15:57:10.488,18.598,5.8807,6.388
2026-07-21T15:57:10.488,18.598,6.0765,6.6622
2026-07-21T15:57:10.488,18.598,5.9003,6.3684
2026-07-21T15:57:10.516,18.6294,5.9199,6.4468
2026-07-21T15:57:10.516,18.6294,6.0569,6.4859
2026-07-21T15:57:10.531,18.6452,5.9786,6.5251
2026-07-21T15:57:10.547,18.6609,6.0373,6.4859
2026-07-21T15:57:10.547,18.6609,5.9786,6.4076
2026-07-21T15:57:10.563,18.6766,6.0178,6.4272
2026-07-21T15:57:10.563,18.6766,5.8219,6.3684
2026-07-21T15:57:10.579,18.6934,5.9394,6.4468
2026-07-21T15:57:10.589,18.709,5.8415,6.623
2026-07-21T15:57:10.595,18.709,5.9982,6.5838
2026-07-21T15:57:10.610,18.709,6.0961,6.3684
2026-07-21T15:57:10.627,18.7402,6.0373,6.6034
2026-07-21T15:57:10.627,18.7402,6.0569,6.5643
2026-07-21T15:57:10.643,18.7402,5.9982,6.5055
2026-07-21T15:57:10.643,18.772,5.9394,6.6034
2026-07-21T15:57:10.658,18.772,6.0373,6.388
2026-07-21T15:57:10.658,18.772,6.1352,6.388
2026-07-21T15:57:10.690,18.8037,5.8024,6.6622
2026-07-21T15:57:10.690,18.8037,5.9786,6.4664
2026-07-21T15:57:10.690,18.8037,5.9786,6.7013
2026-07-21T15:57:10.713,18.8356,6.0765,6.5643
2026-07-21T15:57:10.713,18.8356,5.9982,6.3489
2026-07-21T15:57:10.738,18.8512,5.9982,6.5447
2026-07-21T15:57:10.738,18.8512,6.0569,6.4272
2026-07-21T15:57:10.738,18.8512,5.9982,6.4272
2026-07-21T15:57:10.769,18.8832,5.8219,6.3293
2026-07-21T15:57:10.769,18.8832,5.959,6.5447
2026-07-21T15:57:10.769,18.8948,6.0569,6.4076
2026-07-21T15:57:10.801,18.9145,5.8807,6.5643
2026-07-21T15:57:10.801,18.9145,6.0765,6.4664
2026-07-21T15:57:10.801,18.9145,5.9982,6.6034
2026-07-21T15:57:10.832,18.9476,6.0569,6.6034
2026-07-21T15:57:10.832,18.9476,6.0178,6.4468
2026-07-21T15:57:10.832,18.9476,6.1548,6.4859
2026-07-21T15:57:10.848,18.9722,5.8219,6.388
2026-07-21T15:57:10.866,18.9782,5.9982,6.4076
2026-07-21T15:57:10.866,18.9782,6.0373,6.5838
2026-07-21T15:57:10.890,18.9947,5.9786,6.6034
2026-07-21T15:57:10.890,18.9947,6.0961,6.4272
2026-07-21T15:57:10.896,18.9947,5.9982,6.6034
2026-07-21T15:57:10.913,19.0264,6.1744,6.4076
2026-07-21T15:57:10.913,19.0264,6.0569,6.5447
2026-07-21T15:57:10.928,19.0579,6.0178,6.388
2026-07-21T15:57:10.944,19.0579,6.0373,6.4859
2026-07-21T15:57:10.944,19.0579,5.9786,6.2314
2026-07-21T15:57:10.960,19.0898,5.724,6.5447
2026-07-21T15:57:10.976,19.0898,5.9982,6.5447
2026-07-21T15:57:10.976,19.0898,5.8611,6.6817
2026-07-21T15:57:10.992,19.1055,5.9786,6.5838
2026-07-21T15:57:10.992,19.1055,5.9982,6.6817
2026-07-21T15:57:11.008,19.1055,6.0961,6.4859
2026-07-21T15:57:11.023,19.1375,5.9199,6.623
2026-07-21T15:57:11.023,19.1375,6.0178,6.5643
2026-07-21T15:57:11.039,19.1691,5.9003,6.4076
2026-07-21T15:57:11.056,19.1727,6.0373,6.4859
2026-07-21T15:57:11.056,19.1727,5.9003,6.3684
2026-07-21T15:57:11.072,19.2015,5.8807,6.7013
2026-07-21T15:57:11.087,19.2015,5.9982,6.7013
2026-07-21T15:57:11.087,19.2015,6.0765,6.5838
2026-07-21T15:57:11.103,19.2167,6.0178,6.4859
2026-07-21T15:57:11.113,19.2324,6.0569,6.6426
2026-07-21T15:57:11.119,19.2324,6.1548,6.4468
2026-07-21T15:57:11.135,19.2485,6.1157,6.4076
2026-07-21T15:57:11.135,19.2644,5.9394,6.4468
2026-07-21T15:57:11.150,19.2644,6.0373,6.5055
2026-07-21T15:57:11.150,19.2802,5.9003,6.5447
2026-07-21T15:57:11.166,19.2802,6.0178,6.5251
2026-07-21T15:57:11.166,19.2802,6.0373,6.5251
2026-07-21T15:57:11.191,19.3193,5.8415,6.6817
2026-07-21T15:57:11.198,19.3206,6.0765,6.4272
2026-07-21T15:57:11.213,19.3231,5.8611,6.5447
2026-07-21T15:57:11.214,19.3431,6.2527,6.5055
2026-07-21T15:57:11.234,19.3431,6.0178,6.5055
2026-07-21T15:57:11.241,19.3431,5.9982,6.5055
2026-07-21T15:57:11.246,19.3745,5.8024,6.6426
2026-07-21T15:57:11.261,19.3745,5.9786,6.5838
2026-07-21T15:57:11.261,19.3745,5.9394,6.6426
2026-07-21T15:57:11.291,19.406,6.0765,6.5838
2026-07-21T15:57:11.291,19.406,6.2136,6.388
2026-07-21T15:57:11.293,19.4218,6.0373,6.6034
2026-07-21T15:57:11.313,19.4218,5.9199,6.4468
2026-07-21T15:57:11.324,19.4218,5.959,6.4859
2026-07-21T15:57:11.340,19.4532,5.9003,6.4272
2026-07-21T15:57:11.340,19.4532,5.9394,6.5643
2026-07-21T15:57:11.340,19.4532,5.8807,6.4468
2026-07-21T15:57:11.371,19.4853,5.9394,6.6622
2026-07-21T15:57:11.371,19.4853,6.1744,6.623
2026-07-21T15:57:11.371,19.4853,5.9786,6.5838
2026-07-21T15:57:11.403,19.5171,6.0569,6.5055
2026-07-21T15:57:11.403,19.5171,5.9786,6.4076
2026-07-21T15:57:11.403,19.5171,5.9982,6.4468
2026-07-21T15:57:11.419,19.5387,5.8611,6.5643
2026-07-21T15:57:11.434,19.5387,6.1744,6.4076
2026-07-21T15:57:11.435,19.5493,5.8024,6.5251
2026-07-21T15:57:11.457,19.5741,5.9786,6.5838
2026-07-21T15:57:11.457,19.5741,6.0765,6.4859
2026-07-21T15:57:11.467,19.5741,6.0178,6.5643
2026-07-21T15:57:11.482,19.5968,6.0569,6.4272
2026-07-21T15:57:11.482,19.5968,5.959,6.6034
2026-07-21T15:57:11.500,19.6285,5.9199,6.5447
2026-07-21T15:57:11.515,19.6285,6.0373,6.4272
2026-07-21T15:57:11.515,19.6285,6.0373,6.3293
2026-07-21T15:57:11.530,19.6591,5.8611,6.6034
2026-07-21T15:57:11.547,19.6591,5.8611,6.5447
2026-07-21T15:57:11.547,19.6591,6.0178,6.6034
2026-07-21T15:57:11.562,19.6743,6.1744,6.5838
2026-07-21T15:57:11.562,19.69,6.1744,6.5055
2026-07-21T15:57:11.577,19.69,6.2919,6.388
2026-07-21T15:57:11.592,19.7057,5.9199,6.6817
2026-07-21T15:57:11.592,19.7057,6.0178,6.623
2026-07-21T15:57:11.608,19.7382,5.9003,6.5838
2026-07-21T15:57:11.624,19.7382,5.8219,6.5447
2026-07-21T15:57:11.624,19.7382,5.8611,6.5643
2026-07-21T15:57:11.640,19.7692,6.0178,6.5447
2026-07-21T15:57:11.656,19.7692,5.9394,6.6622
2026-07-21T15:57:11.656,19.7748,6.2331,6.4468
2026-07-21T15:57:11.671,19.7964,6.0178,6.5643
2026-07-21T15:57:11.671,19.7964,6.0961,6.6034
2026-07-21T15:57:11.687,19.8014,5.9786,6.4468
2026-07-21T15:57:11.714,19.8179,5.9982,6.5055
2026-07-21T15:57:11.714,19.8179,5.8807,6.4664
2026-07-21T15:57:11.719,19.8179,5.8219,6.5643
2026-07-21T15:57:11.736,19.8495,6.1548,6.5251
2026-07-21T15:57:11.736,19.8495,6.0961,6.7405
2026-07-21T15:57:11.752,19.8495,6.0178,6.388
2026-07-21T15:57:11.755,19.881,5.9786,6.6034
2026-07-21T15:57:11.767,19.881,5.9982,6.4859
2026-07-21T15:57:11.767,19.881,5.9786,6.7601
2026-07-21T15:57:11.799,19.9122,5.959,6.6034
2026-07-21T15:57:11.799,19.9122,6.1548,6.4468
2026-07-21T15:57:11.799,19.9122,6.0569,6.4076
2026-07-21T15:57:11.830,19.9443,5.8024,6.5643
2026-07-21T15:57:11.830,19.9443,6.0569,6.5251
2026-07-21T15:57:11.846,19.9603,6.0569,6.6426
2026-07-21T15:57:11.846,19.9603,6.0569,6.7405
2026-07-21T15:57:11.862,19.9762,6.2723,6.5055
2026-07-21T15:57:11.862,19.9964,6.0569,6.4076
2026-07-21T15:57:11.878,19.9964,6.0373,6.5055
2026-07-21T15:57:11.878,19.9964,6.0178,6.3684
2026-07-21T15:57:11.895,20.0241,5.724,6.6622
2026-07-21T15:57:11.914,20.0241,6.0373,6.5838
2026-07-21T15:57:11.914,20.0241,6.0569,6.5838
2026-07-21T15:57:11.926,20.0557,6.0961,6.6034
2026-07-21T15:57:11.942,20.0557,5.9786,6.5055
2026-07-21T15:57:11.942,20.0557,6.0961,6.5251
2026-07-21T15:57:11.974,20.0871,5.9982,6.4859
2026-07-21T15:57:11.974,20.0871,5.9982,6.5251
2026-07-21T15:57:11.974,20.0871,6.0373,6.388
2026-07-21T15:57:11.994,20.1187,5.7632,6.5838
2026-07-21T15:57:12.005,20.1187,6.1744,6.4272
2026-07-21T15:57:12.005,20.1187,6.0178,6.6034
2026-07-21T15:57:12.021,20.1344,6.0178,6.7796
2026-07-21T15:57:12.021,20.1344,6.0569,6.5447
2026-07-21T15:57:12.037,20.1509,6.1157,6.4272
2026-07-21T15:57:12.052,20.1757,5.9394,6.6034
2026-07-21T15:57:12.052,20.1757,6.0178,6.4468
2026-07-21T15:57:12.069,20.1823,5.959,6.4468
2026-07-21T15:57:12.085,20.1982,6.0765,6.5251
2026-07-21T15:57:12.085,20.1982,5.8611,6.5643
2026-07-21T15:57:12.100,20.1982,6.0765,6.4468
2026-07-21T15:57:12.101,20.2311,5.9786,6.5838
2026-07-21T15:57:12.116,20.2311,6.194,6.5055
2026-07-21T15:57:12.132,20.2622,5.9786,6.5251
2026-07-21T15:57:12.149,20.2622,6.0373,6.5251
2026-07-21T15:57:12.149,20.2622,6.1548,6.4272
2026-07-21T15:57:12.149,20.2779,5.959,6.5251
2026-07-21T15:57:12.164,20.2964,5.8611,6.4664
2026-07-21T15:57:12.180,20.2964,6.0373,6.4272
2026-07-21T15:57:12.180,20.2964,5.8611,6.4076
2026-07-21T15:57:12.196,20.3252,5.8611,6.4076
2026-07-21T15:57:12.214,20.3252,5.724,6.4859
2026-07-21T15:57:12.214,20.341,5.8611,6.2901
2026-07-21T15:57:12.228,20.3567,5.8219,6.251
2026-07-21T15:57:12.243,20.3567,6.0178,6.3489
2026-07-21T15:57:12.243,20.3774,5.8024,6.2118
2026-07-21T15:57:12.259,20.3806,5.8219,6.2901
2026-07-21T15:57:12.259,20.4048,5.7045,6.251
2026-07-21T15:57:12.275,20.4048,5.7436,6.5055
2026-07-21T15:57:12.293,20.4048,5.8219,6.4076
2026-07-21T15:57:12.299,20.4048,6.0569,6.4664
2026-07-21T15:57:12.314,20.4377,5.8219,6.4468
2026-07-21T15:57:12.323,20.4377,5.959,6.4272
2026-07-21T15:57:12.323,20.4377,5.9394,6.251
2026-07-21T15:57:12.338,20.4768,5.7045,6.4664
2026-07-21T15:57:12.356,20.4768,5.9199,6.388
2026-07-21T15:57:12.356,20.4833,5.8611,6.6426
2026-07-21T15:57:12.370,20.4833,5.7436,6.5643
2026-07-21T15:57:12.395,20.5147,5.8415,6.388
2026-07-21T15:57:12.395,20.5147,5.959,6.5251
2026-07-21T15:57:12.401,20.5147,5.7436,6.4076
2026-07-21T15:57:12.401,20.5462,6.0961,6.3684
2026-07-21T15:57:12.433,20.5621,5.8807,6.4076
2026-07-21T15:57:12.433,20.5621,6.0765,6.4664
2026-07-21T15:57:12.433,20.5621,5.8807,6.251
2026-07-21T15:57:12.464,20.5965,5.9199,6.5251
2026-07-21T15:57:12.464,20.5965,5.6261,6.3293
2026-07-21T15:57:12.464,20.5965,5.959,6.2705
2026-07-21T15:57:12.480,20.6101,5.8611,6.4468
2026-07-21T15:57:12.496,20.6416,6.1352,6.5447
2026-07-21T15:57:12.515,20.6416,6.0178,6.2901
2026-07-21T15:57:12.515,20.6416,6.2136,6.3489
2026-07-21T15:57:12.515,20.6574,6.0569,6.3489
2026-07-21T15:57:12.528,20.6574,5.959,6.3293
2026-07-21T15:57:12.544,20.7042,5.9394,6.2705
2026-07-21T15:57:12.560,20.7042,5.8611,6.388
2026-07-21T15:57:12.560,20.7042,5.8024,6.4664
2026-07-21T15:57:12.575,20.7042,5.9199,6.6817
2026-07-21T15:57:12.575,20.72,5.959,6.4076
2026-07-21T15:57:12.596,20.7515,5.9982,6.5055
2026-07-21T15:57:12.615,20.7515,5.9394,6.388
2026-07-21T15:57:12.615,20.7674,6.194,6.4272
2026-07-21T15:57:12.622,20.7684,5.9394,6.4468
2026-07-21T15:57:12.622,20.7779,5.7632,6.3293
2026-07-21T15:57:12.638,20.7835,5.9394,6.2314
2026-07-21T15:57:12.654,20.8159,5.7436,6.4664
2026-07-21T15:57:12.669,20.8159,5.9394,6.6426
2026-07-21T15:57:12.669,20.8159,5.9786,6.3489
2026-07-21T15:57:12.669,20.831,5.9394,6.3684
2026-07-21T15:57:12.686,20.831,5.7632,6.3684
2026-07-21T15:57:12.701,20.8483,5.959,6.4272
2026-07-21T15:57:12.701,20.8791,5.7436,6.3293
2026-07-21T15:57:12.734,20.8791,5.9982,6.251
2026-07-21T15:57:12.734,20.8791,5.7828,6.1335
2026-07-21T15:57:12.734,20.8948,5.587,6.3293
2026-07-21T15:57:12.749,20.8968,5.9786,6.2901
2026-07-21T15:57:12.765,20.8968,5.8415,6.4664
2026-07-21T15:57:12.766,20.9108,5.6653,6.3489
2026-07-21T15:57:12.781,20.9423,5.9003,6.3684
2026-07-21T15:57:12.797,20.9423,5.9003,6.1726
2026-07-21T15:57:12.797,20.9423,5.8611,6.4076
2026-07-21T15:57:12.815,20.9423,5.8415,6.3097
2026-07-21T15:57:12.815,20.9581,5.8611,6.3489
2026-07-21T15:57:12.829,20.9896,5.9199,6.4272
2026-07-21T15:57:12.829,20.9971,5.7828,6.5447
2026-07-21T15:57:12.845,20.9971,5.9394,6.3489
2026-07-21T15:57:12.860,21.0062,5.8219,6.5838
2026-07-21T15:57:12.860,21.0062,6.0178,6.4272
2026-07-21T15:57:12.876,21.0062,6.0765,6.5447
2026-07-21T15:57:12.892,21.0536,5.9199,6.5251
2026-07-21T15:57:12.908,21.0536,5.9199,6.5643
2026-07-21T15:57:12.908,21.0536,5.9982,6.5838
2026-07-21T15:57:12.924,21.0536,5.8807,6.5447
2026-07-21T15:57:12.924,21.0705,6.1157,6.623
2026-07-21T15:57:12.940,21.1015,6.0765,6.4468
2026-07-21T15:57:12.956,21.1015,6.0569,6.5643
2026-07-21T15:57:12.956,21.1015,6.1157,6.4272
2026-07-21T15:57:12.972,21.1015,6.0765,6.5643
2026-07-21T15:57:12.972,21.1172,5.9003,6.5251
2026-07-21T15:57:12.988,21.1172,5.959,6.4664
2026-07-21T15:57:13.019,21.1487,5.9982,6.3489
2026-07-21T15:57:13.019,21.1487,6.1744,6.4076
2026-07-21T15:57:13.019,21.1487,5.9786,6.4076
2026-07-21T15:57:13.019,21.1487,5.9982,6.623
2026-07-21T15:57:13.035,21.1812,6.0178,6.4664
2026-07-21T15:57:13.067,21.1974,6.0178,6.6817
2026-07-21T15:57:13.067,21.1974,6.0569,6.4664
2026-07-21T15:57:13.067,21.1974,6.0765,6.5838
2026-07-21T15:57:13.082,21.2109,6.0373,6.5643
2026-07-21T15:57:13.082,21.227,5.8415,6.4272
2026-07-21T15:57:13.099,21.2427,6.3506,6.3489
2026-07-21T15:57:13.115,21.2427,5.8807,6.6817
2026-07-21T15:57:13.115,21.2427,6.1157,6.5838
2026-07-21T15:57:13.130,21.2801,5.9394,6.4272
2026-07-21T15:57:13.145,21.2801,6.0569,6.5055
2026-07-21T15:57:13.145,21.2801,5.9003,6.4664
2026-07-21T15:57:13.161,21.2902,6.0569,6.5447
2026-07-21T15:57:13.161,21.2977,5.9003,6.5251
2026-07-21T15:57:13.193,21.3221,5.9394,6.388
2026-07-21T15:57:13.198,21.3221,6.0373,6.2705
2026-07-21T15:57:13.198,21.3221,5.9786,6.388
2026-07-21T15:57:13.208,21.3378,5.8219,6.4664
2026-07-21T15:57:13.240,21.3692,5.9199,6.5055
2026-07-21T15:57:13.240,21.3692,5.959,6.5251
2026-07-21T15:57:13.240,21.3692,5.9199,6.7405
2026-07-21T15:57:13.240,21.3692,6.0569,6.3684
2026-07-21T15:57:13.256,21.4011,6.2331,6.4664
2026-07-21T15:57:13.272,21.4011,5.9982,6.388
2026-07-21T15:57:13.272,21.4011,6.0178,6.623
2026-07-21T15:57:13.287,21.4168,5.9786,6.3684
2026-07-21T15:57:13.298,21.4168,5.8807,6.5251
2026-07-21T15:57:13.319,21.4499,5.9003,6.4272
2026-07-21T15:57:13.319,21.4499,5.9003,6.7992
2026-07-21T15:57:13.335,21.4499,6.0765,6.5055
2026-07-21T15:57:13.335,21.4499,5.9786,6.7209
2026-07-21T15:57:13.351,21.4807,6.0569,6.4859
2026-07-21T15:57:13.351,21.4807,6.1744,6.3489
2026-07-21T15:57:13.368,21.4807,5.9199,6.4468
2026-07-21T15:57:13.382,21.5124,5.8415,6.3684
2026-07-21T15:57:13.399,21.5124,5.9786,6.4076
2026-07-21T15:57:13.399,21.5124,5.8024,6.6622
2026-07-21T15:57:13.399,21.5442,6.0373,6.6622
2026-07-21T15:57:13.430,21.5442,5.9982,6.388
2026-07-21T15:57:13.430,21.5442,6.2331,6.5447
2026-07-21T15:57:13.430,21.5599,6.0961,6.388
2026-07-21T15:57:13.462,21.5813,5.959,6.5643
2026-07-21T15:57:13.462,21.5913,5.9003,6.4859
2026-07-21T15:57:13.462,21.5913,6.0178,6.388
2026-07-21T15:57:13.478,21.5984,5.9982,6.3293
2026-07-21T15:57:13.499,21.6232,5.8807,6.5838
2026-07-21T15:57:13.499,21.6232,5.9199,6.4272
2026-07-21T15:57:13.509,21.6232,5.9199,6.6426
2026-07-21T15:57:13.525,21.6547,6.0569,6.7405
2026-07-21T15:57:13.525,21.6547,6.0178,6.5838
2026-07-21T15:57:13.541,21.6704,6.0569,6.388
2026-07-21T15:57:13.541,21.6704,5.9394,6.4664
2026-07-21T15:57:13.557,21.7026,6.0178,6.4272
2026-07-21T15:57:13.573,21.7026,5.959,6.3684
2026-07-21T15:57:13.573,21.7026,5.9982,6.4859
2026-07-21T15:57:13.588,21.7026,5.8807,6.4468
2026-07-21T15:57:13.617,21.7344,6.0178,6.4664
2026-07-21T15:57:13.617,21.7344,5.8415,6.6817
2026-07-21T15:57:13.621,21.7344,6.0765,6.4272
2026-07-21T15:57:13.621,21.7501,5.9982,6.4664
2026-07-21T15:57:13.652,21.7659,6.0178,6.6622
2026-07-21T15:57:13.652,21.7821,6.1157,6.3489
2026-07-21T15:57:13.652,21.7821,6.0569,6.388
2026-07-21T15:57:13.668,21.7987,5.8611,6.5643
2026-07-21T15:57:13.684,21.8137,5.8807,6.623
2026-07-21T15:57:13.684,21.8137,6.0178,6.5838
2026-07-21T15:57:13.700,21.8137,6.0178,6.7013
2026-07-21T15:57:13.717,21.8463,6.0178,6.623
2026-07-21T15:57:13.717,21.8463,6.0178,6.5251
2026-07-21T15:57:13.732,21.8463,6.1157,6.4272
2026-07-21T15:57:13.732,21.8463,5.9982,6.5055
2026-07-21T15:57:13.764,21.8826,5.8611,6.5251
2026-07-21T15:57:13.764,21.8826,5.9786,6.5447
2026-07-21T15:57:13.764,21.8826,5.9199,6.4664
2026-07-21T15:57:13.796,21.909,5.8415,6.5447
2026-07-21T15:57:13.796,21.909,6.0569,6.4664
2026-07-21T15:57:13.801,21.909,5.9394,6.5643
2026-07-21T15:57:13.811,21.9247,6.0178,6.5055
2026-07-21T15:57:13.827,21.9405,6.0765,6.4076
2026-07-21T15:57:13.827,21.9405,5.9199,6.4664
2026-07-21T15:57:13.827,21.9562,5.8611,6.6034
2026-07-21T15:57:13.843,21.9879,5.9982,6.3489
2026-07-21T15:57:13.858,21.9879,5.8024,6.7796
2026-07-21T15:57:13.858,21.9879,5.9982,6.5447
2026-07-21T15:57:13.874,21.9879,6.0373,6.388
2026-07-21T15:57:13.901,22.0201,5.9003,6.5643
2026-07-21T15:57:13.901,22.0201,6.0178,6.4272
2026-07-21T15:57:13.906,22.0201,6.0178,6.4859
2026-07-21T15:57:13.922,22.053,6.0373,6.4859
2026-07-21T15:57:13.938,22.053,6.0178,6.4076
2026-07-21T15:57:13.938,22.053,6.0178,6.2705
2026-07-21T15:57:13.938,22.0842,5.7632,6.5643
2026-07-21T15:57:13.971,22.0842,5.9199,6.4272
2026-07-21T15:57:13.971,22.0842,5.9003,6.5643
2026-07-21T15:57:13.971,22.0842,6.0373,6.5838
2026-07-21T15:57:13.986,22.1163,5.9982,6.4468
2026-07-21T15:57:14.002,22.1163,6.0961,6.5251
2026-07-21T15:57:14.002,22.1163,5.9199,6.5055
2026-07-21T15:57:14.019,22.1478,5.9786,6.4272
2026-07-21T15:57:14.034,22.1478,6.1157,6.3684
2026-07-21T15:57:14.034,22.1478,5.9199,6.5643
2026-07-21T15:57:14.066,22.1834,5.9199,6.388
2026-07-21T15:57:14.066,22.1834,6.1157,6.5838
2026-07-21T15:57:14.066,22.1834,5.959,6.4859
2026-07-21T15:57:14.097,22.2192,6.1157,6.7013
2026-07-21T15:57:14.097,22.2192,6.0569,6.4076
2026-07-21T15:57:14.101,22.22,6.3115,6.5251
2026-07-21T15:57:14.101,22.22,5.9982,6.3489
2026-07-21T15:57:14.130,22.2436,6.0765,6.4468
2026-07-21T15:57:14.130,22.2436,5.9786,6.4076
2026-07-21T15:57:14.138,22.2584,5.9199,6.5447
2026-07-21T15:57:14.146,22.2838,6.0569,6.5251
2026-07-21T15:57:14.162,22.2838,6.0178,6.5447
2026-07-21T15:57:14.162,22.2899,6.0373,6.4468
2026-07-21T15:57:14.176,22.3183,6.0569,6.5055
2026-07-21T15:57:14.192,22.3201,6.0765,6.623
2026-07-21T15:57:14.192,22.3207,5.9982,6.5055
2026-07-21T15:57:14.209,22.3365,6.0178,6.4272
2026-07-21T15:57:14.233,22.3365,6.0765,6.3489
2026-07-21T15:57:14.235,22.3522,5.9786,6.4468
2026-07-21T15:57:14.243,22.3522,5.9786,6.5055
2026-07-21T15:57:14.254,22.3682,6.1157,6.5055
2026-07-21T15:57:14.254,22.3843,5.9786,6.623
2026-07-21T15:57:14.270,22.3843,6.0569,6.5643
2026-07-21T15:57:14.286,22.4154,6.0961,6.3684
2026-07-21T15:57:14.286,22.4154,5.8611,6.5055
2026-07-21T15:57:14.302,22.4154,5.9982,6.3293
2026-07-21T15:57:14.318,22.4469,5.959,6.4272
2026-07-21T15:57:14.318,22.4469,6.0765,6.4272
2026-07-21T15:57:14.318,22.4469,5.8807,6.6034
2026-07-21T15:57:14.349,22.4786,6.1157,6.388
2026-07-21T15:57:14.349,22.4786,5.9003,6.7013
2026-07-21T15:57:14.349,22.4786,6.0961,6.4468
2026-07-21T15:57:14.365,22.4996,5.9982,6.5251
2026-07-21T15:57:14.381,22.5107,6.0178,6.5643
2026-07-21T15:57:14.381,22.5107,6.2331,6.4859
2026-07-21T15:57:14.403,22.5107,5.9982,6.388
2026-07-21T15:57:14.418,22.5264,5.8807,6.3489
2026-07-21T15:57:14.418,22.5264,6.0765,6.4468
2026-07-21T15:57:14.429,22.5425,5.8219,6.5838
2026-07-21T15:57:14.429,22.5586,6.0569,6.5447
2026-07-21T15:57:14.444,22.5744,6.0178,6.4272
2026-07-21T15:57:14.460,22.5744,6.0569,6.5251
2026-07-21T15:57:14.477,22.5997,6.0178,6.4468
2026-07-21T15:57:14.477,22.6058,5.9982,6.5055
2026-07-21T15:57:14.492,22.6058,5.9003,6.4664
2026-07-21T15:57:14.508,22.6218,6.2527,6.388
2026-07-21T15:57:14.518,22.6377,5.9003,6.4664
2026-07-21T15:57:14.524,22.6377,5.8219,6.4076
2026-07-21T15:57:14.540,22.6534,6.0178,6.623
2026-07-21T15:57:14.540,22.6534,5.9786,6.6426
2026-07-21T15:57:14.540,22.6691,6.0569,6.5447
2026-07-21T15:57:14.556,22.6691,6.0765,6.4272
2026-07-21T15:57:14.571,22.6999,6.0765,6.4272
2026-07-21T15:57:14.571,22.7009,5.8415,6.4468
2026-07-21T15:57:14.587,22.7009,6.0961,6.3293
2026-07-21T15:57:14.603,22.7166,5.9199,6.5251
2026-07-21T15:57:14.603,22.7166,5.9003,6.6034
2026-07-21T15:57:14.619,22.7327,5.9394,6.388
2026-07-21T15:57:14.635,22.7496,6.0373,6.5838
2026-07-21T15:57:14.635,22.7496,6.194,6.4468
2026-07-21T15:57:14.651,22.7496,6.0765,6.4272
2026-07-21T15:57:14.668,22.786,5.9394,6.4859
2026-07-21T15:57:14.668,22.786,6.1744,6.5055
2026-07-21T15:57:14.683,22.8126,6.0178,6.4272
2026-07-21T15:57:14.698,22.8126,6.0178,6.5055
2026-07-21T15:57:14.698,22.8126,5.9003,6.4272
2026-07-21T15:57:14.704,22.8284,5.9003,6.5838
2026-07-21T15:57:14.718,22.8444,6.1157,6.623
2026-07-21T15:57:14.731,22.8444,5.9982,6.388
2026-07-21T15:57:14.731,22.8601,6.0765,6.4468
2026-07-21T15:57:14.749,22.8864,5.8807,6.5251
2026-07-21T15:57:14.762,22.8864,6.2331,6.388
2026-07-21T15:57:14.762,22.8919,5.8415,6.4859
2026-07-21T15:57:14.778,22.9086,6.0765,6.4272
2026-07-21T15:57:14.795,22.9236,5.7632,6.4076
2026-07-21T15:57:14.795,22.9236,6.0373,6.8188
2026-07-21T15:57:14.810,22.9236,6.0178,6.6622
2026-07-21T15:57:14.826,22.9551,6.0373,6.6426
2026-07-21T15:57:14.827,22.9551,6.0178,6.4664
2026-07-21T15:57:14.842,22.9551,6.0569,6.5055
2026-07-21T15:57:14.857,22.987,6.0373,6.388
2026-07-21T15:57:14.873,22.987,6.0569,6.5055
2026-07-21T15:57:14.873,22.987,5.9786,6.3684
2026-07-21T15:57:14.873,23.0026,6.0569,6.5838
2026-07-21T15:57:14.905,23.0183,5.8611,6.7992
2026-07-21T15:57:14.905,23.0183,6.194,6.4664
2026-07-21T15:57:14.905,23.0341,6.2136,6.4664
2026-07-21T15:57:14.921,23.0341,5.9394,6.623
2026-07-21T15:57:14.936,23.0666,6.1157,6.4468
2026-07-21T15:57:14.936,23.0666,5.9003,6.6034
2026-07-21T15:57:14.952,23.0666,6.0178,6.4664
2026-07-21T15:57:14.968,23.1005,6.1352,6.4272
2026-07-21T15:57:14.968,23.1005,5.7436,6.6034
2026-07-21T15:57:14.985,23.1005,6.0961,6.4076
2026-07-21T15:57:14.985,23.113,5.8807,6.5643
2026-07-21T15:57:15.018,23.1298,6.1744,6.5643
2026-07-21T15:57:15.018,23.1298,6.0373,6.5447
2026-07-21T15:57:15.018,23.1298,6.0961,6.3684
2026-07-21T15:57:15.031,23.1448,5.9982,6.623
2026-07-21T15:57:15.048,23.1763,6.1744,6.388
2026-07-21T15:57:15.048,23.1763,5.8611,6.388
2026-07-21T15:57:15.063,23.1763,6.0569,6.5447
2026-07-21T15:57:15.079,23.2077,5.959,6.4272
2026-07-21T15:57:15.079,23.2077,5.9786,6.4859
2026-07-21T15:57:15.094,23.2077,6.1157,6.5447
2026-07-21T15:57:15.106,23.2234,6.0373,6.4468
2026-07-21T15:57:15.110,23.2401,5.9982,6.4664
2026-07-21T15:57:15.126,23.2557,6.2919,6.5055
2026-07-21T15:57:15.126,23.2557,5.959,6.3097
2026-07-21T15:57:15.141,23.2557,6.0569,6.4272
2026-07-21T15:57:15.158,23.2884,6.0961,6.3097
2026-07-21T15:57:15.158,23.2884,6.0569,6.5055
2026-07-21T15:57:15.158,23.3009,5.8024,6.6622
2026-07-21T15:57:15.174,23.3035,6.0373,6.623
2026-07-21T15:57:15.205,23.3203,5.9786,6.3684
2026-07-21T15:57:15.205,23.3348,5.959,6.5447
2026-07-21T15:57:15.206,23.3348,6.0178,6.3684
2026-07-21T15:57:15.221,23.3666,5.9786,6.5251
2026-07-21T15:57:15.238,23.3666,5.9394,6.3489
2026-07-21T15:57:15.238,23.3666,5.9003,6.4859
2026-07-21T15:57:15.253,23.3666,6.0373,6.4076
2026-07-21T15:57:15.253,23.4012,5.7828,6.5251
2026-07-21T15:57:15.285,23.4012,5.959,6.4076
2026-07-21T15:57:15.285,23.4142,5.8611,6.6034
2026-07-21T15:57:15.285,23.4142,5.959,6.5055
2026-07-21T15:57:15.300,23.446,6.0961,6.3097
2026-07-21T15:57:15.319,23.446,5.959,6.5643
2026-07-21T15:57:15.319,23.446,5.9003,6.3684
2026-07-21T15:57:15.332,23.446,5.9786,6.4076
2026-07-21T15:57:15.364,23.4788,6.0765,6.4076
2026-07-21T15:57:15.364,23.489,5.8611,6.6034
2026-07-21T15:57:15.364,23.489,5.8807,6.388
2026-07-21T15:57:15.364,23.4936,5.9786,6.6426
2026-07-21T15:57:15.380,23.525,5.9003,6.4859
2026-07-21T15:57:15.397,23.525,5.9982,6.6622
2026-07-21T15:57:15.397,23.525,5.9394,6.4859
2026-07-21T15:57:15.412,23.525,5.9982,6.4859
2026-07-21T15:57:15.427,23.5567,5.9786,6.3097
2026-07-21T15:57:15.427,23.5567,5.8611,6.4076
2026-07-21T15:57:15.443,23.5567,5.9199,6.4076
2026-07-21T15:57:15.443,23.5725,5.8024,6.6817
2026-07-21T15:57:15.459,23.5891,5.959,6.5447
2026-07-21T15:57:15.475,23.6011,6.0178,6.5643
2026-07-21T15:57:15.475,23.6047,6.0765,6.4468
2026-07-21T15:57:15.490,23.6047,5.9786,6.4468
2026-07-21T15:57:15.507,23.6363,6.0569,6.4664
2026-07-21T15:57:15.507,23.6363,5.9982,6.4859
2026-07-21T15:57:15.523,23.6363,6.0373,6.5055
2026-07-21T15:57:15.538,23.6677,6.1744,6.3097
2026-07-21T15:57:15.544,23.6677,5.7632,6.7601
2026-07-21T15:57:15.554,23.6677,5.7632,6.4076
2026-07-21T15:57:15.554,23.7013,5.9982,6.5838
2026-07-21T15:57:15.570,23.7013,5.9394,6.4468
2026-07-21T15:57:15.570,23.7013,5.9982,6.5251
2026-07-21T15:57:15.586,23.7013,6.2136,6.3684
2026-07-21T15:57:15.608,23.7306,5.9003,6.5251
2026-07-21T15:57:15.617,23.7306,5.9199,6.3684
2026-07-21T15:57:15.619,23.7306,5.7045,6.1922
2026-07-21T15:57:15.633,23.7622,5.6457,6.2314
2026-07-21T15:57:15.649,23.7622,5.587,6.1922
2026-07-21T15:57:15.649,23.7622,5.7828,6.1726
2026-07-21T15:57:15.649,23.7622,5.7828,6.4664
2026-07-21T15:57:15.664,23.8012,6.2331,6.4076
2026-07-21T15:57:15.680,23.8012,5.959,6.4272
2026-07-21T15:57:15.680,23.8098,5.8611,6.1922
2026-07-21T15:57:15.712,23.8255,5.7436,5.8593
2026-07-21T15:57:15.712,23.8255,5.4891,5.8985
2026-07-21T15:57:15.719,23.8412,5.4891,5.9377
2026-07-21T15:57:15.728,23.8569,5.8415,6.3097
2026-07-21T15:57:15.743,23.8705,5.9003,6.5251
2026-07-21T15:57:15.743,23.8705,5.959,6.4664
2026-07-21T15:57:15.759,23.8731,5.8219,6.1531
2026-07-21T15:57:15.775,23.9013,5.3324,5.8985
2026-07-21T15:57:15.775,23.9013,5.4303,5.781
2026-07-21T15:57:15.791,23.9053,5.3128,5.9377
2026-07-21T15:57:15.807,23.9214,5.5087,6.0747
2026-07-21T15:57:15.808,23.9214,5.7045,5.9573
2026-07-21T15:57:15.823,23.9214,5.4499,6.1922
2026-07-21T15:57:15.839,23.9533,5.352,6.251
2026-07-21T15:57:15.839,23.9533,5.3324,5.7027
2026-07-21T15:57:15.839,23.9533,5.2737,5.9573
2026-07-21T15:57:15.857,23.9904,5.3324,5.9964
2026-07-21T15:57:15.871,23.9904,5.4108,5.9768
2026-07-21T15:57:15.871,24.0014,5.5087,5.9377
2026-07-21T15:57:15.908,24.0168,5.3324,5.9181
2026-07-21T15:57:15.908,24.0168,5.4891,5.8398
2026-07-21T15:57:15.908,24.0325,5.2737,5.8593
2026-07-21T15:57:15.919,24.0482,5.3716,5.9377
2026-07-21T15:57:15.935,24.064,5.3912,5.7027
2026-07-21T15:57:15.935,24.064,5.2737,5.9573
2026-07-21T15:57:15.950,24.064,5.4695,5.8789
2026-07-21T15:57:15.950,24.0964,5.4108,6.0943
2026-07-21T15:57:15.966,24.1014,5.3716,6.0552
2026-07-21T15:57:15.982,24.1014,5.4499,5.8006
2026-07-21T15:57:15.998,24.1273,5.3324,5.6831
2026-07-21T15:57:16.014,24.1273,5.2149,5.9768
2026-07-21T15:57:16.014,24.1273,5.4499,5.9573
2026-07-21T15:57:16.019,24.1273,5.2933,6.1922
2026-07-21T15:57:16.030,24.1596,5.4499,6.0356
2026-07-21T15:57:16.045,24.1596,5.3912,5.7419
2026-07-21T15:57:16.045,24.1596,5.3912,5.8006
2026-07-21T15:57:16.061,24.191,5.2345,5.8202
2026-07-21T15:57:16.078,24.191,5.3716,5.9573
2026-07-21T15:57:16.078,24.2015,5.3716,5.8202
2026-07-21T15:57:16.093,24.2065,5.4303,5.9181
2026-07-21T15:57:16.109,24.2222,5.4303,5.8202
2026-07-21T15:57:16.109,24.2222,5.1758,5.9573
2026-07-21T15:57:16.119,24.2382,5.3128,5.7223
2026-07-21T15:57:16.125,24.2539,5.3324,5.9181
2026-07-21T15:57:16.140,24.2539,5.3716,5.8789
2026-07-21T15:57:16.156,24.2707,5.4108,5.9181
2026-07-21T15:57:16.156,24.2913,5.5282,6.0747
2026-07-21T15:57:16.172,24.2913,5.3128,6.016
2026-07-21T15:57:16.172,24.2913,5.4891,5.8398
2026-07-21T15:57:16.189,24.3195,5.2933,5.8985
2026-07-21T15:57:16.209,24.3195,5.2737,5.9181
2026-07-21T15:57:16.209,24.3195,5.2737,5.7614
2026-07-21T15:57:16.238,24.3494,5.3912,5.9573
2026-07-21T15:57:16.238,24.3494,5.352,5.8398
2026-07-21T15:57:16.238,24.3494,5.4891,5.9377
2026-07-21T15:57:16.251,24.3809,5.3912,5.9964
2026-07-21T15:57:16.267,24.3809,5.3716,5.8398
2026-07-21T15:57:16.267,24.3919,5.4303,5.8789
2026-07-21T15:57:16.282,24.4117,5.3324,5.8202
2026-07-21T15:57:16.299,24.4117,5.352,5.781
2026-07-21T15:57:16.299,24.4117,5.3912,5.9573
2026-07-21T15:57:16.314,24.4274,5.2933,5.9181
2026-07-21T15:57:16.330,24.4431,5.4695,5.9377
2026-07-21T15:57:16.330,24.4431,5.7632,5.8398
2026-07-21T15:57:16.345,24.4598,5.2933,5.8398
2026-07-21T15:57:16.361,24.4746,5.3716,5.8202
2026-07-21T15:57:16.361,24.4746,5.352,5.9181
2026-07-21T15:57:16.361,24.4746,5.4891,5.8398
2026-07-21T15:57:16.384,24.5064,5.4108,5.781
2026-07-21T15:57:16.393,24.5064,5.2149,5.8985
2026-07-21T15:57:16.393,24.5222,5.1954,5.9573
2026-07-21T15:57:16.410,24.539,5.4695,5.9181
2026-07-21T15:57:16.424,24.539,5.5087,5.9964
2026-07-21T15:57:16.424,24.539,5.5282,6.1726
2026-07-21T15:57:16.440,24.5696,5.4499,5.8593
2026-07-21T15:57:16.457,24.5696,5.4108,5.9377
2026-07-21T15:57:16.457,24.5696,5.3128,5.8202
2026-07-21T15:57:16.472,24.5853,5.4108,5.781
2026-07-21T15:57:16.488,24.602,5.1954,5.9377
2026-07-21T15:57:16.488,24.602,5.3912,6.1922
2026-07-21T15:57:16.503,24.6176,5.4108,5.8593
2026-07-21T15:57:16.520,24.6333,5.4499,6.0552
2026-07-21T15:57:16.520,24.6493,5.5282,5.9377
2026-07-21T15:57:16.536,24.6493,5.5087,5.9573
2026-07-21T15:57:16.551,24.681,5.4108,5.8985
2026-07-21T15:57:16.551,24.681,5.4108,5.9377
2026-07-21T15:57:16.551,24.681,5.724,5.6244
2026-07-21T15:57:16.567,24.681,5.3324,5.9181
2026-07-21T15:57:16.583,24.7129,5.1954,5.9181
2026-07-21T15:57:16.583,24.7129,5.3912,6.0552
2026-07-21T15:57:16.599,24.7129,5.6066,5.9768
2026-07-21T15:57:16.631,24.7443,5.3716,5.8985
2026-07-21T15:57:16.631,24.7443,5.5282,5.781
2026-07-21T15:57:16.631,24.7443,5.3128,5.9181
2026-07-21T15:57:16.631,24.7443,5.6066,5.8398
2026-07-21T15:57:16.662,24.7764,5.4303,5.8398
2026-07-21T15:57:16.662,24.7764,5.352,5.8593
2026-07-21T15:57:16.662,24.7764,5.3128,5.9573
2026-07-21T15:57:16.694,24.8092,5.6849,5.9181
2026-07-21T15:57:16.694,24.8092,5.3912,6.016
2026-07-21T15:57:16.694,24.8092,5.4499,5.8789
2026-07-21T15:57:16.711,24.84,5.6261,6.016
2026-07-21T15:57:16.727,24.84,5.5282,5.9964
2026-07-21T15:57:16.727,24.84,5.6261,5.8789
2026-07-21T15:57:16.742,24.8714,5.4499,5.8985
2026-07-21T15:57:16.758,24.8714,5.3716,5.8006
2026-07-21T15:57:16.758,24.8714,5.2737,5.9377
2026-07-21T15:57:16.774,24.8714,5.2933,5.9964
2026-07-21T15:57:16.789,24.9026,5.4891,5.8593
2026-07-21T15:57:16.789,24.9026,5.4108,5.8398
2026-07-21T15:57:16.805,24.9183,5.5674,5.9768
2026-07-21T15:57:16.821,24.9361,5.4108,5.8985
2026-07-21T15:57:16.821,24.9361,5.5087,5.9573
2026-07-21T15:57:16.821,24.9361,5.3324,5.8985
2026-07-21T15:57:16.852,24.9668,5.4303,5.7614
2026-07-21T15:57:16.854,24.9668,5.3324,5.8789
2026-07-21T15:57:16.854,24.9668,5.3716,6.0943
2026-07-21T15:57:16.868,25.0025,5.3324,6.0943
2026-07-21T15:57:16.885,25.0025,5.4499,6.0747
2026-07-21T15:57:16.885,25.0025,5.5282,5.9181
2026-07-21T15:57:16.900,25.0293,5.724,5.9377
2026-07-21T15:57:16.915,25.0293,5.5478,5.9377
2026-07-21T15:57:16.921,25.0293,5.352,5.8789
2026-07-21T15:57:16.947,25.0608,5.4695,5.7419
2026-07-21T15:57:16.947,25.0608,5.2933,5.9377
2026-07-21T15:57:16.947,25.0608,5.3128,6.1531
2026-07-21T15:57:16.979,25.0937,5.3716,5.9377
2026-07-21T15:57:16.979,25.0937,5.5282,5.9768
2026-07-21T15:57:16.979,25.1029,5.4499,5.9377
2026-07-21T15:57:16.995,25.1248,5.4891,6.0747
2026-07-21T15:57:16.995,25.1248,5.352,5.9964
2026-07-21T15:57:17.012,25.1248,5.6261,5.9573
2026-07-21T15:57:17.021,25.1248,5.3912,5.6635
2026-07-21T15:57:17.042,25.1556,5.5087,5.9964
2026-07-21T15:57:17.043,25.1556,5.4695,5.8985
2026-07-21T15:57:17.043,25.1882,5.352,6.016
2026-07-21T15:57:17.074,25.1882,5.3912,5.9964
2026-07-21T15:57:17.074,25.1882,5.4695,6.0552
2026-07-21T15:57:17.074,25.1942,5.4891,5.9181
