wall_time,elapsed_s,F1_N,F2_N
2026-07-21T16:50:40.021,17.5859,12.2364,7.9322
2026-07-21T16:50:40.021,17.5859,12.1972,7.9517
2026-07-21T16:50:40.037,17.6173,12.2952,7.8734
2026-07-21T16:50:40.053,17.6173,12.2364,8.0105
2026-07-21T16:50:40.053,17.6173,12.1777,7.8734
2026-07-21T16:50:40.068,17.6331,12.3735,7.893
2026-07-21T16:50:40.100,17.6558,12.2952,7.9517
2026-07-21T16:50:40.100,17.6649,12.2168,7.9517
2026-07-21T16:50:40.100,17.6649,12.3147,7.9322
2026-07-21T16:50:40.115,17.6649,12.3343,8.0105
2026-07-21T16:50:40.138,17.706,12.256,7.9126
2026-07-21T16:50:40.138,17.706,12.2952,7.893
2026-07-21T16:50:40.138,17.706,12.3343,7.9713
2026-07-21T16:50:40.147,17.7156,12.2168,8.0301
2026-07-21T16:50:40.179,17.7437,12.3539,7.9322
2026-07-21T16:50:40.179,17.7437,12.3931,7.9909
2026-07-21T16:50:40.179,17.7437,12.256,7.9909
2026-07-21T16:50:40.188,17.7604,12.2756,7.9517
2026-07-21T16:50:40.198,17.7604,12.3931,7.9126
2026-07-21T16:50:40.226,17.7916,12.2952,8.0105
2026-07-21T16:50:40.226,17.7916,12.256,7.893
2026-07-21T16:50:40.226,17.7916,12.3931,7.9126
2026-07-21T16:50:40.243,17.7916,12.2168,7.8538
2026-07-21T16:50:40.258,17.8306,12.2168,7.8734
2026-07-21T16:50:40.258,17.8306,12.2952,7.8343
2026-07-21T16:50:40.274,17.8391,12.2756,7.8734
2026-07-21T16:50:40.274,17.8391,12.2168,7.9126
2026-07-21T16:50:40.298,17.8706,12.3343,7.893
2026-07-21T16:50:40.306,17.8706,12.3343,7.893
2026-07-21T16:50:40.313,17.8706,12.1777,7.9126
2026-07-21T16:50:40.322,17.8863,12.2756,7.8538
2026-07-21T16:50:40.322,17.8863,12.2952,7.8538
2026-07-21T16:50:40.353,17.9179,12.1972,7.9517
2026-07-21T16:50:40.353,17.9179,12.4126,7.893
2026-07-21T16:50:40.353,17.9336,12.256,7.893
2026-07-21T16:50:40.369,17.9346,12.2168,7.8734
2026-07-21T16:50:40.389,17.9653,12.2756,7.8343
2026-07-21T16:50:40.389,17.9653,12.256,7.893
2026-07-21T16:50:40.400,17.9653,12.1972,7.8343
2026-07-21T16:50:40.400,17.9653,12.2952,7.9126
2026-07-21T16:50:40.417,17.9653,12.2952,7.9517
2026-07-21T16:50:40.432,18.007,12.3147,7.9126
2026-07-21T16:50:40.432,18.007,12.3735,7.893
2026-07-21T16:50:40.448,18.014,12.4126,7.9517
2026-07-21T16:50:40.464,18.016,12.3343,7.9126
2026-07-21T16:50:40.479,18.0448,12.4126,7.9713
2026-07-21T16:50:40.479,18.0448,12.3931,7.9322
2026-07-21T16:50:40.496,18.0448,12.3343,7.8734
2026-07-21T16:50:40.498,18.0448,12.2168,7.7951
2026-07-21T16:50:40.511,18.0765,12.3735,7.893
2026-07-21T16:50:40.511,18.0765,12.2952,7.8734
2026-07-21T16:50:40.527,18.0924,12.2756,7.8734
2026-07-21T16:50:40.543,18.1242,12.3931,7.9517
2026-07-21T16:50:40.543,18.1242,12.3931,7.9322
2026-07-21T16:50:40.559,18.1298,12.2168,7.9126
2026-07-21T16:50:40.575,18.1298,12.3735,7.893
2026-07-21T16:50:40.575,18.1404,12.3147,7.9322
2026-07-21T16:50:40.607,18.1727,12.256,7.8538
2026-07-21T16:50:40.607,18.1727,12.3539,7.893
2026-07-21T16:50:40.612,18.1727,12.3539,7.9517
2026-07-21T16:50:40.623,18.1727,12.2364,7.9517
2026-07-21T16:50:40.638,18.2075,12.4518,7.893
2026-07-21T16:50:40.638,18.2122,12.2364,8.0105
2026-07-21T16:50:40.655,18.2164,12.2364,7.9322
2026-07-21T16:50:40.655,18.2198,12.3539,7.893
2026-07-21T16:50:40.671,18.2518,12.2952,7.9713
2026-07-21T16:50:40.686,18.2518,12.2364,7.9517
2026-07-21T16:50:40.690,18.2518,12.2364,7.9517
2026-07-21T16:50:40.702,18.2677,12.2952,7.9126
2026-07-21T16:50:40.718,18.2992,12.3147,7.893
2026-07-21T16:50:40.718,18.2992,12.2364,7.8734
2026-07-21T16:50:40.734,18.3079,12.3735,7.8538
2026-07-21T16:50:40.734,18.3149,12.1972,7.8538
2026-07-21T16:50:40.750,18.3165,12.1972,7.8147
2026-07-21T16:50:40.766,18.3467,12.2168,7.8343
2026-07-21T16:50:40.766,18.3467,12.0993,7.893
2026-07-21T16:50:40.782,18.3467,12.0602,7.893
2026-07-21T16:50:40.790,18.3467,12.256,7.8147
2026-07-21T16:50:40.799,18.3626,12.1972,7.8734
2026-07-21T16:50:40.813,18.3782,12.1777,7.8343
2026-07-21T16:50:40.813,18.3782,12.2756,7.8734
2026-07-21T16:50:40.829,18.3941,12.1972,7.8734
2026-07-21T16:50:40.845,18.3941,12.0993,7.8734
2026-07-21T16:50:40.861,18.4258,12.1972,7.8147
2026-07-21T16:50:40.861,18.4258,12.1385,7.8734
2026-07-21T16:50:40.861,18.4258,12.1777,7.9126
2026-07-21T16:50:40.877,18.4416,12.256,7.8343
2026-07-21T16:50:40.893,18.4588,12.2756,7.9126
2026-07-21T16:50:40.899,18.4588,12.2364,7.9322
2026-07-21T16:50:40.908,18.4738,12.3343,7.9322
2026-07-21T16:50:40.924,18.4738,12.2952,7.8734
2026-07-21T16:50:40.941,18.4897,12.1777,7.9322
2026-07-21T16:50:40.941,18.4897,12.1972,7.893
2026-07-21T16:50:40.956,18.509,12.3343,7.9126
2026-07-21T16:50:40.956,18.509,12.2364,7.9322
2026-07-21T16:50:40.972,18.5389,12.2364,7.9322
2026-07-21T16:50:40.972,18.54,12.3735,7.8538
2026-07-21T16:50:40.991,18.5441,12.2168,7.893
2026-07-21T16:50:41.008,18.569,12.1777,7.8147
2026-07-21T16:50:41.008,18.569,12.3343,7.8538
2026-07-21T16:50:41.027,18.569,12.256,7.8538
2026-07-21T16:50:41.027,18.5848,12.1581,7.8147
2026-07-21T16:50:41.051,18.6092,12.2364,7.7559
2026-07-21T16:50:41.051,18.6092,12.2364,7.893
2026-07-21T16:50:41.067,18.6168,12.1581,7.8147
2026-07-21T16:50:41.083,18.6327,12.3343,7.7559
2026-07-21T16:50:41.083,18.6327,12.1972,7.8343
2026-07-21T16:50:41.092,18.6485,12.256,7.7755
2026-07-21T16:50:41.115,18.6646,12.1972,7.7364
2026-07-21T16:50:41.115,18.6646,12.1972,7.7559
2026-07-21T16:50:41.115,18.6646,12.0798,7.7364
2026-07-21T16:50:41.131,18.6806,12.1385,7.7559
2026-07-21T16:50:41.147,18.7125,12.1581,7.7951
2026-07-21T16:50:41.147,18.7125,12.1581,7.7364
2026-07-21T16:50:41.163,18.7172,12.1581,7.7364
2026-07-21T16:50:41.179,18.7443,12.1777,7.7559
2026-07-21T16:50:41.192,18.7443,12.1189,7.7559
2026-07-21T16:50:41.195,18.7443,12.0602,7.6972
2026-07-21T16:50:41.200,18.76,12.1189,7.6776
2026-07-21T16:50:41.211,18.7759,12.021,7.6776
2026-07-21T16:50:41.211,18.7759,11.9231,7.7364
2026-07-21T16:50:41.242,18.7957,12.1777,7.7755
2026-07-21T16:50:41.242,18.7957,12.021,7.7168
2026-07-21T16:50:41.242,18.8234,11.9623,7.6972
2026-07-21T16:50:41.258,18.8234,12.0602,7.6972
2026-07-21T16:50:41.274,18.8331,12.021,7.7559
2026-07-21T16:50:41.300,18.855,12.0406,7.6972
2026-07-21T16:50:41.300,18.855,12.1581,7.7364
2026-07-21T16:50:41.300,18.855,12.0602,7.7364
2026-07-21T16:50:41.317,18.8707,12.0014,7.6776
2026-07-21T16:50:41.337,18.8864,12.021,7.658
2026-07-21T16:50:41.337,18.9021,11.9819,7.7755
2026-07-21T16:50:41.337,18.9031,11.9231,7.7168
2026-07-21T16:50:41.353,18.9101,12.0993,7.6972
2026-07-21T16:50:41.369,18.9342,12.0014,7.6776
2026-07-21T16:50:41.369,18.9342,11.9427,7.5797
2026-07-21T16:50:41.386,18.9489,11.9035,7.5406
2026-07-21T16:50:41.393,18.9489,11.9035,7.5797
2026-07-21T16:50:41.400,18.9812,11.884,7.6385
2026-07-21T16:50:41.417,18.9812,11.9819,7.5797
2026-07-21T16:50:41.417,18.9812,12.0406,7.6776
2026-07-21T16:50:41.431,18.9964,12.0014,7.658
2026-07-21T16:50:41.447,19.0176,12.021,7.6776
2026-07-21T16:50:41.460,19.0282,12.0406,7.658
2026-07-21T16:50:41.464,19.0282,12.0014,7.6776
2026-07-21T16:50:41.464,19.0282,11.9623,7.7364
2026-07-21T16:50:41.479,19.0439,12.0993,7.7559
2026-07-21T16:50:41.500,19.0595,11.9819,7.7559
2026-07-21T16:50:41.500,19.0595,11.9035,7.6972
2026-07-21T16:50:41.511,19.0753,12.0993,7.7168
2026-07-21T16:50:41.511,19.0753,12.0602,7.7559
2026-07-21T16:50:41.542,19.1109,12.0014,7.7168
2026-07-21T16:50:41.542,19.1109,12.1385,7.5797
2026-07-21T16:50:41.542,19.1179,12.0014,7.7364
2026-07-21T16:50:41.558,19.123,11.9623,7.6776
2026-07-21T16:50:41.574,19.139,12.1189,7.7755
2026-07-21T16:50:41.574,19.139,12.0014,7.8343
2026-07-21T16:50:41.593,19.1551,12.021,7.7559
2026-07-21T16:50:41.605,19.1551,12.0602,7.8147
2026-07-21T16:50:41.605,19.1876,12.0798,7.8343
2026-07-21T16:50:41.621,19.1876,11.9819,7.8147
2026-07-21T16:50:41.621,19.1876,12.0798,7.8147
2026-07-21T16:50:41.638,19.2032,12.0406,7.8538
2026-07-21T16:50:41.653,19.234,11.9623,7.7951
2026-07-21T16:50:41.670,19.234,12.0014,7.8147
2026-07-21T16:50:41.670,19.234,12.0798,7.8538
2026-07-21T16:50:41.670,19.234,11.9623,7.8343
2026-07-21T16:50:41.701,19.2655,11.9819,7.7951
2026-07-21T16:50:41.701,19.2815,12.021,7.7364
2026-07-21T16:50:41.716,19.2815,11.9231,7.7951
2026-07-21T16:50:41.716,19.2815,11.884,7.7559
2026-07-21T16:50:41.732,19.3184,12.2364,7.7559
2026-07-21T16:50:41.748,19.3184,11.9819,7.8147
2026-07-21T16:50:41.748,19.3184,12.0014,7.7755
2026-07-21T16:50:41.764,19.3291,12.0602,7.7559
2026-07-21T16:50:41.764,19.3291,12.0406,7.7951
2026-07-21T16:50:41.780,19.361,11.9035,7.7559
2026-07-21T16:50:41.796,19.361,12.1385,7.7951
2026-07-21T16:50:41.801,19.361,12.021,7.8343
2026-07-21T16:50:41.812,19.361,12.0014,7.8147
2026-07-21T16:50:41.812,19.3926,12.1777,7.7559
2026-07-21T16:50:41.827,19.3926,12.0602,7.9126
2026-07-21T16:50:41.843,19.4083,11.9623,7.7755
2026-07-21T16:50:41.843,19.4119,12.0014,7.7951
2026-07-21T16:50:41.859,19.4184,11.9623,7.8343
2026-07-21T16:50:41.875,19.4399,12.021,7.7755
2026-07-21T16:50:41.875,19.4399,12.0406,7.7755
2026-07-21T16:50:41.894,19.4399,12.1581,7.8147
2026-07-21T16:50:41.901,19.456,12.0406,7.7951
2026-07-21T16:50:41.907,19.4717,12.0993,7.7951
2026-07-21T16:50:41.922,19.4874,12.1581,7.7755
2026-07-21T16:50:41.922,19.4894,12.1189,7.8343
2026-07-21T16:50:41.938,19.5187,12.0798,7.8147
2026-07-21T16:50:41.954,19.5187,12.2364,7.893
2026-07-21T16:50:41.954,19.5187,12.0993,7.9517
2026-07-21T16:50:41.972,19.5187,12.0602,7.8147
2026-07-21T16:50:41.995,19.5502,12.1581,7.8147
2026-07-21T16:50:41.995,19.5502,12.0602,7.9126
2026-07-21T16:50:42.001,19.5502,12.021,7.893
2026-07-21T16:50:42.017,19.568,12.2168,7.893
2026-07-21T16:50:42.017,19.5816,12.1777,7.9713
2026-07-21T16:50:42.033,19.5977,12.1385,7.893
2026-07-21T16:50:42.048,19.5977,12.256,7.9126
2026-07-21T16:50:42.050,19.6124,12.1385,7.9322
2026-07-21T16:50:42.064,19.6294,12.0406,7.8538
2026-07-21T16:50:42.064,19.6294,12.2364,7.8538
2026-07-21T16:50:42.080,19.6453,12.1385,7.9322
2026-07-21T16:50:42.080,19.6453,12.1972,7.9126
2026-07-21T16:50:42.112,19.6613,12.1777,7.8538
2026-07-21T16:50:42.112,19.6613,12.1972,7.9322
2026-07-21T16:50:42.112,19.6771,12.1581,7.9909
2026-07-21T16:50:42.128,19.6771,12.256,7.9322
2026-07-21T16:50:42.144,19.709,12.2364,7.9909
2026-07-21T16:50:42.144,19.713,12.2168,7.9517
2026-07-21T16:50:42.160,19.7189,12.1777,7.893
2026-07-21T16:50:42.176,19.7411,12.3343,7.9909
2026-07-21T16:50:42.176,19.7411,12.2168,8.0105
2026-07-21T16:50:42.195,19.7411,12.1385,7.893
2026-07-21T16:50:42.201,19.7569,12.2168,7.8734
2026-07-21T16:50:42.223,19.789,12.1385,7.9126
2026-07-21T16:50:42.223,19.789,12.2168,7.8734
2026-07-21T16:50:42.223,19.789,12.3147,7.893
2026-07-21T16:50:42.239,19.8048,12.1385,7.9713
2026-07-21T16:50:42.256,19.8209,12.1385,7.9322
2026-07-21T16:50:42.256,19.8209,12.1777,7.9517
2026-07-21T16:50:42.271,19.8368,12.0798,8.0105
2026-07-21T16:50:42.287,19.8378,12.0993,7.9126
2026-07-21T16:50:42.303,19.8684,12.256,7.9126
2026-07-21T16:50:42.303,19.8684,12.1189,7.9517
2026-07-21T16:50:42.303,19.8684,12.1189,7.8538
2026-07-21T16:50:42.320,19.8684,12.1581,7.8343
2026-07-21T16:50:42.337,19.9056,12.1385,7.893
2026-07-21T16:50:42.337,19.9067,12.0993,7.8538
2026-07-21T16:50:42.351,19.9078,12.1972,7.9126
2026-07-21T16:50:42.351,19.916,12.256,7.8734
2026-07-21T16:50:42.385,19.9328,12.0798,7.9322
2026-07-21T16:50:42.385,19.9328,12.256,7.8734
2026-07-21T16:50:42.396,19.9478,12.2168,7.893
2026-07-21T16:50:42.402,19.9795,12.0406,7.8343
2026-07-21T16:50:42.415,19.9795,12.0602,7.8734
2026-07-21T16:50:42.415,19.9795,12.1581,7.8343
2026-07-21T16:50:42.430,20.0192,12.1385,7.893
2026-07-21T16:50:42.447,20.0192,12.0798,7.8343
2026-07-21T16:50:42.447,20.0192,12.2168,7.8343
2026-07-21T16:50:42.462,20.0276,12.1581,7.9322
2026-07-21T16:50:42.462,20.0276,12.0406,7.8734
2026-07-21T16:50:42.479,20.0593,12.2364,7.8147
2026-07-21T16:50:42.496,20.0593,12.1189,7.9126
2026-07-21T16:50:42.502,20.0593,12.0406,7.9126
2026-07-21T16:50:42.510,20.076,12.0993,7.8734
2026-07-21T16:50:42.526,20.0914,12.0798,7.9126
2026-07-21T16:50:42.526,20.0914,12.0798,7.7951
2026-07-21T16:50:42.542,20.1075,12.1581,7.8538
2026-07-21T16:50:42.558,20.114,12.0602,7.8538
2026-07-21T16:50:42.558,20.1192,12.0406,7.8343
2026-07-21T16:50:42.574,20.1393,12.1189,7.7755
2026-07-21T16:50:42.574,20.1393,12.0798,7.8538
2026-07-21T16:50:42.596,20.1552,12.0602,7.8147
2026-07-21T16:50:42.606,20.1552,12.0798,7.7559
2026-07-21T16:50:42.606,20.187,12.0993,7.7951
2026-07-21T16:50:42.622,20.187,12.0014,7.7559
2026-07-21T16:50:42.622,20.187,12.0014,7.7364
2026-07-21T16:50:42.638,20.2028,12.1581,7.7755
2026-07-21T16:50:42.654,20.2197,12.0602,7.8538
2026-07-21T16:50:42.654,20.2197,12.0406,7.7951
2026-07-21T16:50:42.669,20.2197,12.1972,7.8147
2026-07-21T16:50:42.685,20.2351,12.0406,7.8343
2026-07-21T16:50:42.702,20.2667,12.0014,7.7951
2026-07-21T16:50:42.702,20.2667,12.0798,7.7951
2026-07-21T16:50:42.702,20.2667,12.0993,7.8147
2026-07-21T16:50:42.718,20.2984,12.0602,7.8538
2026-07-21T16:50:42.733,20.2984,12.2364,7.8147
2026-07-21T16:50:42.733,20.2984,12.0602,7.8734
2026-07-21T16:50:42.749,20.2984,12.021,7.7559
2026-07-21T16:50:42.765,20.3302,12.0993,7.8147
2026-07-21T16:50:42.765,20.3302,12.1189,7.7951
2026-07-21T16:50:42.781,20.3474,12.021,7.8734
2026-07-21T16:50:42.781,20.3474,12.2168,7.7951
2026-07-21T16:50:42.813,20.3775,12.1777,7.893
2026-07-21T16:50:42.813,20.3775,12.0798,7.7755
2026-07-21T16:50:42.828,20.3775,12.0798,7.7951
2026-07-21T16:50:42.830,20.3775,12.0993,7.8734
2026-07-21T16:50:42.844,20.415,11.9623,7.7559
2026-07-21T16:50:42.844,20.419,12.0406,7.7364
2026-07-21T16:50:42.860,20.4251,12.0993,7.8147
2026-07-21T16:50:42.876,20.4251,12.1777,7.8147
2026-07-21T16:50:42.876,20.4571,12.0798,7.8147
2026-07-21T16:50:42.892,20.4651,12.1581,7.8147
2026-07-21T16:50:42.901,20.4731,12.0406,7.9126
2026-07-21T16:50:42.908,20.4731,12.021,7.7559
2026-07-21T16:50:42.923,20.5152,12.1972,7.7559
2026-07-21T16:50:42.923,20.5152,12.1189,7.8538
2026-07-21T16:50:42.948,20.5204,11.9819,7.7559
2026-07-21T16:50:42.956,20.5204,12.1385,7.7364
2026-07-21T16:50:42.956,20.5204,11.9231,7.7951
2026-07-21T16:50:42.987,20.5518,11.8644,7.7559
2026-07-21T16:50:42.987,20.5518,11.9231,7.7168
2026-07-21T16:50:42.987,20.5675,11.9231,7.7364
2026-07-21T16:50:43.003,20.5675,11.9035,7.6972
2026-07-21T16:50:43.003,20.5833,12.021,7.7364
2026-07-21T16:50:43.018,20.6193,12.021,7.7168
2026-07-21T16:50:43.034,20.6193,11.9623,7.7168
2026-07-21T16:50:43.034,20.6309,11.9623,7.658
2026-07-21T16:50:43.050,20.6309,12.0602,7.7951
2026-07-21T16:50:43.050,20.6466,11.9623,7.8147
2026-07-21T16:50:43.066,20.678,12.0602,7.7364
2026-07-21T16:50:43.081,20.6938,12.1581,7.8147
2026-07-21T16:50:43.102,20.6938,12.0798,7.7755
2026-07-21T16:50:43.102,20.7095,12.0602,7.8147
2026-07-21T16:50:43.113,20.7161,12.1189,7.7559
2026-07-21T16:50:43.129,20.7253,11.9623,7.8343
2026-07-21T16:50:43.129,20.7253,11.9623,7.7559
2026-07-21T16:50:43.160,20.7728,12.1777,7.7364
2026-07-21T16:50:43.160,20.7728,12.1581,7.8538
2026-07-21T16:50:43.160,20.7728,12.0406,7.7559
2026-07-21T16:50:43.176,20.7885,12.1972,7.7951
2026-07-21T16:50:43.192,20.7885,12.0602,7.7951
2026-07-21T16:50:43.202,20.8043,12.1189,7.8147
2026-07-21T16:50:43.208,20.8043,12.0993,7.7168
2026-07-21T16:50:43.208,20.8196,12.0993,7.8538
2026-07-21T16:50:43.224,20.8512,12.021,7.6972
2026-07-21T16:50:43.255,20.8672,12.0602,7.7168
2026-07-21T16:50:43.255,20.8672,11.9819,7.7951
2026-07-21T16:50:43.255,20.8672,11.9623,7.7559
2026-07-21T16:50:43.255,20.8672,12.021,7.7168
2026-07-21T16:50:43.271,20.8831,12.1189,7.7951
2026-07-21T16:50:43.287,20.8831,12.021,7.7755
2026-07-21T16:50:43.302,20.8989,12.0602,7.7755
2026-07-21T16:50:43.302,20.8989,12.0798,7.8538
2026-07-21T16:50:43.318,20.9465,11.9819,7.8147
2026-07-21T16:50:43.334,20.9622,12.021,7.7755
2026-07-21T16:50:43.334,20.9653,12.1189,7.7951
2026-07-21T16:50:43.334,20.9653,12.0798,7.7559
2026-07-21T16:50:43.350,20.9781,12.0014,7.658
2026-07-21T16:50:43.366,20.9781,12.1189,7.7168
2026-07-21T16:50:43.381,20.9938,12.021,7.6776
2026-07-21T16:50:43.381,20.9948,11.9623,7.521
2026-07-21T16:50:43.381,20.9948,12.1189,7.8147
2026-07-21T16:50:43.413,21.0419,12.0602,7.8734
2026-07-21T16:50:43.429,21.0419,12.021,7.8538
2026-07-21T16:50:43.429,21.0419,12.1581,7.7559
2026-07-21T16:50:43.445,21.0576,12.0406,7.7559
2026-07-21T16:50:43.448,21.0576,12.0014,7.7168
2026-07-21T16:50:43.448,21.0734,12.1581,7.7168
2026-07-21T16:50:43.460,21.0734,12.0798,7.7559
2026-07-21T16:50:43.477,21.0734,11.9819,7.8147
2026-07-21T16:50:43.477,21.0891,12.0993,7.7755
2026-07-21T16:50:43.494,21.0891,12.0993,7.8147
2026-07-21T16:50:43.511,21.1358,12.0993,7.7559
2026-07-21T16:50:43.511,21.1358,12.0993,7.6972
2026-07-21T16:50:43.524,21.1515,12.0406,7.7951
2026-07-21T16:50:43.540,21.1515,12.0014,7.7364
2026-07-21T16:50:43.540,21.1673,11.9623,7.7168
2026-07-21T16:50:43.540,21.1673,12.0993,7.7364
2026-07-21T16:50:43.556,21.1833,11.9623,7.6972
2026-07-21T16:50:43.572,21.1833,11.9035,7.6972
2026-07-21T16:50:43.587,21.1833,11.9623,7.7168
2026-07-21T16:50:43.603,21.2305,11.9427,7.7364
2026-07-21T16:50:43.603,21.2305,11.9623,7.7364
2026-07-21T16:50:43.603,21.2305,12.021,7.7364
2026-07-21T16:50:43.634,21.2463,11.9819,7.7364
2026-07-21T16:50:43.634,21.2463,11.9035,7.5993
2026-07-21T16:50:43.650,21.2666,11.9819,7.7168
2026-07-21T16:50:43.650,21.2698,12.021,7.7559
2026-07-21T16:50:43.666,21.2779,11.9035,7.658
2026-07-21T16:50:43.666,21.2779,12.0602,7.7364
2026-07-21T16:50:43.702,21.3254,11.9231,7.7951
2026-07-21T16:50:43.702,21.3254,12.0014,7.7559
2026-07-21T16:50:43.702,21.3254,12.0993,7.6972
2026-07-21T16:50:43.713,21.3254,12.0406,7.7559
2026-07-21T16:50:43.729,21.3412,11.9819,7.7168
2026-07-21T16:50:43.729,21.3412,12.1189,7.6972
2026-07-21T16:50:43.751,21.3412,11.9819,7.7364
2026-07-21T16:50:43.760,21.3569,11.9819,7.7755
2026-07-21T16:50:43.760,21.3728,12.0406,7.658
2026-07-21T16:50:43.792,21.4204,12.0798,7.7559
2026-07-21T16:50:43.792,21.4362,12.0014,7.7755
2026-07-21T16:50:43.792,21.4362,12.021,7.7364
2026-07-21T16:50:43.808,21.4362,12.1581,7.7755
2026-07-21T16:50:43.808,21.4362,12.1581,7.9322
2026-07-21T16:50:43.824,21.4521,12.0406,7.8343
2026-07-21T16:50:43.839,21.4679,12.1777,7.7951
2026-07-21T16:50:43.839,21.4679,11.9623,7.8734
2026-07-21T16:50:43.855,21.4836,12.0014,7.8147
2026-07-21T16:50:43.887,21.5312,12.1385,7.7755
2026-07-21T16:50:43.887,21.5312,12.0602,7.8734
2026-07-21T16:50:43.887,21.5312,12.0406,7.8147
2026-07-21T16:50:43.903,21.5312,12.1581,7.8147
2026-07-21T16:50:43.903,21.5312,12.0993,7.893
2026-07-21T16:50:43.903,21.5312,12.0406,7.8538
2026-07-21T16:50:43.935,21.5469,12.1385,7.8147
2026-07-21T16:50:43.935,21.5469,12.1777,7.9322
2026-07-21T16:50:43.935,21.5469,12.1385,7.9517
2026-07-21T16:50:43.950,21.5627,12.1972,7.9517
2026-07-21T16:50:43.966,21.5627,12.1385,8.0105
2026-07-21T16:50:43.982,21.61,12.1189,8.0301
2026-07-21T16:50:43.982,21.6206,12.2168,7.9517
2026-07-21T16:50:44.003,21.6206,12.2168,8.0105
2026-07-21T16:50:44.003,21.6257,12.1385,7.9713
2026-07-21T16:50:44.014,21.6257,12.1581,7.9322
2026-07-21T16:50:44.014,21.6415,12.1777,7.9322
2026-07-21T16:50:44.029,21.6415,12.1385,7.9322
2026-07-21T16:50:44.045,21.6573,12.0798,7.8734
2026-07-21T16:50:44.045,21.6573,12.2168,7.9322
2026-07-21T16:50:44.077,21.7207,12.1189,8.0692
2026-07-21T16:50:44.077,21.7207,12.2168,7.9713
2026-07-21T16:50:44.092,21.7207,12.3539,8.0692
2026-07-21T16:50:44.092,21.7207,12.3735,8.0692
2026-07-21T16:50:44.108,21.7366,12.2168,8.0301
2026-07-21T16:50:44.108,21.7366,12.3539,8.0692
2026-07-21T16:50:44.140,21.7523,12.1777,8.0692
2026-07-21T16:50:44.140,21.7523,12.3343,8.0888
2026-07-21T16:50:44.140,21.7523,12.4126,8.0888
2026-07-21T16:50:44.155,21.7681,12.4322,8.1671
2026-07-21T16:50:44.171,21.7998,12.3147,8.0888
2026-07-21T16:50:44.187,21.8208,12.4518,8.0692
2026-07-21T16:50:44.187,21.8208,12.3343,8.1671
2026-07-21T16:50:44.187,21.8208,12.4322,8.1084
2026-07-21T16:50:44.203,21.8316,12.4322,8.128
2026-07-21T16:50:44.219,21.8399,12.4518,8.1671
2026-07-21T16:50:44.219,21.8413,12.3147,8.128
2026-07-21T16:50:44.235,21.8485,12.4126,8.0301
2026-07-21T16:50:44.235,21.8524,12.4322,8.128
2026-07-21T16:50:44.251,21.8783,12.3931,8.1084
2026-07-21T16:50:44.282,21.8941,12.3931,8.1476
2026-07-21T16:50:44.282,21.8941,12.5105,8.1867
2026-07-21T16:50:44.282,21.8941,12.4518,8.1671
2026-07-21T16:50:44.298,21.921,12.491,8.0888
2026-07-21T16:50:44.303,21.9255,12.5301,7.9713
2026-07-21T16:50:44.321,21.9255,12.3539,8.0301
2026-07-21T16:50:44.330,21.9255,12.2364,8.0301
2026-07-21T16:50:44.335,21.9413,12.3735,8.0497
2026-07-21T16:50:44.345,21.9886,12.2756,8.0888
2026-07-21T16:50:44.361,21.9886,12.2756,8.0105
2026-07-21T16:50:44.361,21.9886,12.4126,8.0301
2026-07-21T16:50:44.376,22.0043,12.3735,8.0888
2026-07-21T16:50:44.376,22.0043,12.3343,8.1084
2026-07-21T16:50:44.403,22.0043,12.5301,8.0888
2026-07-21T16:50:44.408,22.0201,12.3931,8.2063
2026-07-21T16:50:44.408,22.0211,12.3931,8.0497
2026-07-21T16:50:44.424,22.0211,12.491,7.9909
2026-07-21T16:50:44.424,22.0676,12.5105,8.0497
2026-07-21T16:50:44.439,22.0833,12.4518,7.9909
2026-07-21T16:50:44.455,22.0833,12.491,7.9909
2026-07-21T16:50:44.455,22.0833,12.4518,8.128
2026-07-21T16:50:44.471,22.0991,12.3931,8.0888
2026-07-21T16:50:44.483,22.0991,12.4322,8.0888
2026-07-21T16:50:44.487,22.1217,12.5301,8.0888
2026-07-21T16:50:44.504,22.1307,12.4322,8.0497
2026-07-21T16:50:44.518,22.1307,12.4126,8.0692
2026-07-21T16:50:44.518,22.1779,12.4126,7.9909
2026-07-21T16:50:44.550,22.1779,12.3147,8.0497
2026-07-21T16:50:44.550,22.1779,12.3539,8.0301
2026-07-21T16:50:44.550,22.1779,12.5105,7.9517
2026-07-21T16:50:44.566,22.1937,12.3931,7.9713
2026-07-21T16:50:44.566,22.2095,12.3735,7.893
2026-07-21T16:50:44.582,22.2095,12.3931,7.8734
2026-07-21T16:50:44.604,22.2211,12.3343,7.9517
2026-07-21T16:50:44.604,22.2252,12.2756,7.8734
2026-07-21T16:50:44.613,22.2252,12.4518,7.9517
2026-07-21T16:50:44.629,22.2252,12.2952,7.9713
2026-07-21T16:50:44.629,22.2725,12.3735,8.0105
2026-07-21T16:50:44.645,22.2882,12.4714,7.9126
2026-07-21T16:50:44.660,22.2882,12.3931,7.9909
2026-07-21T16:50:44.660,22.2882,12.2364,7.9126
2026-07-21T16:50:44.676,22.3039,12.3931,7.9713
2026-07-21T16:50:44.676,22.3039,12.256,8.0105
2026-07-21T16:50:44.692,22.3199,12.2364,7.9909
2026-07-21T16:50:44.708,22.3225,12.3539,7.893
2026-07-21T16:50:44.708,22.3225,12.3931,7.9322
2026-07-21T16:50:44.723,22.336,12.2168,7.9322
2026-07-21T16:50:44.739,22.3833,12.3147,7.8538
2026-07-21T16:50:44.755,22.3833,12.2756,7.893
2026-07-21T16:50:44.755,22.3833,12.3343,7.9517
2026-07-21T16:50:44.755,22.3991,12.2756,7.9126
2026-07-21T16:50:44.771,22.3991,12.2952,7.9517
2026-07-21T16:50:44.786,22.423,12.256,7.9126
2026-07-21T16:50:44.786,22.4306,12.1972,7.8538
2026-07-21T16:50:44.805,22.4306,12.256,7.9126
2026-07-21T16:50:44.818,22.4427,12.1581,7.893
2026-07-21T16:50:44.818,22.4463,12.1385,7.8734
2026-07-21T16:50:44.850,22.4781,12.2756,7.893
2026-07-21T16:50:44.850,22.4781,12.1189,7.8343
2026-07-21T16:50:44.850,22.4939,12.1581,7.7951
2026-07-21T16:50:44.866,22.4939,12.2168,7.7951
2026-07-21T16:50:44.881,22.4939,12.1777,7.8343
2026-07-21T16:50:44.897,22.5097,12.0602,7.8147
2026-07-21T16:50:44.905,22.5097,12.1777,7.8147
2026-07-21T16:50:44.913,22.5097,12.0602,7.8343
2026-07-21T16:50:44.913,22.5254,12.0798,7.7559
2026-07-21T16:50:44.929,22.5254,12.1385,7.7559
2026-07-21T16:50:44.929,22.5727,12.0798,7.8734
2026-07-21T16:50:44.961,22.5727,11.9819,7.7755
2026-07-21T16:50:44.961,22.5727,12.1385,7.7755
2026-07-21T16:50:44.961,22.5727,12.0993,7.893
2026-07-21T16:50:44.976,22.5887,12.0798,7.8343
2026-07-21T16:50:44.976,22.5959,12.2168,7.7168
2026-07-21T16:50:44.992,22.6045,12.2364,7.7951
2026-07-21T16:50:45.008,22.6045,12.1777,7.8734
2026-07-21T16:50:45.008,22.6238,12.2168,7.7755
2026-07-21T16:50:56.264,33.8609,12.1581,7.2468
2026-07-21T16:50:56.297,33.893,12.0798,7.2468
2026-07-21T16:50:56.297,33.909,12.1777,7.286
2026-07-21T16:50:56.312,33.9101,12.2952,7.3056
2026-07-21T16:50:56.315,33.9101,12.2364,7.3252
2026-07-21T16:50:56.343,33.9267,12.2364,7.3839
2026-07-21T16:50:56.343,33.9267,12.3539,7.286
2026-07-21T16:50:56.343,33.9267,12.256,7.4622
2026-07-21T16:50:56.375,33.9739,12.2756,7.4035
2026-07-21T16:50:56.375,33.9739,12.4126,7.4426
2026-07-21T16:50:56.375,33.9739,12.4126,7.4231
2026-07-21T16:50:56.375,33.9739,12.3539,7.3643
2026-07-21T16:50:56.392,33.9897,12.4714,7.3447
2026-07-21T16:50:56.409,33.9897,12.3931,7.3056
2026-07-21T16:50:56.409,34.0051,12.256,7.286
2026-07-21T16:50:56.424,34.0362,12.2756,7.2664
2026-07-21T16:50:56.439,34.052,12.2756,7.3839
2026-07-21T16:50:56.450,34.052,12.256,7.3839
2026-07-21T16:50:56.456,34.052,12.2952,7.4035
2026-07-21T16:50:56.456,34.052,12.3539,7.4035
2026-07-21T16:50:56.472,34.0725,12.1581,7.3643
2026-07-21T16:50:56.472,34.0756,12.1189,7.2273
2026-07-21T16:50:56.487,34.0837,12.1777,7.286
2026-07-21T16:50:56.519,34.1172,12.1972,7.3643
2026-07-21T16:50:56.519,34.1172,12.2364,7.3839
2026-07-21T16:50:56.519,34.1172,12.491,7.4622
2026-07-21T16:50:56.534,34.1363,12.3735,7.4818
2026-07-21T16:50:56.534,34.1363,12.2952,7.3643
2026-07-21T16:50:56.555,34.1473,12.4518,7.3643
2026-07-21T16:50:56.558,34.1473,12.4126,7.4035
2026-07-21T16:50:56.566,34.1797,12.4518,7.4035
2026-07-21T16:50:56.582,34.1969,12.5497,7.4231
2026-07-21T16:50:56.598,34.1969,12.5301,7.4818
2026-07-21T16:50:56.600,34.1969,12.5301,7.4035
2026-07-21T16:50:56.619,34.2108,12.5693,7.3447
2026-07-21T16:50:56.630,34.2275,12.491,7.5797
2026-07-21T16:50:56.630,34.2295,12.4126,7.4035
2026-07-21T16:50:56.646,34.2366,12.5693,7.4231
2026-07-21T16:50:56.651,34.2743,12.491,7.5014
2026-07-21T16:50:56.662,34.2743,12.5497,7.5014
2026-07-21T16:50:56.662,34.2743,12.628,7.6189
2026-07-21T16:50:56.679,34.2917,12.7063,7.6385
2026-07-21T16:50:56.693,34.2917,12.5693,7.5797
2026-07-21T16:50:56.693,34.2917,12.5693,7.5993
2026-07-21T16:50:56.719,34.3062,12.5889,7.5797
2026-07-21T16:50:56.725,34.3062,12.491,7.5406
2026-07-21T16:50:56.741,34.3381,12.5301,7.4622
2026-07-21T16:50:56.751,34.3544,12.6672,7.3643
2026-07-21T16:50:56.757,34.3544,12.5301,7.4035
2026-07-21T16:50:56.757,34.3544,12.5693,7.3252
2026-07-21T16:50:56.774,34.3705,12.6672,7.4426
2026-07-21T16:50:56.774,34.3705,12.5301,7.5993
2026-07-21T16:50:56.789,34.3705,12.491,7.5014
2026-07-21T16:50:56.821,34.4166,12.7455,7.5601
2026-07-21T16:50:56.821,34.4166,12.628,7.6385
2026-07-21T16:50:56.821,34.4166,12.628,7.6776
2026-07-21T16:50:56.836,34.4166,12.7651,7.5993
2026-07-21T16:50:56.837,34.4333,12.7847,7.7168
2026-07-21T16:50:56.853,34.4369,12.7259,7.6776
2026-07-21T16:50:56.867,34.4369,12.8043,7.6776
2026-07-21T16:50:56.867,34.4482,12.8043,7.6972
2026-07-21T16:50:56.899,34.4796,12.7847,7.7559
2026-07-21T16:50:56.899,34.4796,12.9217,7.7951
2026-07-21T16:50:56.899,34.4796,12.8826,7.7951
2026-07-21T16:50:56.916,34.4953,12.863,7.7755
2026-07-21T16:50:56.919,34.4953,12.9609,7.6776
2026-07-21T16:50:56.931,34.5111,12.9217,7.7364
2026-07-21T16:50:56.962,34.5428,12.8434,7.7364
2026-07-21T16:50:56.962,34.5428,12.8238,7.7364
2026-07-21T16:50:56.962,34.5428,12.9022,7.7364
2026-07-21T16:50:56.962,34.5586,12.8238,7.658
2026-07-21T16:50:56.978,34.5706,12.8238,7.6385
2026-07-21T16:50:56.994,34.5747,13.0001,7.6189
2026-07-21T16:50:57.019,34.6062,13.0001,7.6972
2026-07-21T16:50:57.019,34.6062,12.8043,7.6189
2026-07-21T16:50:57.025,34.6062,12.863,7.6972
2026-07-21T16:50:57.041,34.6219,12.7259,7.7168
2026-07-21T16:50:57.041,34.6219,12.6084,7.6385
2026-07-21T16:50:57.053,34.6219,12.8043,7.6189
2026-07-21T16:50:57.057,34.638,12.6868,7.5797
2026-07-21T16:50:57.089,34.6538,12.6476,7.4818
2026-07-21T16:50:57.089,34.6695,12.6868,7.5406
2026-07-21T16:50:57.089,34.671,12.6672,7.5797
2026-07-21T16:50:57.104,34.671,12.491,7.4818
2026-07-21T16:50:57.104,34.671,12.6476,7.4426
2026-07-21T16:50:57.120,34.7014,12.7455,7.5406
2026-07-21T16:50:57.136,34.7172,12.6476,7.5406
2026-07-21T16:50:57.136,34.7172,12.6672,7.4426
2026-07-21T16:50:57.153,34.7172,12.6084,7.5406
2026-07-21T16:50:57.153,34.7172,12.6084,7.521
2026-07-21T16:50:57.168,34.7501,12.628,7.4426
2026-07-21T16:50:57.184,34.7649,12.5301,7.4818
2026-07-21T16:50:57.184,34.7649,12.5105,7.4035
2026-07-21T16:50:57.200,34.7716,12.5105,7.3643
2026-07-21T16:50:57.216,34.7808,12.4714,7.4818
2026-07-21T16:50:57.220,34.7966,12.4518,7.3643
2026-07-21T16:50:57.233,34.8126,12.5693,7.4231
2026-07-21T16:50:57.233,34.8126,12.5497,7.3839
2026-07-21T16:50:57.254,34.8126,12.4518,7.3447
2026-07-21T16:50:57.263,34.8126,12.4714,7.3056
2026-07-21T16:50:57.279,34.8462,12.4126,7.286
2026-07-21T16:50:57.279,34.8462,12.2952,7.286
2026-07-21T16:50:57.295,34.8604,12.2952,7.2664
2026-07-21T16:50:57.295,34.8604,12.4714,7.2273
2026-07-21T16:50:57.329,34.8922,12.3343,7.2664
2026-07-21T16:50:57.329,34.8922,12.3147,7.1881
2026-07-21T16:50:57.329,34.8922,12.491,7.2077
2026-07-21T16:50:57.343,34.9079,12.4322,7.3447
2026-07-21T16:50:57.343,34.9079,12.3931,7.2468
2026-07-21T16:50:57.375,34.9559,12.5301,7.4035
2026-07-21T16:50:57.375,34.9559,12.3735,7.3643
2026-07-21T16:50:57.390,34.9559,12.3147,7.3839
2026-07-21T16:50:57.390,34.9714,12.4126,7.2664
2026-07-21T16:50:57.406,34.9724,12.3735,7.2664
2026-07-21T16:50:57.423,35.0032,12.3931,7.2664
2026-07-21T16:50:57.423,35.0032,12.6084,7.2468
2026-07-21T16:50:57.423,35.0032,12.4126,7.3056
2026-07-21T16:50:57.438,35.0032,12.3735,7.2664
2026-07-21T16:50:57.455,35.0192,12.3343,7.1881
2026-07-21T16:50:57.455,35.0374,12.2952,7.286
2026-07-21T16:50:57.470,35.0508,12.3147,7.1881
2026-07-21T16:50:57.486,35.0528,12.491,7.1881
2026-07-21T16:50:57.486,35.0528,12.491,7.2468
2026-07-21T16:50:57.502,35.0668,12.4714,7.2468
2026-07-21T16:50:57.520,35.0826,12.4518,7.3643
2026-07-21T16:50:57.520,35.0826,12.4322,7.3447
2026-07-21T16:50:57.535,35.0986,12.3735,7.4426
2026-07-21T16:50:57.535,35.0986,12.3735,7.2468
2026-07-21T16:50:57.565,35.1377,12.491,7.3252
2026-07-21T16:50:57.565,35.1377,12.4126,7.3056
2026-07-21T16:50:57.565,35.1457,12.4714,7.2273
2026-07-21T16:50:57.581,35.1478,12.491,7.2664
2026-07-21T16:50:57.581,35.1478,12.3931,7.2468
2026-07-21T16:50:57.597,35.181,12.4126,7.286
2026-07-21T16:50:57.612,35.181,12.5105,7.3252
2026-07-21T16:50:57.628,35.1936,12.4322,7.3839
2026-07-21T16:50:57.630,35.1936,12.491,7.3056
2026-07-21T16:50:57.660,35.225,12.5105,7.3056
2026-07-21T16:50:57.660,35.225,12.3539,7.2468
2026-07-21T16:50:57.663,35.2271,12.3539,7.2077
2026-07-21T16:50:57.663,35.2271,12.491,7.2077
2026-07-21T16:50:57.692,35.257,12.3735,7.2077
2026-07-21T16:50:57.692,35.257,12.3343,7.1685
2026-07-21T16:50:57.707,35.257,12.4518,7.1294
2026-07-21T16:50:57.710,35.257,12.2364,7.1685
2026-07-21T16:50:57.739,35.2887,12.256,7.1685
2026-07-21T16:50:57.739,35.2887,12.256,7.2664
2026-07-21T16:50:57.739,35.3047,12.2168,7.2077
2026-07-21T16:50:57.756,35.3047,12.2364,7.1489
2026-07-21T16:50:57.756,35.3376,12.2952,7.1881
2026-07-21T16:50:57.771,35.3376,12.2756,7.2273
2026-07-21T16:50:57.771,35.3376,12.256,7.1489
2026-07-21T16:50:57.787,35.3685,12.2756,7.1294
2026-07-21T16:50:57.804,35.3743,12.256,7.1685
2026-07-21T16:50:57.804,35.3743,12.1972,7.3252
2026-07-21T16:50:57.820,35.3743,12.3147,7.2664
2026-07-21T16:50:57.835,35.4016,12.4126,7.286
2026-07-21T16:50:57.835,35.4016,12.3931,7.2468
2026-07-21T16:50:57.857,35.4016,12.3931,7.2077
2026-07-21T16:50:57.857,35.4166,12.3931,7.2664
2026-07-21T16:50:57.884,35.4377,12.2952,7.1881
2026-07-21T16:50:57.884,35.4377,12.1777,7.1685
2026-07-21T16:50:57.884,35.4484,12.2756,7.1489
2026-07-21T16:50:57.920,35.4749,12.1581,7.286
2026-07-21T16:50:57.920,35.4801,12.1581,7.2664
2026-07-21T16:50:57.920,35.4801,12.4126,7.1489
2026-07-21T16:50:57.931,35.4801,12.2364,7.2664
2026-07-21T16:50:57.931,35.5121,12.1972,7.1685
2026-07-21T16:50:57.947,35.5121,12.2756,7.2077
2026-07-21T16:50:57.963,35.5301,12.1385,7.2273
2026-07-21T16:50:57.995,35.5593,12.0993,7.1294
2026-07-21T16:50:57.995,35.5593,12.1581,7.0902
2026-07-21T16:50:57.995,35.5593,12.1972,7.1685
2026-07-21T16:50:58.010,35.5593,12.0798,7.1881
2026-07-21T16:50:58.018,35.593,12.2364,7.1294
2026-07-21T16:50:58.026,35.593,12.1972,7.2273
2026-07-21T16:50:58.026,35.593,12.1385,7.2077
2026-07-21T16:50:58.042,35.6068,12.3735,7.1489
2026-07-21T16:50:58.057,35.6068,12.1777,7.1685
2026-07-21T16:50:58.057,35.638,12.0993,7.1685
2026-07-21T16:50:58.075,35.638,12.1189,7.1685
2026-07-21T16:50:58.075,35.638,12.1777,7.2468
2026-07-21T16:50:58.089,35.6551,12.1385,7.2468
2026-07-21T16:50:58.105,35.6856,12.256,7.1685
2026-07-21T16:50:58.105,35.6856,12.2364,7.2468
2026-07-21T16:50:58.120,35.6856,12.0602,7.1881
2026-07-21T16:50:58.138,35.7015,12.021,7.1294
2026-07-21T16:50:58.138,35.7175,12.2168,7.1294
2026-07-21T16:50:58.158,35.7175,12.1777,7.1489
2026-07-21T16:50:58.168,35.7382,12.1777,6.9531
2026-07-21T16:50:58.168,35.7382,12.2364,6.9923
2026-07-21T16:50:58.184,35.749,12.0406,6.9335
2026-07-21T16:50:58.184,35.7756,11.9819,6.914
2026-07-21T16:50:58.200,35.7807,12.0014,7.0706
2026-07-21T16:50:58.200,35.7827,12.0014,6.9531
2026-07-21T16:50:58.221,35.7827,11.9819,6.9335
2026-07-21T16:50:58.231,35.8127,12.1189,6.914
2026-07-21T16:50:58.247,35.8127,12.0602,7.0119
2026-07-21T16:50:58.258,35.8336,12.0014,6.9923
2026-07-21T16:50:58.265,35.8381,12.1581,6.8748
2026-07-21T16:50:58.265,35.8442,12.021,6.9531
2026-07-21T16:50:58.279,35.8614,12.0602,6.9335
2026-07-21T16:50:58.295,35.876,12.1972,6.8944
2026-07-21T16:50:58.311,35.8771,12.2168,7.0706
2026-07-21T16:50:58.321,35.8771,12.1581,7.0902
2026-07-21T16:50:58.327,35.8919,12.1972,7.0315
2026-07-21T16:50:58.327,35.9078,12.2952,7.1294
2026-07-21T16:50:58.344,35.9078,12.2952,7.1294
2026-07-21T16:50:58.358,35.9235,12.3343,7.1685
2026-07-21T16:50:58.360,35.9235,12.4714,7.2468
2026-07-21T16:50:58.374,35.9235,12.3539,7.2468
2026-07-21T16:50:58.390,35.9553,12.3343,7.1489
2026-07-21T16:50:58.390,35.9553,12.4714,7.1685
2026-07-21T16:50:58.406,35.9764,12.2168,7.2077
2026-07-21T16:50:58.406,35.9764,12.2364,7.0902
2026-07-21T16:50:58.422,36.0035,12.4126,7.051
2026-07-21T16:50:58.438,36.0035,12.256,7.1294
2026-07-21T16:50:58.438,36.0035,12.256,7.1294
2026-07-21T16:50:58.459,36.0197,12.256,7.0902
2026-07-21T16:50:58.459,36.0197,12.2364,7.1881
2026-07-21T16:50:58.486,36.0387,12.1972,7.0315
2026-07-21T16:50:58.486,36.0387,12.3735,7.1294
2026-07-21T16:50:58.486,36.0515,12.3931,7.1685
2026-07-21T16:50:58.502,36.0515,12.3539,7.1685
2026-07-21T16:50:58.518,36.0918,12.4714,7.1098
2026-07-21T16:50:58.521,36.0918,12.4322,7.1294
2026-07-21T16:50:58.534,36.0988,12.2756,7.0315
2026-07-21T16:50:58.534,36.0988,12.3931,6.9923
2026-07-21T16:50:58.550,36.1305,12.4126,7.051
2026-07-21T16:50:58.565,36.1305,12.3931,7.0902
2026-07-21T16:50:58.574,36.1305,12.4714,7.0706
2026-07-21T16:50:58.581,36.1388,12.628,7.0315
2026-07-21T16:50:58.597,36.162,12.3539,7.1098
2026-07-21T16:50:58.597,36.162,12.3539,7.0902
2026-07-21T16:50:58.613,36.162,12.4126,7.0706
2026-07-21T16:50:58.629,36.194,12.3147,7.1098
2026-07-21T16:50:58.644,36.194,12.3147,7.0902
2026-07-21T16:50:58.644,36.194,12.4126,6.9727
2026-07-21T16:50:58.644,36.194,12.2756,7.0902
2026-07-21T16:50:58.676,36.2259,12.2168,6.9531
2026-07-21T16:50:58.676,36.2259,12.2952,7.0315
2026-07-21T16:50:58.676,36.2417,12.256,7.0706
2026-07-21T16:50:58.693,36.2651,12.2168,7.0315
2026-07-21T16:50:58.708,36.2737,12.3735,7.051
2026-07-21T16:50:58.708,36.2773,12.2364,7.1685
2026-07-21T16:50:58.724,36.2773,12.2168,7.1098
2026-07-21T16:50:58.724,36.3051,12.3343,7.1489
2026-07-21T16:50:58.747,36.3051,12.256,7.1098
2026-07-21T16:50:58.747,36.3051,12.1972,7.051
2026-07-21T16:50:58.760,36.3208,12.2364,6.9727
2026-07-21T16:50:58.772,36.3532,12.2952,6.9727
2026-07-21T16:50:58.787,36.3532,12.2168,7.0119
2026-07-21T16:50:58.787,36.3532,12.2168,6.9923
2026-07-21T16:50:58.803,36.3682,12.3735,7.0706
2026-07-21T16:50:58.821,36.3839,12.3147,7.1294
2026-07-21T16:50:58.821,36.3839,12.256,7.1098
2026-07-21T16:50:58.836,36.3998,12.3735,7.0902
2026-07-21T16:50:58.836,36.3998,12.2756,7.1685
2026-07-21T16:50:58.851,36.4326,12.2168,7.0902
2026-07-21T16:50:58.866,36.4392,12.3539,7.0706
2026-07-21T16:50:58.866,36.4392,12.1581,7.0706
2026-07-21T16:50:58.882,36.4476,12.0798,6.9923
2026-07-21T16:50:58.898,36.4779,12.2168,7.0119
2026-07-21T16:50:58.915,36.4796,12.1385,7.051
2026-07-21T16:50:58.915,36.4796,12.1777,7.0706
2026-07-21T16:50:58.922,36.4796,12.2952,7.1489
2026-07-21T16:50:58.930,36.4796,12.3147,7.2468
2026-07-21T16:50:58.946,36.5115,12.3147,7.2077
2026-07-21T16:50:58.946,36.5115,12.3735,7.2468
2026-07-21T16:50:58.962,36.5274,12.3343,7.2664
2026-07-21T16:50:58.978,36.5274,12.3735,7.2273
2026-07-21T16:50:58.980,36.5593,12.4126,7.2664
2026-07-21T16:50:58.994,36.5593,12.5105,7.3252
2026-07-21T16:50:58.994,36.5593,12.4518,7.2273
2026-07-21T16:50:59.010,36.5781,12.3735,7.2273
2026-07-21T16:50:59.026,36.6071,12.5693,7.2273
2026-07-21T16:50:59.026,36.6071,12.3539,7.3056
2026-07-21T16:50:59.042,36.6071,12.4126,7.286
2026-07-21T16:50:59.060,36.6071,12.5497,7.2664
2026-07-21T16:50:59.060,36.6071,12.5105,7.3056
2026-07-21T16:50:59.074,36.6391,12.4518,7.3252
2026-07-21T16:50:59.074,36.6391,12.5889,7.286
2026-07-21T16:50:59.089,36.6391,12.4126,7.3447
2026-07-21T16:50:59.106,36.6786,12.2952,7.3056
2026-07-21T16:50:59.122,36.6786,12.4126,7.2664
2026-07-21T16:50:59.122,36.6865,12.3343,7.2664
2026-07-21T16:50:59.137,36.6865,12.3147,7.1881
2026-07-21T16:50:59.137,36.7024,12.3931,7.1881
2026-07-21T16:50:59.153,36.7185,12.3735,7.3252
2026-07-21T16:50:59.161,36.7185,12.3343,7.1881
2026-07-21T16:50:59.169,36.7502,12.3343,7.1881
2026-07-21T16:50:59.185,36.7502,12.3539,7.3839
2026-07-21T16:50:59.185,36.7502,12.3343,7.2468
2026-07-21T16:50:59.201,36.7502,12.3539,7.1685
2026-07-21T16:50:59.218,36.7822,12.491,7.2273
2026-07-21T16:50:59.233,36.7822,12.256,7.1881
2026-07-21T16:50:59.233,36.7981,12.1777,7.051
2026-07-21T16:50:59.249,36.7981,12.2952,7.0706
2026-07-21T16:50:59.265,36.8301,12.1581,7.1294
2026-07-21T16:50:59.265,36.8326,12.2756,7.0706
2026-07-21T16:50:59.265,36.8367,12.491,7.1294
2026-07-21T16:50:59.281,36.8457,12.3539,7.1881
2026-07-21T16:50:59.296,36.8613,12.2952,7.1489
2026-07-21T16:50:59.296,36.8613,12.4322,7.051
2026-07-21T16:50:59.317,36.8797,12.2168,7.2077
2026-07-21T16:50:59.328,36.8797,12.1581,7.1294
2026-07-21T16:50:59.328,36.909,12.2756,7.1489
2026-07-21T16:50:59.344,36.909,12.1972,7.1294
2026-07-21T16:50:59.344,36.909,12.2168,7.0315
2026-07-21T16:50:59.362,36.9248,12.2756,6.9923
2026-07-21T16:50:59.376,36.9408,12.2168,7.0902
2026-07-21T16:50:59.376,36.9408,12.1581,7.1098
2026-07-21T16:50:59.391,36.9566,12.1972,7.0902
2026-07-21T16:50:59.407,36.9724,12.2952,7.1098
2026-07-21T16:50:59.423,36.9894,12.2952,7.1098
2026-07-21T16:50:59.423,36.9894,12.2168,7.0902
2026-07-21T16:50:59.423,37.0044,12.3931,7.2077
2026-07-21T16:50:59.439,37.0044,12.2364,7.1294
2026-07-21T16:50:59.455,37.0044,12.1385,7.0119
2026-07-21T16:50:59.463,37.0389,12.1972,6.9923
2026-07-21T16:50:59.472,37.0389,12.021,6.914
2026-07-21T16:50:59.487,37.0389,12.0406,6.914
2026-07-21T16:50:59.487,37.0516,12.1581,6.914
2026-07-21T16:50:59.518,37.0836,12.0602,6.9531
2026-07-21T16:50:59.518,37.0836,12.0798,6.9335
2026-07-21T16:50:59.521,37.0836,12.1777,6.9531
2026-07-21T16:50:59.534,37.0836,12.0602,6.9727
2026-07-21T16:50:59.534,37.1155,12.0602,6.9727
2026-07-21T16:50:59.550,37.1155,12.1972,6.9727
2026-07-21T16:50:59.566,37.1155,12.2756,7.0902
2026-07-21T16:50:59.566,37.1314,12.1385,7.0315
2026-07-21T16:50:59.598,37.1634,12.3539,7.0315
2026-07-21T16:50:59.598,37.1634,12.1972,7.1098
2026-07-21T16:50:59.598,37.1634,12.1581,6.9923
2026-07-21T16:50:59.614,37.1634,12.3343,7.0119
2026-07-21T16:50:59.630,37.1953,12.256,7.0706
2026-07-21T16:50:59.630,37.1953,12.3343,7.0902
2026-07-21T16:50:59.646,37.1953,12.4126,7.051
2026-07-21T16:50:59.661,37.2118,12.3735,7.1685
2026-07-21T16:50:59.664,37.2388,12.2756,7.0902
2026-07-21T16:50:59.678,37.2427,12.2952,7.1098
2026-07-21T16:50:59.678,37.2427,12.3931,7.1685
2026-07-21T16:50:59.694,37.2427,12.3735,7.1294
2026-07-21T16:50:59.709,37.2817,12.4126,7.1294
2026-07-21T16:50:59.709,37.2817,12.5105,7.1489
2026-07-21T16:50:59.725,37.2817,12.3735,7.1881
2026-07-21T16:50:59.725,37.2952,12.3147,7.1294
2026-07-21T16:50:59.741,37.3223,12.491,7.1489
2026-07-21T16:50:59.757,37.3223,12.3147,7.1098
2026-07-21T16:50:59.764,37.3223,12.3539,7.1489
2026-07-21T16:50:59.778,37.3388,12.4714,7.2077
2026-07-21T16:50:59.789,37.3542,12.4518,7.2273
2026-07-21T16:50:59.789,37.3542,12.3735,7.1881
2026-07-21T16:50:59.805,37.3715,12.5105,7.2273
2026-07-21T16:50:59.805,37.3715,12.3931,7.286
2026-07-21T16:50:59.821,37.4026,12.4322,7.1685
2026-07-21T16:50:59.837,37.4026,12.5301,7.2468
2026-07-21T16:50:59.837,37.4026,12.491,7.2468
2026-07-21T16:50:59.854,37.4181,12.3931,7.2273
2026-07-21T16:50:59.868,37.4387,12.4518,7.2077
2026-07-21T16:50:59.884,37.4495,12.3343,7.2664
2026-07-21T16:50:59.885,37.4495,12.256,7.1294
2026-07-21T16:50:59.885,37.4505,12.4126,7.1881
2026-07-21T16:50:59.901,37.4654,12.4714,7.1685
2026-07-21T16:50:59.921,37.4825,12.4714,7.2273
2026-07-21T16:50:59.921,37.4825,12.4714,7.2273
2026-07-21T16:50:59.933,37.4974,12.5889,7.2273
2026-07-21T16:50:59.948,37.4974,12.3931,7.2468
2026-07-21T16:50:59.964,37.5291,12.3931,7.2468
2026-07-21T16:50:59.965,37.5337,12.5497,7.3252
2026-07-21T16:50:59.965,37.5389,12.4518,7.3252
2026-07-21T16:50:59.980,37.5572,12.4518,7.1489
2026-07-21T16:50:59.996,37.5834,12.5889,7.2468
2026-07-21T16:50:59.996,37.5864,12.4126,7.1881
2026-07-21T16:51:00.021,37.5904,12.3539,7.1489
2026-07-21T16:51:00.040,37.5904,12.4322,7.1489
2026-07-21T16:51:00.040,37.5904,12.3539,7.1881
2026-07-21T16:51:00.050,37.6256,12.3735,7.1098
2026-07-21T16:51:00.061,37.6256,12.4714,7.1294
2026-07-21T16:51:00.066,37.6298,12.4322,7.1881
2026-07-21T16:51:00.073,37.6298,12.3343,7.1098
2026-07-21T16:51:00.089,37.655,12.4322,7.0902
2026-07-21T16:51:00.089,37.655,12.3931,7.1881
2026-07-21T16:51:00.107,37.6703,12.3735,7.1294
2026-07-21T16:51:00.112,37.6703,12.491,7.2468
2026-07-21T16:51:00.137,37.7019,12.5693,7.2468
2026-07-21T16:51:00.137,37.7019,12.5693,7.2273
2026-07-21T16:51:00.137,37.7019,12.4518,7.1685
2026-07-21T16:51:00.153,37.7019,12.3735,7.2468
2026-07-21T16:51:00.168,37.7391,12.2756,7.2273
2026-07-21T16:51:00.168,37.7391,12.2168,7.1294
2026-07-21T16:51:00.184,37.7391,12.3539,7.1881
2026-07-21T16:51:00.184,37.7495,12.3931,7.2077
2026-07-21T16:51:00.200,37.7813,12.3735,7.1489
2026-07-21T16:51:00.222,37.7838,12.5105,7.1881
2026-07-21T16:51:00.222,37.7838,12.3147,7.2468
2026-07-21T16:51:00.232,37.7972,12.2756,7.2664
2026-07-21T16:51:00.249,37.813,12.2952,7.2273
2026-07-21T16:51:00.249,37.813,12.3343,7.2077
2026-07-21T16:51:00.266,37.8289,12.3147,7.1489
2026-07-21T16:51:00.266,37.839,12.4126,7.1098
2026-07-21T16:51:00.280,37.8608,12.256,7.1685
2026-07-21T16:51:00.295,37.8608,12.1972,7.1294
2026-07-21T16:51:00.295,37.8608,12.2952,7.1881
2026-07-21T16:51:00.311,37.8767,12.2168,7.2273
2026-07-21T16:51:00.327,37.9084,12.1972,7.1881
2026-07-21T16:51:00.343,37.9084,12.3735,7.2077
2026-07-21T16:51:00.343,37.9084,12.3931,7.2273
2026-07-21T16:51:00.343,37.9084,12.3147,7.2664
2026-07-21T16:51:00.367,37.9402,12.3343,7.1098
2026-07-21T16:51:00.375,37.9559,12.3735,7.2273
2026-07-21T16:51:00.375,37.9559,12.256,7.286
2026-07-21T16:51:00.391,37.9559,12.2952,7.2077
2026-07-21T16:51:00.391,37.9559,12.3931,7.286
2026-07-21T16:51:00.407,37.9875,12.4714,7.2664
2026-07-21T16:51:00.423,37.9875,12.3539,7.286
2026-07-21T16:51:00.438,38.0036,12.4714,7.3839
2026-07-21T16:51:00.438,38.0036,12.4126,7.3056
2026-07-21T16:51:00.467,38.0365,12.3147,7.2468
2026-07-21T16:51:00.470,38.0365,12.3931,7.2273
2026-07-21T16:51:00.470,38.0395,12.256,7.2273
2026-07-21T16:51:00.486,38.0512,12.2168,7.2077
2026-07-21T16:51:00.486,38.0673,12.2756,7.2664
2026-07-21T16:51:00.502,38.0832,12.3343,7.2664
2026-07-21T16:51:00.519,38.0852,12.1972,7.2273
2026-07-21T16:51:00.522,38.0852,12.2756,7.2077
2026-07-21T16:51:00.535,38.1004,12.2364,7.286
2026-07-21T16:51:00.550,38.1148,12.2168,7.2273
2026-07-21T16:51:00.550,38.13,12.3147,7.2273
2026-07-21T16:51:00.568,38.1306,12.256,7.3056
2026-07-21T16:51:00.568,38.1306,12.2952,7.2077
2026-07-21T16:51:00.583,38.1395,12.3735,7.2273
2026-07-21T16:51:00.597,38.1616,12.256,7.3252
2026-07-21T16:51:00.597,38.1616,12.3147,7.2077
2026-07-21T16:51:00.613,38.1776,12.3147,7.286
2026-07-21T16:51:00.628,38.209,12.3735,7.3643
2026-07-21T16:51:00.628,38.209,12.3147,7.3839
2026-07-21T16:51:00.644,38.2146,12.3147,7.2664
2026-07-21T16:51:00.660,38.2146,12.3931,7.3839
2026-07-21T16:51:00.668,38.2409,12.2952,7.3252
2026-07-21T16:51:00.676,38.2409,12.2952,7.3447
2026-07-21T16:51:00.691,38.2409,12.3931,7.3839
2026-07-21T16:51:00.697,38.2591,12.2952,7.4622
2026-07-21T16:51:00.708,38.2591,12.2952,7.4035
2026-07-21T16:51:00.723,38.2889,12.4322,7.4231
2026-07-21T16:51:00.723,38.2889,12.3539,7.5406
2026-07-21T16:51:00.723,38.3036,12.2756,7.4818
2026-07-21T16:51:00.742,38.3056,12.3735,7.5993
2026-07-21T16:51:00.755,38.3354,12.2364,7.5406
2026-07-21T16:51:00.771,38.3399,12.2756,7.5406
2026-07-21T16:51:00.771,38.3399,12.491,7.5014
2026-07-21T16:51:00.786,38.3515,12.2952,7.5993
2026-07-21T16:51:00.802,38.3674,12.3147,7.5601
2026-07-21T16:51:00.803,38.3674,12.4126,7.5601
2026-07-21T16:51:00.818,38.3864,12.3931,7.5993
2026-07-21T16:51:00.822,38.3864,12.3735,7.5601
2026-07-21T16:51:00.834,38.3989,12.491,7.5014
2026-07-21T16:51:00.850,38.4146,12.4518,7.5797
2026-07-21T16:51:00.850,38.4146,12.3931,7.6189
2026-07-21T16:51:00.869,38.4303,12.4714,7.4818
2026-07-21T16:51:00.869,38.4303,12.491,7.5014
2026-07-21T16:51:00.897,38.4461,12.4126,7.5406
2026-07-21T16:51:00.897,38.462,12.4518,7.3839
2026-07-21T16:51:00.913,38.4635,12.4518,7.4231
2026-07-21T16:51:00.913,38.4635,12.4322,7.4426
2026-07-21T16:51:00.922,38.494,12.3539,7.4035
2026-07-21T16:51:00.929,38.494,12.5301,7.5601
2026-07-21T16:51:00.946,38.51,12.4322,7.4622
2026-07-21T16:51:00.946,38.51,12.4126,7.5014
2026-07-21T16:51:00.969,38.543,12.5497,7.5014
2026-07-21T16:51:00.976,38.543,12.4322,7.5014
2026-07-21T16:51:00.976,38.543,12.4322,7.4426
2026-07-21T16:51:00.992,38.5578,12.6084,7.3252
2026-07-21T16:51:01.023,38.5871,12.5301,7.4231
2026-07-21T16:51:01.023,38.5892,12.491,7.3252
2026-07-21T16:51:01.025,38.5892,12.6084,7.286
2026-07-21T16:51:01.040,38.5892,12.5497,7.3643
2026-07-21T16:51:01.040,38.6211,12.4518,7.3056
2026-07-21T16:51:01.056,38.6211,12.491,7.2664
2026-07-21T16:51:01.070,38.6211,12.4126,7.286
2026-07-21T16:51:01.072,38.637,12.4126,7.1881
2026-07-21T16:51:01.089,38.6531,12.5301,7.1489
2026-07-21T16:51:01.104,38.6688,12.5105,7.3056
2026-07-21T16:51:01.104,38.6688,12.491,7.1685
2026-07-21T16:51:01.119,38.6688,12.5105,7.1881
2026-07-21T16:51:01.122,38.6845,12.5105,7.1881
2026-07-21T16:51:01.136,38.7003,12.4518,7.1881
2026-07-21T16:51:01.136,38.7003,12.4518,7.2077
2026-07-21T16:51:01.151,38.7161,12.5693,7.286
2026-07-21T16:51:01.167,38.7254,12.491,7.286
2026-07-21T16:51:01.183,38.7478,12.5105,7.3252
2026-07-21T16:51:01.183,38.7478,12.5497,7.1881
2026-07-21T16:51:01.198,38.7478,12.5301,7.2273
2026-07-21T16:51:01.211,38.7636,12.4518,7.1098
2026-07-21T16:51:01.223,38.7877,12.6476,7.1685
2026-07-21T16:51:01.230,38.7877,12.5497,7.2664
2026-07-21T16:51:01.230,38.7953,12.5497,7.2273
2026-07-21T16:51:01.248,38.7984,12.6672,7.3643
2026-07-21T16:51:01.262,38.8129,12.491,7.3056
2026-07-21T16:51:01.262,38.8275,12.491,7.2468
2026-07-21T16:51:01.281,38.8342,12.5105,7.286
2026-07-21T16:51:01.294,38.8592,12.4518,7.4035
2026-07-21T16:51:01.295,38.8592,12.491,7.4035
2026-07-21T16:51:01.295,38.8592,12.6868,7.3056
2026-07-21T16:51:01.318,38.8749,12.6084,7.4035
2026-07-21T16:51:01.327,38.8906,12.5301,7.3447
2026-07-21T16:51:01.327,38.8906,12.628,7.3252
2026-07-21T16:51:01.342,38.9063,12.5889,7.3839
2026-07-21T16:51:01.357,38.9063,12.5889,7.3839
2026-07-21T16:51:01.373,38.9406,12.6672,7.4035
2026-07-21T16:51:01.373,38.9406,12.7063,7.4818
2026-07-21T16:51:01.389,38.9406,12.6672,7.5014
2026-07-21T16:51:01.389,38.9552,12.5889,7.4818
2026-07-21T16:51:11.966,49.5312,9.1818,10.4972
2026-07-21T16:51:11.966,49.5312,9.1035,10.4581
2026-07-21T16:51:11.966,49.5312,9.0643,10.3602
2026-07-21T16:51:11.987,49.5463,9.0447,10.321
2026-07-21T16:51:11.997,49.5815,9.0839,10.3406
2026-07-21T16:51:12.014,49.5815,8.9664,10.2427
2026-07-21T16:51:12.014,49.5815,9.1231,10.2231
2026-07-21T16:51:12.014,49.5815,9.1035,10.321
2026-07-21T16:51:12.034,49.5954,9.0447,10.2427
2026-07-21T16:51:12.044,49.6257,9.1818,10.184
2026-07-21T16:51:12.060,49.6283,9.0447,10.2427
2026-07-21T16:51:12.064,49.6334,9.0252,10.2231
2026-07-21T16:51:12.078,49.6334,9.1035,10.3014
2026-07-21T16:51:12.094,49.6568,9.0643,10.2427
2026-07-21T16:51:12.094,49.6568,9.0056,10.1644
2026-07-21T16:51:12.108,49.6726,9.0643,10.0665
2026-07-21T16:51:12.116,49.6726,9.0252,10.1056
2026-07-21T16:51:12.123,49.6726,8.986,10.1056
2026-07-21T16:51:12.139,49.7101,9.1035,10.1644
2026-07-21T16:51:12.139,49.7101,9.2601,10.2623
2026-07-21T16:51:12.155,49.717,9.1035,10.2623
2026-07-21T16:51:12.155,49.7197,9.0839,10.1252
2026-07-21T16:51:12.186,49.7519,9.1622,10.086
2026-07-21T16:51:12.186,49.7519,9.0643,10.0273
2026-07-21T16:51:12.193,49.7519,8.986,9.9686
2026-07-21T16:51:12.208,49.7672,9.2014,10.0665
2026-07-21T16:51:12.218,49.7838,9.1231,10.1056
2026-07-21T16:51:12.218,49.7838,9.1231,10.0273
2026-07-21T16:51:12.234,49.8002,9.221,10.0077
2026-07-21T16:51:12.247,49.8002,9.221,10.0077
2026-07-21T16:51:12.258,49.8303,9.1231,9.9686
2026-07-21T16:51:12.266,49.8303,9.2601,10.086
2026-07-21T16:51:12.266,49.8303,9.2014,10.2035
2026-07-21T16:51:12.283,49.8441,9.1622,10.2623
2026-07-21T16:51:12.313,49.8742,9.2406,10.3014
2026-07-21T16:51:12.313,49.8742,9.2406,10.3406
2026-07-21T16:51:12.313,49.8787,9.2601,10.3014
2026-07-21T16:51:12.326,49.8787,9.3385,10.2623
2026-07-21T16:51:12.344,49.911,9.2993,10.2623
2026-07-21T16:51:12.344,49.911,9.2797,10.2035
2026-07-21T16:51:12.357,49.911,9.3189,10.2035
2026-07-21T16:51:12.361,49.911,9.358,10.2035
2026-07-21T16:51:12.376,49.946,9.358,10.2819
2026-07-21T16:51:12.376,49.946,9.4364,10.3406
2026-07-21T16:51:12.393,49.9519,9.5538,10.4385
2026-07-21T16:51:12.406,49.9725,9.5147,10.5364
2026-07-21T16:51:12.423,49.9881,9.5147,10.6147
2026-07-21T16:51:12.423,49.9881,9.5734,10.6539
2026-07-21T16:51:12.434,50.0,9.4559,10.6147
2026-07-21T16:51:12.453,50.0208,9.4951,10.6539
2026-07-21T16:51:12.455,50.0304,9.7105,10.6931
2026-07-21T16:51:12.455,50.0304,9.593,10.7714
2026-07-21T16:51:12.482,50.0384,9.5734,10.6931
2026-07-21T16:51:12.486,50.0384,9.7301,10.7714
2026-07-21T16:51:12.503,50.0708,9.6517,10.7714
2026-07-21T16:51:12.503,50.0708,9.7105,10.9084
2026-07-21T16:51:12.518,50.081,9.828,10.928
2026-07-21T16:51:12.521,50.0873,9.7888,11.0259
2026-07-21T16:51:12.540,50.1153,9.7497,10.9868
2026-07-21T16:51:12.540,50.1153,9.8671,10.9476
2026-07-21T16:51:12.553,50.1153,9.7692,10.9672
2026-07-21T16:51:12.566,50.1229,9.6713,10.9672
2026-07-21T16:51:12.570,50.1543,9.8084,10.8889
2026-07-21T16:51:12.582,50.1563,9.7692,10.9084
2026-07-21T16:51:12.595,50.1634,9.7301,10.8693
2026-07-21T16:51:12.605,50.1693,9.7692,10.8301
2026-07-21T16:51:12.620,50.1941,9.7692,10.9084
2026-07-21T16:51:12.635,50.1941,9.7692,10.8105
2026-07-21T16:51:12.635,50.1941,9.7301,10.7518
2026-07-21T16:51:12.646,50.205,9.8867,10.8889
2026-07-21T16:51:12.652,50.2101,9.828,10.7714
2026-07-21T16:51:12.677,50.2414,9.7692,10.7126
2026-07-21T16:51:12.677,50.2414,9.8671,10.6735
2026-07-21T16:51:12.687,50.2414,9.7105,10.6147
2026-07-21T16:51:12.692,50.2521,9.7301,10.556
2026-07-21T16:51:12.713,50.2739,9.7692,10.5756
2026-07-21T16:51:12.713,50.2739,9.7105,10.6735
2026-07-21T16:51:12.724,50.2739,9.6909,10.6539
2026-07-21T16:51:12.733,50.2888,9.8476,10.5756
2026-07-21T16:51:12.755,50.3046,9.6517,10.5951
2026-07-21T16:51:12.755,50.3046,9.6909,10.5364
2026-07-21T16:51:12.768,50.3205,9.7497,10.4581
2026-07-21T16:51:12.774,50.3205,9.6713,10.5168
2026-07-21T16:51:12.787,50.3533,9.6322,10.4189
2026-07-21T16:51:12.787,50.3533,9.7105,10.4972
2026-07-21T16:51:12.803,50.3609,9.6322,10.4972
2026-07-21T16:51:12.819,50.3859,9.593,10.4385
2026-07-21T16:51:12.819,50.3859,9.7105,10.321
2026-07-21T16:51:12.843,50.3944,9.6322,10.3993
2026-07-21T16:51:12.843,50.3944,9.6126,10.3406
2026-07-21T16:51:12.856,50.4228,9.6909,10.3406
2026-07-21T16:51:12.866,50.4248,9.6713,10.3798
2026-07-21T16:51:12.877,50.4315,9.593,10.3014
2026-07-21T16:51:12.883,50.4523,9.6517,10.1252
2026-07-21T16:51:12.897,50.4615,9.5734,10.1448
2026-07-21T16:51:12.907,50.466,9.5538,10.1056
2026-07-21T16:51:12.914,50.4705,9.593,10.0273
2026-07-21T16:51:12.935,50.4975,9.6322,10.0273
2026-07-21T16:51:12.935,50.4975,9.5538,10.0077
2026-07-21T16:51:12.948,50.5058,9.593,9.9686
2026-07-21T16:51:12.957,50.5093,9.6909,10.0077
2026-07-21T16:51:12.976,50.5379,9.6126,10.0273
2026-07-21T16:51:12.976,50.5379,9.6126,10.0469
2026-07-21T16:51:12.988,50.5467,9.6909,10.1644
2026-07-21T16:51:12.992,50.5488,9.6909,10.0665
2026-07-21T16:51:13.014,50.5756,9.6126,10.1056
2026-07-21T16:51:13.016,50.5756,9.7497,10.0665
2026-07-21T16:51:13.031,50.5819,9.6517,10.0469
2026-07-21T16:51:13.040,50.6071,9.6517,9.9881
2026-07-21T16:51:13.040,50.6071,9.7888,10.0665
2026-07-21T16:51:13.058,50.6071,9.6517,10.2231
2026-07-21T16:51:13.064,50.6071,9.6909,10.1448
2026-07-21T16:51:13.085,50.6435,9.8671,10.1252
2026-07-21T16:51:13.085,50.6435,9.8084,10.2231
2026-07-21T16:51:13.090,50.6527,9.8084,10.2035
2026-07-21T16:51:13.109,50.6776,9.9455,10.2623
2026-07-21T16:51:13.117,50.6776,9.8671,10.3602
2026-07-21T16:51:13.126,50.682,9.8476,10.0077
2026-07-21T16:51:13.135,50.682,9.9846,10.2035
2026-07-21T16:51:13.149,50.7133,9.965,10.2427
2026-07-21T16:51:13.149,50.7133,9.8476,10.2819
2026-07-21T16:51:13.164,50.7133,9.9455,10.184
2026-07-21T16:51:13.180,50.747,10.0825,10.3602
2026-07-21T16:51:13.184,50.747,10.0434,10.3406
2026-07-21T16:51:13.196,50.7529,10.1021,10.3602
2026-07-21T16:51:13.196,50.7609,10.1217,10.4189
2026-07-21T16:51:13.227,50.7845,9.9846,10.3602
2026-07-21T16:51:13.227,50.7845,9.9846,10.4581
2026-07-21T16:51:13.235,50.7923,10.0238,10.4972
2026-07-21T16:51:13.243,50.8113,10.0434,10.4385
2026-07-21T16:51:13.243,50.8113,10.0434,10.4189
2026-07-21T16:51:13.267,50.8249,10.1804,10.3406
2026-07-21T16:51:13.275,50.8329,10.1021,10.3602
2026-07-21T16:51:13.290,50.8547,10.0825,10.2427
2026-07-21T16:51:13.294,50.8547,10.1804,10.2231
2026-07-21T16:51:13.307,50.8613,10.0825,10.3406
2026-07-21T16:51:13.315,50.8663,10.1021,10.3993
2026-07-21T16:51:13.335,50.892,10.2196,10.3798
2026-07-21T16:51:13.335,50.8953,10.2,10.3602
2026-07-21T16:51:13.344,50.8998,10.1021,10.3993
2026-07-21T16:51:13.356,50.9201,10.1608,10.2819
2026-07-21T16:51:13.369,50.9306,10.0042,10.2623
2026-07-21T16:51:13.378,50.935,9.9846,10.2623
2026-07-21T16:51:13.387,50.9396,10.1413,10.1644
2026-07-21T16:51:13.398,50.9631,10.1021,10.2231
2026-07-21T16:51:13.403,50.9651,10.0434,10.2231
2026-07-21T16:51:13.417,50.9694,10.1021,10.2623
2026-07-21T16:51:13.422,50.993,10.1021,10.3014
2026-07-21T16:51:13.436,50.9984,10.0825,10.2819
2026-07-21T16:51:13.447,50.9984,10.0629,10.2623
2026-07-21T16:51:13.455,50.9984,10.0434,10.3406
2026-07-21T16:51:13.466,51.0303,9.9455,10.3406
2026-07-21T16:51:13.479,51.0338,9.9455,10.2819
2026-07-21T16:51:13.481,51.0338,10.0629,10.2623
2026-07-21T16:51:13.496,51.068,9.8671,10.2427
2026-07-21T16:51:13.496,51.068,9.828,10.086
2026-07-21T16:51:13.515,51.0752,9.9063,10.0077
2026-07-21T16:51:13.522,51.0954,9.7497,10.0469
2026-07-21T16:51:13.542,51.107,9.8084,9.949
2026-07-21T16:51:13.550,51.107,9.9259,9.949
2026-07-21T16:51:13.558,51.1159,9.8084,10.0469
2026-07-21T16:51:13.558,51.1159,9.7497,9.9881
2026-07-21T16:51:13.578,51.1455,9.8671,9.9881
2026-07-21T16:51:13.578,51.1543,9.8084,10.0469
2026-07-21T16:51:13.598,51.1563,9.7105,9.9881
2026-07-21T16:51:13.605,51.1857,9.8476,9.8707
2026-07-21T16:51:13.612,51.1857,9.7888,9.9881
2026-07-21T16:51:13.626,51.1857,9.8084,9.9098
2026-07-21T16:51:13.636,51.2037,9.9455,9.8902
2026-07-21T16:51:13.639,51.2077,9.7888,9.9686
2026-07-21T16:51:13.657,51.2332,9.7692,9.8707
2026-07-21T16:51:13.660,51.2332,9.8476,9.8707
2026-07-21T16:51:13.668,51.2387,9.8671,9.8902
2026-07-21T16:51:13.692,51.2387,9.7692,9.8707
2026-07-21T16:51:13.700,51.2645,9.828,9.8511
2026-07-21T16:51:13.700,51.2645,9.9063,9.8707
2026-07-21T16:51:13.716,51.2752,9.7105,9.7336
2026-07-21T16:51:13.721,51.2815,9.6909,9.6749
2026-07-21T16:51:13.747,51.3065,9.6713,9.6357
2026-07-21T16:51:13.747,51.3121,9.6126,9.6749
2026-07-21T16:51:13.758,51.3171,9.5734,9.5182
2026-07-21T16:51:13.764,51.3171,9.7105,9.5965
2026-07-21T16:51:13.780,51.3435,9.4755,9.6749
2026-07-21T16:51:13.780,51.3435,9.4755,9.5965
2026-07-21T16:51:13.794,51.3593,9.6517,9.5965
2026-07-21T16:51:13.806,51.3616,9.4951,9.6553
2026-07-21T16:51:13.817,51.3788,9.4755,9.5769
2026-07-21T16:51:13.826,51.3924,9.6909,9.6553
2026-07-21T16:51:13.836,51.3965,9.593,9.7532
2026-07-21T16:51:13.844,51.4011,9.5734,9.6749
2026-07-21T16:51:13.858,51.4231,9.6517,9.6161
2026-07-21T16:51:13.861,51.4231,9.6517,9.6944
2026-07-21T16:51:13.879,51.4377,9.7105,9.5574
2026-07-21T16:51:13.884,51.4377,9.7497,9.6749
2026-07-21T16:51:13.906,51.4694,9.8084,9.714
2026-07-21T16:51:13.906,51.4694,9.7105,9.7923
2026-07-21T16:51:13.918,51.4767,9.7692,9.6749
2026-07-21T16:51:13.920,51.4767,9.7497,9.7336
2026-07-21T16:51:13.936,51.5062,9.6909,9.6161
2026-07-21T16:51:13.936,51.5062,9.7497,9.5378
2026-07-21T16:51:13.959,51.5167,9.8476,9.6553
2026-07-21T16:51:13.968,51.5378,9.7888,9.6749
2026-07-21T16:51:13.975,51.5378,9.8084,9.6161
2026-07-21T16:51:13.989,51.5482,9.9063,9.7728
2026-07-21T16:51:13.994,51.5502,9.7301,9.7923
2026-07-21T16:51:14.007,51.5638,9.6322,9.7532
2026-07-21T16:51:14.015,51.5638,9.7888,9.7728
2026-07-21T16:51:14.033,51.5857,9.5538,9.7532
2026-07-21T16:51:14.037,51.5857,9.5538,9.6553
2026-07-21T16:51:14.046,51.6136,9.7105,9.6161
2026-07-21T16:51:14.046,51.6176,9.6322,9.6749
2026-07-21T16:51:14.065,51.6223,9.6126,9.6944
2026-07-21T16:51:14.080,51.6433,9.7692,9.7532
2026-07-21T16:51:14.084,51.6554,9.6517,9.8902
2026-07-21T16:51:14.096,51.6586,9.6713,9.8315
2026-07-21T16:51:14.105,51.6586,9.7497,9.7728
2026-07-21T16:51:14.120,51.6903,9.6713,9.7923
2026-07-21T16:51:14.126,51.6903,9.593,9.7532
2026-07-21T16:51:14.126,51.6903,9.6713,9.714
2026-07-21T16:51:14.141,51.6999,9.6909,9.7532
2026-07-21T16:51:14.163,51.7246,9.6909,9.714
2026-07-21T16:51:14.163,51.7246,9.7692,9.6357
2026-07-21T16:51:14.173,51.7246,9.7301,9.6357
2026-07-21T16:51:14.186,51.736,9.593,9.6944
2026-07-21T16:51:14.194,51.7577,9.6322,9.6553
2026-07-21T16:51:14.207,51.7619,9.6713,9.6553
2026-07-21T16:51:14.216,51.769,9.593,9.6749
2026-07-21T16:51:14.228,51.7917,9.6517,9.6357
2026-07-21T16:51:14.237,51.7917,9.7301,9.6357
2026-07-21T16:51:14.244,51.7985,9.6517,9.5574
2026-07-21T16:51:14.251,51.8227,9.6517,9.6749
2026-07-21T16:51:14.267,51.8227,9.828,9.6553
2026-07-21T16:51:14.274,51.8322,9.7301,9.7336
2026-07-21T16:51:14.285,51.8543,9.5538,9.6553
2026-07-21T16:51:14.299,51.8606,9.7497,9.6749
2026-07-21T16:51:14.305,51.8631,9.6713,9.6161
2026-07-21T16:51:14.315,51.8631,9.6517,9.479
2026-07-21T16:51:14.327,51.8946,9.7497,9.3811
2026-07-21T16:51:14.337,51.8956,9.7497,9.4399
2026-07-21T16:51:14.346,51.9016,9.6713,9.479
2026-07-21T16:51:14.354,51.9016,9.7888,9.479
2026-07-21T16:51:14.361,51.927,9.7497,9.6161
2026-07-21T16:51:14.361,51.927,9.8084,9.6161
2026-07-21T16:51:14.384,51.9366,9.9259,9.6749
2026-07-21T16:51:14.393,51.9589,9.8867,9.8511
2026-07-21T16:51:14.393,51.9589,9.7301,9.7336
2026-07-21T16:51:14.416,51.9659,9.7301,9.6161
2026-07-21T16:51:14.440,51.989,9.8084,9.6357
2026-07-21T16:51:14.440,51.989,9.6322,9.6357
2026-07-21T16:51:14.441,51.989,9.7301,9.5378
2026-07-21T16:51:14.462,52.0237,9.9259,9.5182
2026-07-21T16:51:14.471,52.0237,9.8867,9.5769
2026-07-21T16:51:14.471,52.0308,9.8084,9.6357
2026-07-21T16:51:14.471,52.0373,10.0238,9.6161
2026-07-21T16:51:14.494,52.0547,9.9063,9.6944
2026-07-21T16:51:14.506,52.0624,9.828,9.714
2026-07-21T16:51:14.513,52.0678,9.9455,9.6944
2026-07-21T16:51:14.529,52.0995,9.9063,9.7728
2026-07-21T16:51:14.537,52.1014,9.8671,9.7336
2026-07-21T16:51:14.545,52.1092,10.0238,9.6749
2026-07-21T16:51:14.550,52.1152,9.8867,9.6944
2026-07-21T16:51:14.577,52.1475,9.8476,9.5378
2026-07-21T16:51:14.577,52.1475,9.9455,9.4203
2026-07-21T16:51:14.584,52.1549,9.7692,9.4007
2026-07-21T16:51:14.598,52.1619,9.7692,9.4007
2026-07-21T16:51:14.606,52.1684,9.9063,9.3028
2026-07-21T16:51:14.619,52.1935,9.8476,9.4203
2026-07-21T16:51:14.626,52.1935,9.8671,9.4203
2026-07-21T16:51:14.639,52.1935,9.9259,9.4399
2026-07-21T16:51:14.651,52.1935,9.965,9.5378
2026-07-21T16:51:14.662,52.2315,9.9063,9.4203
2026-07-21T16:51:14.662,52.2315,10.0042,9.5182
2026-07-21T16:51:14.676,52.2373,9.965,9.5378
2026-07-21T16:51:14.676,52.2413,9.8867,9.5965
2026-07-21T16:51:14.708,52.2594,9.8671,9.5574
2026-07-21T16:51:14.708,52.2594,9.965,9.4986
2026-07-21T16:51:14.714,52.2728,9.8476,9.4986
2026-07-21T16:51:14.728,52.2728,9.8476,9.4203
2026-07-21T16:51:14.742,52.3072,9.965,9.3811
2026-07-21T16:51:14.742,52.3072,9.9063,9.342
2026-07-21T16:51:14.755,52.311,9.8476,9.3028
2026-07-21T16:51:14.755,52.315,9.965,9.2832
2026-07-21T16:51:14.787,52.3379,9.828,9.3616
2026-07-21T16:51:14.787,52.3379,9.8084,9.3028
2026-07-21T16:51:14.797,52.3554,10.0042,9.3028
2026-07-21T16:51:14.818,52.3857,9.9063,9.4203
2026-07-21T16:51:14.818,52.3857,9.9455,9.342
2026-07-21T16:51:14.820,52.3897,10.0434,9.342
2026-07-21T16:51:14.834,52.3897,9.965,9.4007
2026-07-21T16:51:14.849,52.4144,9.8671,9.3616
2026-07-21T16:51:14.865,52.43,9.8867,9.2832
2026-07-21T16:51:14.868,52.43,9.7888,9.2832
2026-07-21T16:51:14.881,52.4384,9.8084,9.2637
2026-07-21T16:51:14.892,52.463,9.9063,9.3224
2026-07-21T16:51:14.897,52.4703,9.9259,9.3224
2026-07-21T16:51:14.897,52.4721,9.8867,9.3224
2026-07-21T16:51:14.912,52.4772,9.9063,9.3028
2026-07-21T16:51:14.921,52.4772,9.9063,9.2637
2026-07-21T16:51:14.945,52.5087,9.7888,9.2637
2026-07-21T16:51:14.945,52.5087,9.8084,9.342
2026-07-21T16:51:14.960,52.5186,9.8867,9.342
2026-07-21T16:51:14.960,52.5246,9.8476,9.3028
2026-07-21T16:51:14.977,52.5491,9.828,9.3224
2026-07-21T16:51:14.977,52.5491,9.9063,9.342
2026-07-21T16:51:15.001,52.5556,9.9259,9.4399
2026-07-21T16:51:15.007,52.5556,9.8476,9.4007
2026-07-21T16:51:15.023,52.5865,10.0238,9.5182
2026-07-21T16:51:15.023,52.5865,9.9259,9.5182
2026-07-21T16:51:15.038,52.5934,9.965,9.479
2026-07-21T16:51:15.038,52.5976,10.1413,9.4399
2026-07-21T16:51:15.060,52.6255,10.0238,9.4007
2026-07-21T16:51:15.060,52.6255,9.9259,9.342
2026-07-21T16:51:15.076,52.6342,10.0434,9.4399
2026-07-21T16:51:15.090,52.6601,10.0434,9.5574
2026-07-21T16:51:15.104,52.6601,10.0825,9.5182
2026-07-21T16:51:15.105,52.6601,10.2196,9.5769
2026-07-21T16:51:15.117,52.6659,10.2588,9.6357
2026-07-21T16:51:15.138,52.6994,10.1217,9.5965
2026-07-21T16:51:15.138,52.6994,10.1608,9.4986
2026-07-21T16:51:15.143,52.7068,10.1021,9.5378
2026-07-21T16:51:15.148,52.7152,10.0629,9.4595
2026-07-21T16:51:15.164,52.7394,10.1021,9.4595
2026-07-21T16:51:15.180,52.7441,10.2392,9.5965
2026-07-21T16:51:15.182,52.7461,10.2588,9.5769
2026-07-21T16:51:15.198,52.7503,10.2196,9.6749
2026-07-21T16:51:15.206,52.7757,10.3175,9.7532
2026-07-21T16:51:15.211,52.7757,10.1804,9.8707
2026-07-21T16:51:15.229,52.7757,10.2196,9.8511
2026-07-21T16:51:15.233,52.7757,10.3567,9.8707
2026-07-21T16:51:15.249,52.8132,10.2979,9.8902
2026-07-21T16:51:15.249,52.8132,10.3958,9.8315
2026-07-21T16:51:15.258,52.8172,10.4937,9.714
2026-07-21T16:51:15.282,52.8406,10.4741,9.7728
2026-07-21T16:51:15.289,52.8406,10.435,9.6944
2026-07-21T16:51:15.300,52.8406,10.5329,9.6944
2026-07-21T16:51:15.305,52.8554,10.4546,9.714
2026-07-21T16:51:15.323,52.8729,10.4546,9.6944
2026-07-21T16:51:15.323,52.8855,10.5525,9.714
2026-07-21T16:51:15.338,52.8914,10.4546,9.7532
2026-07-21T16:51:15.355,52.921,10.4546,9.6161
2026-07-21T16:51:15.355,52.921,10.5329,9.6161
2026-07-21T16:51:15.355,52.9274,10.4546,9.7532
2026-07-21T16:51:15.374,52.9324,10.435,9.6944
2026-07-21T16:51:15.400,52.9642,10.5133,9.714
2026-07-21T16:51:15.400,52.9642,10.6895,9.7336
2026-07-21T16:51:15.410,52.971,10.6112,9.714
2026-07-21T16:51:15.415,52.9735,10.6308,9.6749
2026-07-21T16:51:15.438,52.9959,10.5916,9.6553
2026-07-21T16:51:15.438,52.9959,10.4937,9.6553
2026-07-21T16:51:15.447,53.0073,10.4741,9.5965
2026-07-21T16:51:15.456,53.0115,10.6112,9.6553
2026-07-21T16:51:15.478,53.0431,10.5525,9.6161
2026-07-21T16:51:15.478,53.0431,10.6699,9.5378
2026-07-21T16:51:15.478,53.0431,10.7091,9.4986
2026-07-21T16:51:15.494,53.0431,10.6504,9.6161
2026-07-21T16:51:15.510,53.0749,10.5133,9.479
2026-07-21T16:51:15.512,53.0749,10.6699,9.4986
2026-07-21T16:51:15.526,53.0844,10.6308,9.479
2026-07-21T16:51:15.538,53.1085,10.6895,9.4986
2026-07-21T16:51:15.557,53.1085,10.8266,9.479
2026-07-21T16:51:15.557,53.1085,10.7287,9.5378
2026-07-21T16:51:15.567,53.1085,10.6699,9.5182
2026-07-21T16:51:15.591,53.1471,10.7483,9.4595
2026-07-21T16:51:15.591,53.1509,10.6308,9.4986
2026-07-21T16:51:15.591,53.1558,10.572,9.4399
2026-07-21T16:51:15.605,53.1856,10.6699,9.4007
2026-07-21T16:51:15.624,53.1926,10.6895,9.4986
2026-07-21T16:51:15.629,53.1926,10.6112,9.5378
2026-07-21T16:51:15.638,53.1988,10.6895,9.4986
2026-07-21T16:51:15.648,53.2056,10.6504,9.4986
2026-07-21T16:51:15.668,53.2333,10.5525,9.5378
2026-07-21T16:51:15.668,53.2333,10.4741,9.3811
2026-07-21T16:51:15.681,53.2419,10.6504,9.4007
2026-07-21T16:51:15.688,53.2452,10.5133,9.3811
2026-07-21T16:51:15.700,53.275,10.5329,9.2637
2026-07-21T16:51:15.700,53.275,10.572,9.3028
2026-07-21T16:51:15.716,53.275,10.5329,9.2832
2026-07-21T16:51:15.728,53.2807,10.5133,9.2245
2026-07-21T16:51:15.738,53.3104,10.7287,9.2441
2026-07-21T16:51:15.747,53.3135,10.6308,9.3028
2026-07-21T16:51:15.757,53.3135,10.6895,9.2832
2026-07-21T16:51:15.763,53.3135,10.7483,9.3028
2026-07-21T16:51:15.780,53.3452,10.5916,9.3811
2026-07-21T16:51:15.780,53.3452,10.5329,9.3224
2026-07-21T16:51:15.796,53.36,10.7287,9.2637
2026-07-21T16:51:15.796,53.364,10.6308,9.3028
2026-07-21T16:51:15.828,53.392,10.6308,9.2049
2026-07-21T16:51:15.828,53.393,10.6504,9.2049
2026-07-21T16:51:15.841,53.3969,10.6112,9.2637
2026-07-21T16:51:15.846,53.3969,10.4546,9.1266
2026-07-21T16:51:15.861,53.4254,10.572,9.1853
2026-07-21T16:51:15.861,53.4254,10.5133,9.1266
2026-07-21T16:51:15.879,53.4341,10.4741,9.1266
2026-07-21T16:51:15.888,53.439,10.6699,9.2245
2026-07-21T16:51:15.908,53.4659,10.6504,9.2245
2026-07-21T16:51:15.908,53.4659,10.4741,9.1462
2026-07-21T16:51:15.916,53.475,10.4741,9.1462
2026-07-21T16:51:15.925,53.5024,10.5329,9.1462
2026-07-21T16:51:15.938,53.5024,10.4546,9.0287
2026-07-21T16:51:15.948,53.5024,10.5329,9.0091
2026-07-21T16:51:15.957,53.5024,10.6504,9.0874
2026-07-21T16:51:15.969,53.5497,10.6504,9.107
2026-07-21T16:51:15.985,53.5497,10.5916,9.0874
2026-07-21T16:51:15.985,53.5497,10.6504,9.1266
2026-07-21T16:51:15.985,53.5563,10.5525,9.2049
2026-07-21T16:51:16.001,53.5653,10.4741,9.1853
2026-07-21T16:51:16.025,53.5936,10.7287,9.1658
2026-07-21T16:51:16.025,53.5936,10.6308,9.2441
2026-07-21T16:51:16.039,53.5991,10.5916,9.2245
2026-07-21T16:51:16.048,53.6047,10.6699,9.2245
2026-07-21T16:51:16.057,53.6309,10.572,9.2441
2026-07-21T16:51:16.064,53.6347,10.5133,9.1266
2026-07-21T16:51:16.076,53.6347,10.5916,9.0483
2026-07-21T16:51:16.087,53.6453,10.5525,9.0678
2026-07-21T16:51:16.097,53.6712,10.4741,8.9308
2026-07-21T16:51:16.111,53.6763,10.6112,8.9504
2026-07-21T16:51:16.117,53.6763,10.5525,8.9699
2026-07-21T16:51:16.128,53.691,10.5133,8.9504
2026-07-21T16:51:16.143,53.7077,10.6112,8.9308
2026-07-21T16:51:16.143,53.7206,10.5133,8.9895
2026-07-21T16:51:16.159,53.7228,10.435,8.9112
2026-07-21T16:51:16.167,53.7269,10.4937,8.8916
2026-07-21T16:51:16.190,53.7583,10.4937,8.9504
2026-07-21T16:51:16.190,53.7583,10.4546,8.9112
2026-07-21T16:51:16.190,53.7622,10.4741,8.9699
2026-07-21T16:51:16.209,53.7622,10.6112,8.9895
2026-07-21T16:51:16.221,53.7853,10.4546,9.0678
2026-07-21T16:51:16.236,53.8009,10.4741,8.8916
2026-07-21T16:51:16.241,53.8029,10.6112,8.9308
2026-07-21T16:51:16.245,53.8052,10.4546,8.9699
2026-07-21T16:51:16.252,53.8355,10.4546,8.8133
2026-07-21T16:51:16.268,53.838,10.5525,8.8133
2026-07-21T16:51:16.268,53.8444,10.4546,8.8133
2026-07-21T16:51:16.288,53.8484,10.4154,8.735
2026-07-21T16:51:16.299,53.878,10.572,8.7741
2026-07-21T16:51:16.315,53.88,10.4741,8.8133
2026-07-21T16:51:16.315,53.88,10.4741,8.8525
2026-07-21T16:51:16.331,53.88,10.6112,8.9112
2026-07-21T16:51:16.331,53.88,10.6112,8.8329
2026-07-21T16:51:16.344,53.9115,10.4741,8.872
2026-07-21T16:51:16.349,53.9115,10.5916,8.8525
2026-07-21T16:51:16.362,53.9271,10.4741,8.8525
2026-07-21T16:51:16.379,53.9586,10.4546,8.7546
2026-07-21T16:51:16.394,53.9622,10.5525,8.7741
2026-07-21T16:51:16.394,53.9622,10.5525,8.7937
2026-07-21T16:51:16.411,53.9664,10.4154,8.7741
2026-07-21T16:51:16.422,53.9942,10.4741,8.7546
2026-07-21T16:51:16.427,53.9942,10.435,8.7741
2026-07-21T16:51:16.427,53.9942,10.3958,8.7741
2026-07-21T16:51:16.449,54.0072,10.4546,8.7546
2026-07-21T16:51:16.463,54.037,10.4937,8.7546
2026-07-21T16:51:16.472,54.037,10.435,8.7154
2026-07-21T16:51:16.477,54.0452,10.4546,8.8133
2026-07-21T16:51:16.490,54.0496,10.5133,8.7546
2026-07-21T16:51:16.504,54.0798,10.3958,8.7546
2026-07-21T16:51:16.504,54.0818,10.2783,8.735
2026-07-21T16:51:16.519,54.0848,10.4937,8.7154
2026-07-21T16:51:16.519,54.0894,10.2588,8.7741
2026-07-21T16:51:16.539,54.1222,10.3371,8.735
2026-07-21T16:51:16.551,54.1251,10.4154,8.8133
2026-07-21T16:51:16.551,54.1251,10.3958,8.8525
2026-07-21T16:51:16.572,54.1328,10.2588,8.7546
2026-07-21T16:51:16.580,54.1328,10.4154,8.7154
2026-07-21T16:51:16.590,54.1645,10.2588,8.7546
2026-07-21T16:51:16.599,54.1645,10.2392,8.5979
2026-07-21T16:51:16.608,54.1794,10.3958,8.5979
2026-07-21T16:51:16.615,54.1816,10.2783,8.6175
2026-07-21T16:51:16.647,54.2143,10.3175,8.5392
2026-07-21T16:51:16.647,54.2143,10.3567,8.5783
2026-07-21T16:51:16.647,54.2143,10.2196,8.6762
2026-07-21T16:51:16.659,54.2143,10.2196,8.5588
2026-07-21T16:51:16.664,54.2581,10.2783,8.5196
2026-07-21T16:51:16.693,54.2581,10.1804,8.5783
2026-07-21T16:51:16.693,54.2581,10.1804,8.5392
2026-07-21T16:51:16.697,54.2681,10.2,8.5
2026-07-21T16:51:16.697,54.2724,10.2196,8.4804
2026-07-21T16:51:16.720,54.308,10.1413,8.5
2026-07-21T16:51:16.728,54.308,10.1804,8.4804
2026-07-21T16:51:16.740,54.308,10.2979,8.5196
2026-07-21T16:51:16.750,54.3155,10.2196,8.4804
2026-07-21T16:51:16.760,54.3228,10.1608,8.5196
2026-07-21T16:51:16.768,54.3551,10.2196,8.5
2026-07-21T16:51:16.773,54.3571,10.1217,8.5588
2026-07-21T16:51:16.790,54.3571,10.1021,8.5
2026-07-21T16:51:16.798,54.3695,10.2588,8.5392
2026-07-21T16:51:16.805,54.372,10.1804,8.5196
2026-07-21T16:51:16.818,54.4018,10.1804,8.4413
2026-07-21T16:51:16.829,54.4018,10.2392,8.4804
2026-07-21T16:51:16.837,54.4018,10.1804,8.4413
2026-07-21T16:51:16.847,54.4166,10.0434,8.4804
2026-07-21T16:51:16.858,54.4166,10.1608,8.4804
2026-07-21T16:51:16.867,54.4546,10.0825,8.5979
2026-07-21T16:51:16.883,54.4557,10.0825,8.5588
2026-07-21T16:51:16.884,54.4615,10.2588,8.4217
2026-07-21T16:51:16.899,54.4645,10.1608,8.5783
2026-07-21T16:51:16.899,54.4645,10.0629,8.4217
2026-07-21T16:51:16.933,54.4972,10.1608,8.4608
2026-07-21T16:51:16.933,54.4972,10.0825,8.5588
2026-07-21T16:51:16.940,54.5119,10.0825,8.5
2026-07-21T16:51:16.947,54.5155,10.2,8.5783
2026-07-21T16:51:16.956,54.5214,10.1804,8.6762
2026-07-21T16:51:16.980,54.5537,10.1608,8.6567
2026-07-21T16:51:16.980,54.5573,10.2588,8.6567
2026-07-21T16:51:16.994,54.5611,10.2588,8.6567
2026-07-21T16:51:16.998,54.5611,10.1804,8.7937
2026-07-21T16:51:17.010,54.5906,10.3175,8.7546
2026-07-21T16:51:17.030,54.5906,10.4546,8.8329
2026-07-21T16:51:17.030,54.5906,10.3762,8.8525
2026-07-21T16:51:17.040,54.6085,10.3762,8.7741
2026-07-21T16:51:17.044,54.6085,10.4154,8.8525
