wall_time,elapsed_s,F1_N,F2_N
2026-07-22T17:32:18.040,0.0038,3.5382,6.111
2026-07-22T17:32:18.040,0.0058,3.4991,6.1305
2026-07-22T17:32:18.051,0.0638,3.4991,6.1305
2026-07-22T17:32:18.067,0.0638,3.5187,6.111
2026-07-22T17:32:18.083,0.0638,3.5774,6.1305
2026-07-22T17:32:18.083,0.0638,3.5774,6.1501
2026-07-22T17:32:18.099,0.0795,3.4795,6.1305
2026-07-22T17:32:18.130,0.0795,3.5187,6.1697
2026-07-22T17:32:18.130,0.0795,3.5774,6.0914
2026-07-22T17:32:18.131,0.0795,3.4795,6.111
2026-07-22T17:32:18.131,0.0954,3.5578,6.0914
2026-07-22T17:32:18.146,0.1023,3.4991,6.0914
2026-07-22T17:32:18.154,0.1023,3.4795,6.111
2026-07-22T17:32:18.158,0.1666,3.5187,6.1305
2026-07-22T17:32:18.177,0.1666,3.4795,6.0914
2026-07-22T17:32:18.177,0.1751,3.5187,6.111
2026-07-22T17:32:18.185,0.1751,3.5187,6.0914
2026-07-22T17:32:18.208,0.1887,3.4991,6.0718
2026-07-22T17:32:18.224,0.1928,3.5187,6.111
2026-07-22T17:32:18.231,0.1948,3.4403,6.2089
2026-07-22T17:32:18.231,0.1948,3.4599,6.0522
2026-07-22T17:32:18.241,0.205,3.4991,6.0718
2026-07-22T17:32:18.270,0.2543,3.4403,6.0718
2026-07-22T17:32:18.270,0.2543,3.4795,6.1305
2026-07-22T17:32:18.288,0.2543,3.4012,6.0131
2026-07-22T17:32:18.288,0.2703,3.3816,6.0522
2026-07-22T17:32:18.288,0.2703,3.4012,6.0131
2026-07-22T17:32:18.304,0.2703,3.362,6.0522
2026-07-22T17:32:18.323,0.286,3.4208,6.0131
2026-07-22T17:32:18.323,0.286,3.4403,5.9935
2026-07-22T17:32:18.335,0.286,3.3816,6.0718
2026-07-22T17:32:18.338,0.304,3.4795,6.0718
2026-07-22T17:32:18.367,0.3491,3.3816,6.0522
2026-07-22T17:32:18.367,0.3491,3.4795,6.0522
2026-07-22T17:32:18.367,0.3491,3.4991,6.0131
2026-07-22T17:32:18.383,0.3652,3.4012,6.0522
2026-07-22T17:32:18.383,0.3708,3.4991,6.0131
2026-07-22T17:32:18.399,0.3728,3.4012,5.9935
2026-07-22T17:32:18.415,0.3728,3.4403,6.0718
2026-07-22T17:32:18.415,0.3851,3.4795,6.0718
2026-07-22T17:32:18.431,0.39,3.4403,6.111
2026-07-22T17:32:18.471,0.4555,3.4795,6.0522
2026-07-22T17:32:18.471,0.4555,3.4012,6.0718
2026-07-22T17:32:18.471,0.4555,3.4403,6.0914
2026-07-22T17:32:18.471,0.4617,3.4795,6.0914
2026-07-22T17:32:18.478,0.4617,3.4599,6.0718
2026-07-22T17:32:18.510,0.4676,3.4012,6.0914
2026-07-22T17:32:18.519,0.4778,3.4012,6.0326
2026-07-22T17:32:18.519,0.4778,3.3816,6.0131
2026-07-22T17:32:18.519,0.4778,3.4599,6.0326
2026-07-22T17:32:18.541,0.5294,3.4208,6.0718
2026-07-22T17:32:18.542,0.5294,3.4795,6.0718
2026-07-22T17:32:18.560,0.5381,3.4599,6.0326
2026-07-22T17:32:18.568,0.5406,3.362,6.0914
2026-07-22T17:32:18.576,0.5406,3.4991,5.9935
2026-07-22T17:32:18.584,0.5566,3.4208,6.0131
2026-07-22T17:32:18.596,0.5652,3.4795,6.0718
2026-07-22T17:32:18.606,0.5736,3.4795,6.0718
2026-07-22T17:32:18.606,0.5814,3.4599,6.1893
2026-07-22T17:32:18.643,0.644,3.4991,6.1305
2026-07-22T17:32:18.643,0.644,3.362,6.0718
2026-07-22T17:32:18.643,0.648,3.4795,6.1305
2026-07-22T17:32:18.643,0.648,3.4012,6.0718
2026-07-22T17:32:18.658,0.6522,3.362,6.111
2026-07-22T17:32:18.669,0.6522,3.4991,6.0718
2026-07-22T17:32:18.692,0.6682,3.3816,6.111
2026-07-22T17:32:18.700,0.6682,3.4403,6.111
2026-07-22T17:32:18.700,0.6721,3.362,6.1697
2026-07-22T17:32:18.717,0.6769,3.4208,6.0718
2026-07-22T17:32:18.723,0.6769,3.3816,6.111
2026-07-22T17:32:18.723,0.7405,3.4795,6.1305
2026-07-22T17:32:18.758,0.7477,3.4012,6.2089
2026-07-22T17:32:18.758,0.7477,3.4795,6.111
2026-07-22T17:32:18.758,0.7477,3.3816,6.0914
2026-07-22T17:32:18.777,0.7596,3.4012,6.111
2026-07-22T17:32:18.797,0.7725,3.4403,6.1305
2026-07-22T17:32:18.797,0.7725,3.3424,6.0718
2026-07-22T17:32:18.801,0.7725,3.4795,6.111
2026-07-22T17:32:18.805,0.7904,3.3229,6.1501
2026-07-22T17:32:18.821,0.7977,3.4795,6.0914
2026-07-22T17:32:18.843,0.8459,3.4403,6.0522
2026-07-22T17:32:18.858,0.8648,3.362,6.0522
2026-07-22T17:32:18.858,0.8658,3.4012,6.1305
2026-07-22T17:32:18.858,0.8669,3.4599,6.111
2026-07-22T17:32:18.869,0.8713,3.4403,6.1305
2026-07-22T17:32:18.876,0.8846,3.4599,6.0914
2026-07-22T17:32:18.888,0.8846,3.3816,6.111
2026-07-22T17:32:18.901,0.8942,3.3816,6.0914
2026-07-22T17:32:18.901,0.903,3.3424,6.0326
2026-07-22T17:32:18.919,0.9114,3.3816,6.0718
2026-07-22T17:32:18.931,0.9157,3.4208,6.0522
2026-07-22T17:32:18.944,0.9654,3.3424,6.0131
2026-07-22T17:32:18.959,0.9654,3.4012,6.111
2026-07-22T17:32:18.959,0.9654,3.3424,6.111
2026-07-22T17:32:18.959,0.9811,3.3424,6.0718
2026-07-22T17:32:18.991,0.9811,3.3816,6.1305
2026-07-22T17:32:18.991,0.9811,3.3229,6.1501
2026-07-22T17:32:19.011,0.9984,3.4208,6.1305
2026-07-22T17:32:19.011,0.9984,3.4208,6.0522
2026-07-22T17:32:19.032,0.9984,3.4012,6.1305
2026-07-22T17:32:19.032,0.9984,3.4599,6.111
2026-07-22T17:32:19.044,1.0162,3.4208,6.0914
2026-07-22T17:32:19.047,1.0324,3.5187,6.0914
2026-07-22T17:32:19.072,1.0754,3.4991,6.1305
2026-07-22T17:32:19.082,1.0754,3.4599,6.1305
2026-07-22T17:32:19.082,1.0754,3.4991,6.1305
2026-07-22T17:32:19.094,1.0912,3.4795,6.0914
2026-07-22T17:32:19.106,1.0912,3.4991,6.1501
2026-07-22T17:32:19.110,1.0912,3.5382,6.1305
2026-07-22T17:32:19.127,1.0912,3.4012,6.0718
2026-07-22T17:32:19.127,1.0912,3.5187,6.1697
2026-07-22T17:32:19.145,1.111,3.4599,6.0914
2026-07-22T17:32:19.145,1.111,3.4599,6.1305
2026-07-22T17:32:19.163,1.1168,3.4208,6.111
2026-07-22T17:32:19.188,1.1546,3.3816,6.0914
2026-07-22T17:32:19.188,1.1546,3.5382,6.111
2026-07-22T17:32:19.204,1.1546,3.4795,6.0522
2026-07-22T17:32:19.204,1.1703,3.4403,6.111
2026-07-22T17:32:19.220,1.1703,3.5187,6.0326
2026-07-22T17:32:19.220,1.1703,3.4012,6.0522
2026-07-22T17:32:19.236,1.1703,3.4403,6.1305
2026-07-22T17:32:19.240,1.1862,3.3816,5.9739
2026-07-22T17:32:19.252,1.1862,3.3816,6.0522
2026-07-22T17:32:19.283,1.2487,3.3816,6.0522
2026-07-22T17:32:19.283,1.2646,3.3424,6.0522
2026-07-22T17:32:19.283,1.2646,3.4208,5.9935
2026-07-22T17:32:19.299,1.2726,3.4012,5.9739
2026-07-22T17:32:19.315,1.2757,3.2837,6.0326
2026-07-22T17:32:19.315,1.2804,3.3424,5.9739
2026-07-22T17:32:19.315,1.2804,3.3033,5.9543
2026-07-22T17:32:19.315,1.3335,3.3229,6.0522
2026-07-22T17:32:19.366,1.3335,3.362,5.9739
2026-07-22T17:32:19.366,1.3439,3.362,6.0131
2026-07-22T17:32:19.366,1.3439,3.3816,5.9935
2026-07-22T17:32:19.366,1.3439,3.5774,6.0131
2026-07-22T17:32:19.409,1.3598,3.3229,6.0718
2026-07-22T17:32:19.409,1.3598,3.362,5.9543
2026-07-22T17:32:19.409,1.3598,3.2837,5.9739
2026-07-22T17:32:19.409,1.3731,3.4208,6.0131
2026-07-22T17:32:19.409,1.3806,3.4012,5.9739
2026-07-22T17:32:19.447,1.4322,3.2641,5.9935
2026-07-22T17:32:19.447,1.4352,3.3816,6.0131
2026-07-22T17:32:19.447,1.4403,3.3424,5.9739
2026-07-22T17:32:19.488,1.452,3.3424,5.9935
2026-07-22T17:32:19.488,1.4533,3.3424,6.0326
2026-07-22T17:32:19.488,1.4568,3.2837,6.0522
2026-07-22T17:32:19.488,1.4601,3.4403,6.0326
2026-07-22T17:32:19.509,1.4601,3.3229,5.9935
2026-07-22T17:32:19.509,1.4696,3.4012,5.9739
2026-07-22T17:32:19.549,1.5222,3.3424,5.9935
2026-07-22T17:32:19.549,1.5222,3.2837,6.0326
2026-07-22T17:32:19.549,1.5222,3.3424,5.9935
2026-07-22T17:32:19.549,1.5324,3.3424,5.9739
2026-07-22T17:32:19.569,1.546,3.2641,5.9739
2026-07-22T17:32:19.569,1.547,3.3033,5.9543
2026-07-22T17:32:19.585,1.5574,3.2445,5.9347
2026-07-22T17:32:19.589,1.5662,3.3033,5.9739
2026-07-22T17:32:19.600,1.5742,3.3816,5.9739
2026-07-22T17:32:19.618,1.6195,3.3229,6.0522
2026-07-22T17:32:19.635,1.6308,3.3229,6.0326
2026-07-22T17:32:19.635,1.6308,3.2837,6.0326
2026-07-22T17:32:19.648,1.6472,3.3424,6.0522
2026-07-22T17:32:19.651,1.6508,3.3229,5.9935
2026-07-22T17:32:19.661,1.6508,3.3033,6.0131
2026-07-22T17:32:19.674,1.6616,3.3424,6.0326
2026-07-22T17:32:19.686,1.6707,3.3033,6.0914
2026-07-22T17:32:19.686,1.6707,3.3424,6.0718
2026-07-22T17:32:19.703,1.6781,3.3424,6.0326
2026-07-22T17:32:19.708,1.6935,3.2641,5.9739
2026-07-22T17:32:19.743,1.7579,3.3229,6.0326
2026-07-22T17:32:19.743,1.7579,3.2837,5.9935
2026-07-22T17:32:19.743,1.7579,3.3229,6.0131
2026-07-22T17:32:19.748,1.7722,3.3816,6.0522
2026-07-22T17:32:19.759,1.7887,3.2837,6.0326
2026-07-22T17:32:19.779,1.8043,3.362,6.0326
2026-07-22T17:32:19.779,1.8072,3.3229,6.0914
2026-07-22T17:32:19.790,1.828,3.362,5.9935
2026-07-22T17:32:19.799,1.8311,3.3229,6.0718
2026-07-22T17:32:19.807,1.8336,3.3229,6.0131
2026-07-22T17:32:19.822,1.8441,3.362,6.0326
2026-07-22T17:32:19.838,1.9086,3.3033,5.9739
2026-07-22T17:32:19.838,1.9113,3.225,5.9935
2026-07-22T17:32:19.854,1.9163,3.3033,6.0718
2026-07-22T17:32:19.860,1.9204,3.2837,5.9739
2026-07-22T17:32:19.886,1.9327,3.3424,6.0131
2026-07-22T17:32:19.886,1.9327,3.2641,5.9739
2026-07-22T17:32:19.886,1.9327,3.3033,6.0131
2026-07-22T17:32:19.901,1.9472,3.3229,5.9935
2026-07-22T17:32:19.917,1.9472,3.2837,5.9739
2026-07-22T17:32:19.917,1.9472,3.3033,6.0718
2026-07-22T17:32:19.936,1.9617,3.3033,5.9739
2026-07-22T17:32:19.936,1.9617,3.2641,6.0326
2026-07-22T17:32:19.960,1.9726,3.4012,6.0718
2026-07-22T17:32:19.973,1.9906,3.2837,6.0131
2026-07-22T17:32:19.973,1.9906,3.4012,6.0522
2026-07-22T17:32:19.973,1.9906,3.3229,5.9935
2026-07-22T17:32:19.995,2.0611,3.225,5.9935
2026-07-22T17:32:20.004,2.0777,3.3229,6.0522
2026-07-22T17:32:20.020,2.0777,3.2641,6.0522
2026-07-22T17:32:20.020,2.092,3.225,6.0326
2026-07-22T17:32:20.037,2.1006,3.3033,6.0131
2026-07-22T17:32:20.049,2.1124,3.2837,5.9935
2026-07-22T17:32:20.053,2.1256,3.3424,6.0131
2026-07-22T17:32:20.061,2.1393,3.225,5.9543
2026-07-22T17:32:20.076,2.1404,3.3033,6.0326
2026-07-22T17:32:20.076,2.1653,3.3033,5.9543
2026-07-22T17:32:20.090,2.1737,3.225,6.0131
2026-07-22T17:32:20.101,2.1794,3.3033,6.0326
2026-07-22T17:32:20.119,2.1956,3.225,6.0326
2026-07-22T17:32:20.119,2.1956,3.2445,6.1305
2026-07-22T17:32:20.133,2.2027,3.3033,6.0718
2026-07-22T17:32:20.150,2.2663,3.2641,6.0326
2026-07-22T17:32:20.175,2.2731,3.225,6.0522
2026-07-22T17:32:20.175,2.2731,3.2837,6.0522
2026-07-22T17:32:20.175,2.2731,3.2445,6.0326
2026-07-22T17:32:20.175,2.2821,3.362,6.0718
2026-07-22T17:32:20.190,2.2821,3.3033,6.0522
2026-07-22T17:32:20.205,2.2977,3.2837,6.0522
2026-07-22T17:32:20.206,2.3008,3.2641,6.0131
2026-07-22T17:32:20.229,2.3008,3.2641,6.0718
2026-07-22T17:32:20.229,2.3176,3.3033,6.0914
2026-07-22T17:32:20.241,2.3317,3.3229,6.1893
2026-07-22T17:32:20.254,2.3454,3.225,6.0914
2026-07-22T17:32:20.260,2.3533,3.2837,6.111
2026-07-22T17:32:20.269,2.3633,3.2837,6.111
2026-07-22T17:32:20.269,2.3633,3.2837,6.0522
2026-07-22T17:32:20.294,2.3633,3.3424,6.0914
2026-07-22T17:32:20.301,2.3633,3.225,6.0914
2026-07-22T17:32:20.320,2.3774,3.2445,6.0718
2026-07-22T17:32:20.320,2.3774,3.2445,6.0522
2026-07-22T17:32:20.331,2.3953,3.2445,6.0718
2026-07-22T17:32:20.331,2.3953,3.2445,6.111
2026-07-22T17:32:20.365,2.4615,3.2641,6.0718
2026-07-22T17:32:20.367,2.4615,3.3033,6.0914
2026-07-22T17:32:20.379,2.4685,3.2641,6.111
2026-07-22T17:32:20.379,2.4723,3.2445,6.0131
2026-07-22T17:32:20.395,2.4723,3.2054,6.0522
2026-07-22T17:32:20.402,2.4723,3.2641,6.0718
2026-07-22T17:32:20.411,2.4887,3.2445,6.1305
2026-07-22T17:32:20.429,2.5079,3.2837,6.0718
2026-07-22T17:32:20.429,2.5079,3.2054,6.1305
2026-07-22T17:32:20.446,2.5079,3.2837,5.9935
2026-07-22T17:32:20.468,2.5079,3.2054,6.0131
2026-07-22T17:32:20.479,2.5232,3.225,6.0718
2026-07-22T17:32:20.479,2.5232,3.1858,5.9935
2026-07-22T17:32:20.492,2.5232,3.1858,5.9739
2026-07-22T17:32:20.492,2.5232,3.2054,5.9739
2026-07-22T17:32:20.506,2.5232,3.1466,5.9152
2026-07-22T17:32:20.524,2.5356,3.1075,5.9739
2026-07-22T17:32:20.524,2.5356,3.225,5.9347
2026-07-22T17:32:20.524,2.585,3.0683,5.9935
2026-07-22T17:32:20.572,2.5993,3.1662,5.9543
2026-07-22T17:32:20.572,2.5993,3.127,5.9739
2026-07-22T17:32:20.572,2.5993,3.1075,5.9543
2026-07-22T17:32:20.572,2.5993,3.1466,5.9543
2026-07-22T17:32:20.590,2.6164,3.1662,5.9935
2026-07-22T17:32:20.590,2.6164,3.0879,5.9543
2026-07-22T17:32:20.601,2.6234,3.127,5.9739
2026-07-22T17:32:20.601,2.6331,3.0879,5.9543
2026-07-22T17:32:20.629,2.6351,3.1075,5.9739
2026-07-22T17:32:20.634,2.6351,3.0487,5.8956
2026-07-22T17:32:20.636,2.6462,3.1075,5.9347
2026-07-22T17:32:20.652,2.6462,3.1075,5.9347
2026-07-22T17:32:20.661,2.6648,3.0291,5.9347
2026-07-22T17:32:20.664,2.6819,3.0487,5.9347
2026-07-22T17:32:20.680,2.7254,2.9117,5.8956
2026-07-22T17:32:20.701,2.7321,2.9704,5.8956
2026-07-22T17:32:20.701,2.7321,3.0879,5.876
2026-07-22T17:32:20.714,2.7411,2.99,5.876
2026-07-22T17:32:20.752,2.7503,3.0879,5.9347
2026-07-22T17:32:20.752,2.7503,3.0291,5.8956
2026-07-22T17:32:20.764,2.7593,3.1075,5.9347
2026-07-22T17:32:20.764,2.7598,3.0487,5.8956
2026-07-22T17:32:20.764,2.7598,2.99,5.876
2026-07-22T17:32:20.764,2.7598,3.1075,5.9152
2026-07-22T17:32:20.791,2.7779,3.0096,5.876
2026-07-22T17:32:20.799,2.7837,3.0683,5.8956
2026-07-22T17:32:20.799,2.7837,3.0291,5.9543
2026-07-22T17:32:20.816,2.7939,2.9508,5.876
2026-07-22T17:32:20.841,2.8388,3.0291,5.9152
2026-07-22T17:32:20.841,2.8388,3.0096,5.9347
2026-07-22T17:32:20.841,2.8388,2.9508,5.8956
2026-07-22T17:32:20.854,2.8537,2.9704,5.8172
2026-07-22T17:32:20.861,2.8566,2.9704,5.8172
2026-07-22T17:32:20.870,2.8639,2.9704,5.8564
2026-07-22T17:32:20.879,2.8761,2.9508,5.7585
2026-07-22T17:32:20.888,2.8863,2.9117,5.7977
2026-07-22T17:32:20.906,2.8863,2.9312,5.7585
2026-07-22T17:32:20.912,2.894,2.9508,5.7193
2026-07-22T17:32:20.922,2.8999,2.9117,5.7585
2026-07-22T17:32:20.934,2.964,3.0096,5.7389
2026-07-22T17:32:20.953,2.9733,2.9117,5.7977
2026-07-22T17:32:20.953,2.9733,2.9704,5.7781
2026-07-22T17:32:20.965,2.9733,2.9508,5.6998
2026-07-22T17:32:20.967,2.9923,2.9117,5.7193
2026-07-22T17:32:20.982,2.9972,2.99,5.7781
2026-07-22T17:32:20.992,2.9972,2.9117,5.7389
2026-07-22T17:32:21.015,3.0092,2.9312,5.7977
2026-07-22T17:32:21.015,3.0092,3.0096,5.7389
2026-07-22T17:32:21.023,3.0092,2.9117,5.8368
2026-07-22T17:32:21.028,3.0276,2.9312,5.7193
2026-07-22T17:32:21.028,3.0359,2.9312,5.7193
2026-07-22T17:32:21.062,3.0835,2.9508,5.8172
2026-07-22T17:32:21.064,3.0835,2.9704,5.6606
2026-07-22T17:32:21.077,3.0926,2.99,5.7781
2026-07-22T17:32:21.077,3.0926,2.9508,5.7389
2026-07-22T17:32:21.093,3.0926,2.8333,5.7193
2026-07-22T17:32:21.102,3.1021,2.9312,5.7781
2026-07-22T17:32:21.120,3.1094,2.9508,5.6998
2026-07-22T17:32:21.124,3.1094,2.8529,5.7585
2026-07-22T17:32:21.133,3.1179,2.9508,5.7585
2026-07-22T17:32:21.156,3.1259,2.9312,5.6998
2026-07-22T17:32:21.156,3.128,2.9117,5.7389
2026-07-22T17:32:21.164,3.1325,2.9704,5.7389
2026-07-22T17:32:21.189,3.1954,2.9312,5.7389
2026-07-22T17:32:21.197,3.198,2.9508,5.7389
2026-07-22T17:32:21.197,3.1996,2.9312,5.6998
2026-07-22T17:32:21.197,3.2001,2.9704,5.7193
2026-07-22T17:32:21.212,3.2112,2.8921,5.7389
2026-07-22T17:32:21.221,3.2183,2.9312,5.6998
2026-07-22T17:32:21.236,3.2262,2.9508,5.7193
2026-07-22T17:32:21.246,3.2327,2.99,5.6606
2026-07-22T17:32:21.254,3.2327,2.8921,5.7389
2026-07-22T17:32:21.261,3.2484,3.0291,5.6998
2026-07-22T17:32:21.272,3.2589,2.9117,5.7389
2026-07-22T17:32:21.293,3.3049,2.9508,5.7585
2026-07-22T17:32:21.293,3.3069,2.9704,5.6802
2026-07-22T17:32:21.310,3.3069,2.9117,5.6998
2026-07-22T17:32:21.310,3.3069,3.0487,5.6802
2026-07-22T17:32:21.329,3.3279,2.9704,5.6998
2026-07-22T17:32:21.347,3.3311,2.9312,5.6998
2026-07-22T17:32:21.347,3.3327,2.99,5.6998
2026-07-22T17:32:21.352,3.3327,2.9704,5.7585
2026-07-22T17:32:21.361,3.3327,2.9704,5.641
2026-07-22T17:32:21.377,3.339,2.99,5.6802
2026-07-22T17:32:21.377,3.339,2.9508,5.7193
2026-07-22T17:32:21.391,3.3561,2.9312,5.7193
2026-07-22T17:32:21.421,3.4125,2.9312,5.7193
2026-07-22T17:32:21.421,3.4167,2.9704,5.7193
2026-07-22T17:32:21.421,3.4193,2.99,5.6998
2026-07-22T17:32:21.421,3.4266,2.9704,5.7977
2026-07-22T17:32:21.452,3.4359,2.99,5.7781
2026-07-22T17:32:21.452,3.4359,2.9704,5.7193
2026-07-22T17:32:21.461,3.4525,3.0683,5.7585
2026-07-22T17:32:21.468,3.4662,2.99,5.7389
2026-07-22T17:32:21.485,3.4662,2.99,5.7977
2026-07-22T17:32:21.485,3.4885,3.1466,5.7781
2026-07-22T17:32:21.525,3.55,3.0096,5.8172
2026-07-22T17:32:21.525,3.55,2.9704,5.7585
2026-07-22T17:32:21.525,3.55,3.0291,5.7585
2026-07-22T17:32:21.541,3.5627,2.99,5.6802
2026-07-22T17:32:21.541,3.5627,3.0291,5.7977
2026-07-22T17:32:21.555,3.5814,3.0291,5.7585
2026-07-22T17:32:21.564,3.5854,2.9508,5.7977
2026-07-22T17:32:21.564,3.5923,3.0683,5.7977
2026-07-22T17:32:21.581,3.5923,3.0096,5.7781
2026-07-22T17:32:21.595,3.6082,3.0487,5.8172
2026-07-22T17:32:21.595,3.6142,3.0487,5.7389
2026-07-22T17:32:21.617,3.6245,2.9508,5.7389
2026-07-22T17:32:21.617,3.6273,2.9704,5.8172
2026-07-22T17:32:21.644,3.6866,2.9312,5.7389
2026-07-22T17:32:21.662,3.6953,3.0291,5.8368
2026-07-22T17:32:21.662,3.6953,3.0096,5.6998
2026-07-22T17:32:21.662,3.6953,3.0096,5.7585
2026-07-22T17:32:21.679,3.7128,3.0291,5.7193
2026-07-22T17:32:21.679,3.7128,3.0096,5.6998
2026-07-22T17:32:21.691,3.7289,2.9312,5.7781
2026-07-22T17:32:21.691,3.7336,3.0096,5.6998
2026-07-22T17:32:21.714,3.7336,2.9508,5.7193
2026-07-22T17:32:21.721,3.7469,3.0096,5.7781
2026-07-22T17:32:21.737,3.7506,3.0683,5.7389
2026-07-22T17:32:21.743,3.7614,2.9508,5.7977
2026-07-22T17:32:21.753,3.7767,3.0683,5.7781
2026-07-22T17:32:21.762,3.7838,3.0096,5.7977
2026-07-22T17:32:21.793,3.8337,3.0683,5.8368
2026-07-22T17:32:21.793,3.8407,3.0487,5.8564
2026-07-22T17:32:21.793,3.8417,2.99,5.876
2026-07-22T17:32:21.793,3.8462,3.1858,5.7977
2026-07-22T17:32:21.815,3.8562,3.0683,5.8172
2026-07-22T17:32:21.824,3.8562,3.0487,5.8172
2026-07-22T17:32:21.837,3.8716,3.0291,5.8564
2026-07-22T17:32:21.841,3.882,3.0096,5.8564
2026-07-22T17:32:21.856,3.8877,3.1075,5.7977
2026-07-22T17:32:21.857,3.8877,3.0291,5.7977
2026-07-22T17:32:21.872,3.9038,3.0096,5.8956
2026-07-22T17:32:21.879,3.907,3.0879,5.8564
2026-07-22T17:32:21.896,3.9175,2.99,5.8368
2026-07-22T17:32:21.905,3.9195,3.1075,5.8564
2026-07-22T17:32:21.912,3.94,3.127,5.8172
2026-07-22T17:32:21.921,3.9461,3.0096,5.876
2026-07-22T17:32:21.938,4.0015,3.1075,5.9347
2026-07-22T17:32:21.952,4.0148,3.0096,5.8956
2026-07-22T17:32:21.952,4.0148,3.1075,5.876
2026-07-22T17:32:21.968,4.0289,3.0487,5.8956
2026-07-22T17:32:21.974,4.036,3.0096,5.8564
2026-07-22T17:32:21.985,4.0457,3.1075,5.876
2026-07-22T17:32:22.000,4.0532,2.99,5.8172
2026-07-22T17:32:22.000,4.0532,3.127,5.8172
2026-07-22T17:32:22.011,4.0613,3.0683,5.7585
2026-07-22T17:32:22.032,4.0697,3.0096,5.8368
2026-07-22T17:32:22.036,4.0697,3.0291,5.8368
2026-07-22T17:32:22.043,4.0697,3.0291,5.7781
2026-07-22T17:32:22.065,4.0807,3.0683,5.7977
2026-07-22T17:32:22.065,4.0807,3.0683,5.7781
2026-07-22T17:32:22.075,4.0807,3.0291,5.7977
2026-07-22T17:32:22.078,4.0962,3.1075,5.8172
2026-07-22T17:32:22.094,4.1514,3.0291,5.8368
2026-07-22T17:32:22.102,4.1554,2.99,5.9152
2026-07-22T17:32:22.120,4.1616,3.1075,5.876
2026-07-22T17:32:22.126,4.1662,2.99,5.8368
2026-07-22T17:32:22.130,4.1707,3.0487,5.8172
2026-07-22T17:32:22.160,4.1739,3.0487,5.7585
2026-07-22T17:32:22.172,4.1824,3.0487,5.7977
2026-07-22T17:32:22.178,4.1867,3.0291,5.8368
2026-07-22T17:32:22.178,4.1867,2.99,5.7977
2026-07-22T17:32:22.182,4.1905,3.0487,5.8564
2026-07-22T17:32:22.193,4.1955,3.0291,5.8564
2026-07-22T17:32:22.198,4.2084,3.0291,5.8956
2026-07-22T17:32:22.209,4.2219,3.0879,5.876
2026-07-22T17:32:22.209,4.234,3.0683,5.8172
2026-07-22T17:32:22.225,4.2421,3.0487,5.8172
2026-07-22T17:32:22.241,4.3072,3.0879,5.7977
2026-07-22T17:32:22.258,4.3087,3.0291,5.8564
2026-07-22T17:32:22.263,4.3087,3.0879,5.8172
2026-07-22T17:32:22.275,4.3087,2.99,5.8564
2026-07-22T17:32:22.295,4.3246,2.9704,5.8172
2026-07-22T17:32:22.303,4.3246,3.0879,5.7977
2026-07-22T17:32:22.303,4.3246,3.0096,5.8368
2026-07-22T17:32:22.319,4.3343,3.0683,5.8956
2026-07-22T17:32:22.337,4.3403,3.0879,5.8368
2026-07-22T17:32:22.337,4.3403,3.0487,5.7977
2026-07-22T17:32:22.350,4.3403,3.1075,5.8172
2026-07-22T17:32:22.363,4.3564,2.99,5.8172
2026-07-22T17:32:22.363,4.3663,3.0096,5.8564
2026-07-22T17:32:22.377,4.3761,3.1075,5.8564
2026-07-22T17:32:22.400,4.4342,3.0683,5.8172
2026-07-22T17:32:22.421,4.4418,3.1075,5.8564
2026-07-22T17:32:22.421,4.4438,3.127,5.7977
2026-07-22T17:32:22.421,4.4438,3.0683,5.8956
2026-07-22T17:32:22.421,4.4438,3.1075,5.8172
2026-07-22T17:32:22.453,4.4499,2.9704,5.8172
2026-07-22T17:32:22.453,4.4499,3.0291,5.8172
2026-07-22T17:32:22.463,4.4499,3.0683,5.7977
2026-07-22T17:32:22.469,4.4499,3.0291,5.8564
2026-07-22T17:32:22.469,4.4658,3.0683,5.876
2026-07-22T17:32:22.485,4.4658,2.99,5.8368
2026-07-22T17:32:22.505,4.4658,3.0879,5.8368
2026-07-22T17:32:22.505,4.4658,3.0291,5.8368
2026-07-22T17:32:22.511,4.4824,3.0096,5.8172
2026-07-22T17:32:22.534,4.5315,3.0683,5.876
2026-07-22T17:32:22.534,4.5337,3.0291,5.8172
2026-07-22T17:32:22.547,4.5367,3.0487,5.7781
2026-07-22T17:32:22.547,4.5405,3.1075,5.7781
2026-07-22T17:32:22.563,4.5445,3.0291,5.8368
2026-07-22T17:32:22.578,4.5495,3.0096,5.8172
2026-07-22T17:32:22.594,4.5515,3.0096,5.8564
2026-07-22T17:32:22.594,4.5536,3.0291,5.8564
2026-07-22T17:32:22.594,4.5536,3.0683,5.8172
2026-07-22T17:32:22.613,4.5927,3.0291,5.8564
2026-07-22T17:32:22.626,4.6086,3.0487,5.8564
2026-07-22T17:32:22.649,4.6169,2.99,5.876
2026-07-22T17:32:22.649,4.6169,2.9312,5.9152
2026-07-22T17:32:22.649,4.6244,3.0487,5.8368
2026-07-22T17:32:22.682,4.632,2.9508,5.9347
2026-07-22T17:32:22.682,4.632,3.0879,5.9152
2026-07-22T17:32:22.682,4.6348,3.0291,5.876
2026-07-22T17:32:22.692,4.6426,2.99,5.876
2026-07-22T17:32:22.708,4.7037,3.0291,5.876
2026-07-22T17:32:22.721,4.7037,2.9312,5.876
2026-07-22T17:32:22.721,4.7037,3.0096,5.9739
2026-07-22T17:32:22.737,4.7132,3.0291,5.9152
2026-07-22T17:32:22.745,4.7197,2.9704,5.9152
2026-07-22T17:32:22.763,4.7197,3.0291,5.9935
2026-07-22T17:32:22.763,4.7197,3.0487,5.9152
2026-07-22T17:32:22.775,4.7197,3.0487,5.9347
2026-07-22T17:32:22.781,4.8042,3.0291,5.8956
2026-07-22T17:32:22.799,4.8062,2.9704,5.9347
2026-07-22T17:32:22.803,4.8122,3.0096,5.8368
2026-07-22T17:32:22.817,4.818,2.99,5.8956
2026-07-22T17:32:22.817,4.822,2.99,5.8956
2026-07-22T17:32:22.832,4.8301,3.0487,5.9152
2026-07-22T17:32:22.848,4.8301,2.9312,5.8564
2026-07-22T17:32:22.848,4.8353,3.0487,5.9739
2026-07-22T17:32:22.914,4.8778,3.0096,5.8956
2026-07-22T17:32:22.914,4.8778,2.99,5.8368
2026-07-22T17:32:22.914,4.8778,3.0683,5.8564
2026-07-22T17:32:22.914,4.8778,3.0291,5.9152
2026-07-22T17:32:22.914,4.8894,3.0683,5.8956
2026-07-22T17:32:22.914,4.8894,3.0096,5.9935
2026-07-22T17:32:22.933,4.8938,2.9704,6.0131
2026-07-22T17:32:22.955,4.8938,3.1466,5.9347
2026-07-22T17:32:22.959,4.9096,2.99,5.876
2026-07-22T17:32:22.959,4.9096,3.0683,5.9347
2026-07-22T17:32:22.961,4.9246,3.127,5.8956
2026-07-22T17:32:22.982,4.9889,2.9312,5.9347
2026-07-22T17:32:22.991,4.9889,3.0096,5.9543
2026-07-22T17:32:22.991,4.9889,2.9508,5.876
2026-07-22T17:32:22.991,4.9889,2.9704,5.9152
2026-07-22T17:32:23.006,5.0045,2.9704,5.9152
2026-07-22T17:32:23.022,5.0045,2.9704,5.9543
2026-07-22T17:32:23.022,5.0204,3.0096,5.9347
2026-07-22T17:32:23.054,5.0204,3.0096,5.9543
2026-07-22T17:32:23.054,5.0204,2.9508,5.9543
2026-07-22T17:32:23.070,5.0383,2.9704,5.9152
2026-07-22T17:32:44.996,27.0651,2.3634,7.2858
2026-07-22T17:32:44.996,27.0676,2.3634,7.4033
2026-07-22T17:32:45.019,27.0697,2.4026,7.2662
2026-07-22T17:32:45.019,27.0697,2.3438,7.3445
2026-07-22T17:32:45.029,27.0697,2.4417,7.3054
2026-07-22T17:32:45.036,27.0819,2.383,7.2662
2026-07-22T17:32:45.051,27.0959,2.3634,7.3445
2026-07-22T17:32:45.067,27.0992,2.4809,7.2858
2026-07-22T17:32:45.067,27.112,2.3438,7.3641
2026-07-22T17:32:45.085,27.1213,2.4417,7.2466
2026-07-22T17:32:45.085,27.123,2.4026,7.2858
2026-07-22T17:32:45.102,27.139,2.4417,7.325
2026-07-22T17:32:45.102,27.141,2.4026,7.3054
2026-07-22T17:32:45.124,27.148,2.383,7.2858
2026-07-22T17:32:45.124,27.1537,2.4026,7.3054
2026-07-22T17:32:45.136,27.1654,2.4221,7.2858
2026-07-22T17:32:45.155,27.2289,2.3438,7.2858
2026-07-22T17:32:45.171,27.2334,2.3634,7.2858
2026-07-22T17:32:45.171,27.2334,2.4221,7.2466
2026-07-22T17:32:45.178,27.2444,2.383,7.3054
2026-07-22T17:32:45.182,27.2493,2.4026,7.2271
2026-07-22T17:32:45.198,27.265,2.3047,7.2662
2026-07-22T17:32:45.198,27.2702,2.3634,7.2466
2026-07-22T17:32:45.210,27.2796,2.3242,7.3054
2026-07-22T17:32:45.228,27.2853,2.3634,7.2858
2026-07-22T17:32:45.266,27.2914,2.3438,7.3054
2026-07-22T17:32:45.266,27.2937,2.3047,7.325
2026-07-22T17:32:45.266,27.2937,2.3438,7.325
2026-07-22T17:32:45.268,27.3011,2.3438,7.3054
2026-07-22T17:32:45.291,27.3064,2.3438,7.3837
2026-07-22T17:32:45.291,27.3168,2.3438,7.325
2026-07-22T17:32:45.297,27.3235,2.3047,7.325
2026-07-22T17:32:45.318,27.368,2.383,7.5208
2026-07-22T17:32:45.319,27.3772,2.3438,7.3445
2026-07-22T17:32:45.335,27.3806,2.383,7.3837
2026-07-22T17:32:45.337,27.3859,2.3242,7.3837
2026-07-22T17:32:45.355,27.3967,2.2459,7.3837
2026-07-22T17:32:45.362,27.3967,2.3634,7.4229
2026-07-22T17:32:45.370,27.415,2.3634,7.4033
2026-07-22T17:32:45.387,27.415,2.3047,7.4033
2026-07-22T17:32:45.391,27.4239,2.3634,7.3837
2026-07-22T17:32:45.399,27.4349,2.2655,7.3641
2026-07-22T17:32:45.408,27.438,2.383,7.4033
2026-07-22T17:32:45.422,27.4552,2.3634,7.462
2026-07-22T17:32:45.422,27.4594,2.2655,7.4425
2026-07-22T17:32:45.435,27.4768,2.3047,7.3641
2026-07-22T17:32:45.452,27.4768,2.3438,7.3837
2026-07-22T17:32:45.452,27.4768,2.3438,7.3837
2026-07-22T17:32:45.493,27.5444,2.3242,7.462
2026-07-22T17:32:45.494,27.5444,2.3047,7.4229
2026-07-22T17:32:45.494,27.5444,2.3438,7.4033
2026-07-22T17:32:45.506,27.5587,2.3242,7.3445
2026-07-22T17:32:45.515,27.5647,2.3047,7.4229
2026-07-22T17:32:45.515,27.5707,2.4417,7.3641
2026-07-22T17:32:45.525,27.5707,2.3242,7.3445
2026-07-22T17:32:45.542,27.5797,2.3047,7.4033
2026-07-22T17:32:45.544,27.5797,2.3438,7.3837
2026-07-22T17:32:45.577,27.5867,2.3047,7.3837
2026-07-22T17:32:45.584,27.5867,2.383,7.4229
2026-07-22T17:32:45.584,27.5867,2.3047,7.3837
2026-07-22T17:32:45.597,27.6057,2.4026,7.3837
2026-07-22T17:32:45.597,27.612,2.3242,7.3641
2026-07-22T17:32:45.605,27.6189,2.2655,7.3837
2026-07-22T17:32:45.620,27.679,2.3438,7.4033
2026-07-22T17:32:45.642,27.681,2.2655,7.2662
2026-07-22T17:32:45.648,27.685,2.2851,7.4425
2026-07-22T17:32:45.648,27.685,2.3634,7.4816
2026-07-22T17:32:45.671,27.6976,2.3047,7.4033
2026-07-22T17:32:45.671,27.6976,2.3438,7.3837
2026-07-22T17:32:45.673,27.705,2.2655,7.3445
2026-07-22T17:32:45.697,27.7177,2.3242,7.5012
2026-07-22T17:32:45.699,27.7225,2.3634,7.325
2026-07-22T17:32:45.708,27.7308,2.3242,7.4229
2026-07-22T17:32:45.715,27.7355,2.383,7.4033
2026-07-22T17:32:45.732,27.739,2.3242,7.3641
2026-07-22T17:32:45.741,27.7476,2.383,7.462
2026-07-22T17:32:45.747,27.763,2.3634,7.4816
2026-07-22T17:32:45.747,27.7787,2.3047,7.4425
2026-07-22T17:32:45.764,27.8359,2.4026,7.4425
2026-07-22T17:32:45.795,27.8446,2.383,7.3837
2026-07-22T17:32:45.795,27.8492,2.3047,7.4033
2026-07-22T17:32:45.806,27.8554,2.3242,7.3445
2026-07-22T17:32:45.810,27.8591,2.3047,7.4033
2026-07-22T17:32:45.814,27.86,2.4026,7.4816
2026-07-22T17:32:45.834,27.8773,2.4026,7.4425
2026-07-22T17:32:45.845,27.8773,2.3634,7.462
2026-07-22T17:32:45.846,27.8957,2.383,7.5208
2026-07-22T17:32:45.859,27.9131,2.3634,7.4816
2026-07-22T17:32:45.868,27.9131,2.4613,7.5404
2026-07-22T17:32:45.876,27.9131,2.4417,7.5599
2026-07-22T17:32:45.876,27.9238,2.383,7.5599
2026-07-22T17:32:45.897,27.9361,2.4221,7.5404
2026-07-22T17:32:45.911,27.947,2.4026,7.5404
2026-07-22T17:32:45.911,27.9965,2.4221,7.462
2026-07-22T17:32:45.925,28.0103,2.4417,7.5012
2026-07-22T17:32:45.939,28.0103,2.383,7.5012
2026-07-22T17:32:45.958,28.0103,2.4809,7.5012
2026-07-22T17:32:45.960,28.0103,2.4026,7.5795
2026-07-22T17:32:45.973,28.0297,2.3634,7.4816
2026-07-22T17:32:45.978,28.032,2.4221,7.5012
2026-07-22T17:32:45.989,28.0367,2.3634,7.4425
2026-07-22T17:32:46.021,28.0418,2.4221,7.462
2026-07-22T17:32:46.021,28.0436,2.3438,7.3837
2026-07-22T17:32:46.024,28.0446,2.3242,7.462
2026-07-22T17:32:46.042,28.0446,2.4026,7.5012
2026-07-22T17:32:46.042,28.0446,2.3438,7.4816
2026-07-22T17:32:46.052,28.0584,2.4221,7.4816
2026-07-22T17:32:46.065,28.0584,2.3242,7.462
2026-07-22T17:32:46.065,28.0691,2.3242,7.4816
2026-07-22T17:32:46.076,28.0736,2.4221,7.4229
2026-07-22T17:32:46.089,28.0776,2.3242,7.4229
2026-07-22T17:32:46.107,28.137,2.3634,7.4816
2026-07-22T17:32:46.107,28.1377,2.3438,7.3837
2026-07-22T17:32:46.107,28.1377,2.3242,7.4033
2026-07-22T17:32:46.129,28.1377,2.383,7.4229
2026-07-22T17:32:46.139,28.1532,2.3242,7.3445
2026-07-22T17:32:46.155,28.16,2.2655,7.4033
2026-07-22T17:32:46.158,28.16,2.4026,7.325
2026-07-22T17:32:46.172,28.16,2.52,7.3641
2026-07-22T17:32:46.173,28.1784,2.4221,7.2858
2026-07-22T17:32:46.198,28.1859,2.3634,7.2858
2026-07-22T17:32:46.198,28.1859,2.2655,7.4033
2026-07-22T17:32:46.206,28.1859,2.4613,7.3641
2026-07-22T17:32:46.218,28.2009,2.2851,7.325
2026-07-22T17:32:46.234,28.2518,2.3242,7.4425
2026-07-22T17:32:46.250,28.2518,2.3634,7.4229
2026-07-22T17:32:46.250,28.2671,2.3242,7.4033
2026-07-22T17:32:46.263,28.2755,2.4026,7.4033
2026-07-22T17:32:46.266,28.2755,2.3438,7.4229
2026-07-22T17:32:46.266,28.2802,2.3438,7.4425
2026-07-22T17:32:46.289,28.2887,2.383,7.3837
2026-07-22T17:32:46.307,28.2973,2.383,7.462
2026-07-22T17:32:46.307,28.2973,2.3634,7.462
2026-07-22T17:32:46.314,28.3108,2.3438,7.4229
2026-07-22T17:32:46.314,28.3108,2.4026,7.462
2026-07-22T17:32:46.329,28.3698,2.4026,7.4425
2026-07-22T17:32:46.366,28.3813,2.383,7.5012
2026-07-22T17:32:46.366,28.3833,2.4613,7.4425
2026-07-22T17:32:46.370,28.3853,2.3634,7.4425
2026-07-22T17:32:46.376,28.4008,2.4026,7.5012
2026-07-22T17:32:46.380,28.4117,2.5005,7.3837
2026-07-22T17:32:46.404,28.4117,2.3634,7.462
2026-07-22T17:32:46.417,28.4313,2.4221,7.4816
2026-07-22T17:32:46.423,28.4333,2.383,7.5012
2026-07-22T17:32:46.426,28.4438,2.3634,7.4816
2026-07-22T17:32:46.456,28.4561,2.4026,7.5404
2026-07-22T17:32:46.456,28.4612,2.383,7.4425
2026-07-22T17:32:46.459,28.5016,2.4026,7.5012
2026-07-22T17:32:46.489,28.5042,2.4221,7.462
2026-07-22T17:32:46.489,28.5042,2.3438,7.5012
2026-07-22T17:32:46.489,28.5175,2.383,7.5208
2026-07-22T17:32:46.509,28.5175,2.3438,7.5012
2026-07-22T17:32:46.509,28.5175,2.4026,7.5012
2026-07-22T17:32:46.521,28.5334,2.3634,7.5208
2026-07-22T17:32:46.540,28.5383,2.3634,7.4229
2026-07-22T17:32:46.540,28.5383,2.4026,7.462
2026-07-22T17:32:46.550,28.5487,2.3634,7.462
2026-07-22T17:32:46.562,28.5568,2.3634,7.5795
2026-07-22T17:32:46.577,28.5641,2.383,7.5404
2026-07-22T17:32:46.585,28.5699,2.3634,7.5208
2026-07-22T17:32:46.592,28.5785,2.4026,7.8341
2026-07-22T17:32:46.598,28.626,2.3438,7.5012
2026-07-22T17:32:46.615,28.635,2.4613,7.5012
2026-07-22T17:32:46.616,28.6389,2.383,7.5208
2026-07-22T17:32:46.627,28.6424,2.3242,7.5208
2026-07-22T17:32:46.633,28.6518,2.4026,7.5208
2026-07-22T17:32:46.646,28.6587,2.4026,7.5599
2026-07-22T17:32:46.660,28.6736,2.383,7.5404
2026-07-22T17:32:46.667,28.6821,2.4026,7.5599
2026-07-22T17:32:46.685,28.6892,2.3047,7.5012
2026-07-22T17:32:46.693,28.6892,2.3438,7.5599
2026-07-22T17:32:46.698,28.6892,2.383,7.5012
2026-07-22T17:32:46.707,28.7049,2.3438,7.5795
2026-07-22T17:32:46.707,28.7228,2.383,7.6578
2026-07-22T17:32:46.739,28.7702,2.4026,7.5991
2026-07-22T17:32:46.739,28.7702,2.4221,7.6187
2026-07-22T17:32:46.755,28.7778,2.3634,7.6383
2026-07-22T17:32:46.755,28.7867,2.3242,7.6187
2026-07-22T17:32:46.767,28.7919,2.4026,7.6187
2026-07-22T17:32:46.780,28.8151,2.3634,7.7166
2026-07-22T17:32:46.787,28.8222,2.3242,7.6383
2026-07-22T17:32:46.809,28.8323,2.4026,7.5991
2026-07-22T17:32:46.811,28.8368,2.3242,7.5795
2026-07-22T17:32:46.818,28.8476,2.3634,7.6187
2026-07-22T17:32:46.818,28.8556,2.3438,7.5599
2026-07-22T17:32:46.834,28.8654,2.3242,7.6383
2026-07-22T17:32:46.851,28.8764,2.4221,7.6383
2026-07-22T17:32:46.851,28.9143,2.3047,7.5991
2026-07-22T17:32:46.872,28.9275,2.2459,7.5599
2026-07-22T17:32:46.881,28.9403,2.383,7.5599
2026-07-22T17:32:46.899,28.944,2.4417,7.5991
2026-07-22T17:32:46.899,28.9517,2.383,7.6383
2026-07-22T17:32:46.906,28.9684,2.3634,7.6383
2026-07-22T17:32:46.942,28.9704,2.3438,7.6187
2026-07-22T17:32:46.951,28.9769,2.3438,7.5795
2026-07-22T17:32:46.951,28.9786,2.2851,7.5599
2026-07-22T17:32:46.951,28.9786,2.383,7.6187
2026-07-22T17:32:46.960,28.981,2.3634,7.5404
2026-07-22T17:32:46.984,28.9925,2.2655,7.6578
2026-07-22T17:32:46.984,28.9925,2.383,7.697
2026-07-22T17:32:46.992,28.9925,2.3438,7.6383
2026-07-22T17:32:47.005,28.9925,2.3634,7.7557
2026-07-22T17:32:47.016,29.0102,2.4026,7.697
2026-07-22T17:32:47.024,29.0441,2.3438,7.7166
2026-07-22T17:32:47.024,29.0566,2.4221,7.7753
2026-07-22T17:32:47.043,29.0671,2.4809,7.6774
2026-07-22T17:32:47.043,29.0705,2.3242,7.6578
2026-07-22T17:32:47.056,29.0899,2.4221,7.6383
2026-07-22T17:32:47.073,29.0995,2.2851,7.6774
2026-07-22T17:32:47.073,29.0995,2.383,7.7557
2026-07-22T17:32:47.097,29.1205,2.3438,7.6774
2026-07-22T17:32:47.110,29.1314,2.3047,7.7166
2026-07-22T17:32:47.110,29.1314,2.383,7.7166
2026-07-22T17:32:47.121,29.1444,2.2851,7.7362
2026-07-22T17:32:47.121,29.147,2.383,7.697
2026-07-22T17:32:47.139,29.1564,2.2851,7.697
2026-07-22T17:32:47.144,29.1601,2.2459,7.6578
2026-07-22T17:32:47.173,29.1994,2.3242,7.7166
2026-07-22T17:32:47.173,29.2076,2.3242,7.7362
2026-07-22T17:32:47.173,29.2138,2.3242,7.8536
2026-07-22T17:32:47.192,29.2386,2.3242,7.8928
2026-07-22T17:32:47.199,29.2535,2.2459,7.7949
2026-07-22T17:32:47.212,29.2638,2.3242,7.8341
2026-07-22T17:32:47.228,29.2686,2.3047,7.7557
2026-07-22T17:32:47.228,29.2712,2.3242,7.7949
2026-07-22T17:32:47.247,29.282,2.2851,7.7753
2026-07-22T17:32:47.249,29.2845,2.2851,7.8341
2026-07-22T17:32:47.260,29.2938,2.3242,7.8341
2026-07-22T17:32:47.276,29.3021,2.3438,7.8145
2026-07-22T17:32:47.285,29.3021,2.3047,7.8928
2026-07-22T17:32:47.289,29.3158,2.3438,7.7753
2026-07-22T17:32:47.320,29.3713,2.3438,7.8145
2026-07-22T17:32:47.324,29.384,2.3047,7.8341
2026-07-22T17:32:47.324,29.3862,2.3438,7.8536
2026-07-22T17:32:47.342,29.411,2.3438,7.8732
2026-07-22T17:32:47.342,29.4148,2.3438,7.7753
2026-07-22T17:32:47.342,29.4148,2.2851,7.8145
2026-07-22T17:32:47.367,29.4218,2.383,7.7557
2026-07-22T17:32:47.400,29.4271,2.3634,7.8341
2026-07-22T17:32:47.400,29.4271,2.2851,7.8341
2026-07-22T17:32:47.400,29.4271,2.383,7.8536
2026-07-22T17:32:47.400,29.4271,2.3242,7.8536
2026-07-22T17:32:47.413,29.4383,2.2263,7.8536
2026-07-22T17:32:47.431,29.4427,2.3634,7.8536
2026-07-22T17:32:47.431,29.4427,2.3047,7.8928
2026-07-22T17:32:47.444,29.4613,2.4026,7.8928
2026-07-22T17:32:47.444,29.4613,2.3242,7.7949
2026-07-22T17:32:47.476,29.513,2.3634,7.8536
2026-07-22T17:32:47.476,29.5222,2.383,7.8145
2026-07-22T17:32:47.476,29.5222,2.3047,7.8341
2026-07-22T17:32:47.476,29.5243,2.3242,7.7949
2026-07-22T17:32:47.510,29.5381,2.3047,7.7753
2026-07-22T17:32:47.513,29.5404,2.3047,7.8732
2026-07-22T17:32:47.543,29.5435,2.383,7.7753
2026-07-22T17:32:47.543,29.5435,2.3047,7.7949
2026-07-22T17:32:47.543,29.5435,2.3047,7.8536
2026-07-22T17:32:47.552,29.5562,2.383,7.8536
2026-07-22T17:32:47.556,29.5716,2.2655,7.8145
2026-07-22T17:32:47.571,29.5736,2.383,7.8536
2026-07-22T17:32:47.571,29.5816,2.3242,7.7949
2026-07-22T17:32:47.590,29.5918,2.2851,7.8732
2026-07-22T17:32:47.590,29.5918,2.383,7.8341
2026-07-22T17:32:47.603,29.6321,2.2851,7.8145
2026-07-22T17:32:47.619,29.6321,2.3634,7.8341
2026-07-22T17:32:47.619,29.6321,2.3634,7.7753
2026-07-22T17:32:47.642,29.6518,2.3242,7.9124
2026-07-22T17:32:47.642,29.6518,2.3634,7.5012
2026-07-22T17:32:47.665,29.6639,2.2263,7.7362
2026-07-22T17:32:47.672,29.6639,2.3242,7.8732
2026-07-22T17:32:47.685,29.681,2.383,7.7753
2026-07-22T17:32:47.715,29.6955,2.3047,7.8145
2026-07-22T17:32:47.716,29.7019,2.3242,7.8145
2026-07-22T17:32:47.716,29.7019,2.3047,7.7557
2026-07-22T17:32:47.729,29.7101,2.2263,7.7557
2026-07-22T17:32:47.729,29.7132,2.3047,7.8145
2026-07-22T17:32:47.761,29.758,2.3047,7.7557
2026-07-22T17:32:47.761,29.758,2.3634,7.8928
2026-07-22T17:32:47.761,29.758,2.3047,7.8145
2026-07-22T17:32:47.761,29.7737,2.2459,7.8341
2026-07-22T17:32:47.792,29.7737,2.3047,7.8145
2026-07-22T17:32:47.800,29.7737,2.2068,7.8341
2026-07-22T17:32:47.800,29.7894,2.3242,7.8341
2026-07-22T17:32:47.824,29.8005,2.2459,7.7557
2026-07-22T17:32:47.831,29.8075,2.3634,7.7753
2026-07-22T17:32:47.831,29.813,2.3634,7.8145
2026-07-22T17:32:47.842,29.827,2.2068,7.7362
2026-07-22T17:32:47.842,29.8367,2.3242,7.7949
2026-07-22T17:32:47.879,29.8864,2.2459,7.7557
2026-07-22T17:32:47.879,29.8924,2.2459,7.7362
2026-07-22T17:32:47.879,29.8924,2.2851,7.7166
2026-07-22T17:32:47.887,29.9062,2.2068,7.697
2026-07-22T17:32:47.902,29.9062,2.2263,7.697
2026-07-22T17:32:47.902,29.9062,2.2263,7.6774
2026-07-22T17:32:47.918,29.9161,2.1676,7.6578
2026-07-22T17:32:47.936,29.9161,2.2459,7.6774
2026-07-22T17:32:47.947,29.9235,2.1872,7.5795
2026-07-22T17:32:47.956,29.9287,2.148,7.6774
2026-07-22T17:32:47.956,29.9322,2.2655,7.6383
2026-07-22T17:32:47.981,29.9892,2.1872,7.6187
2026-07-22T17:32:47.999,29.9892,2.1872,7.697
2026-07-22T17:32:47.999,29.9892,2.1872,7.697
2026-07-22T17:32:48.000,29.9983,2.2068,7.6578
2026-07-22T17:32:48.021,30.0048,2.2655,7.6578
2026-07-22T17:32:48.021,30.0084,2.1872,7.6578
2026-07-22T17:32:48.035,30.0124,2.2068,7.697
2026-07-22T17:32:48.045,30.0144,2.1872,7.6578
2026-07-22T17:32:48.052,30.0278,2.1676,7.6578
2026-07-22T17:32:48.061,30.0385,2.2655,7.6578
2026-07-22T17:32:48.061,30.0449,2.2068,7.6383
2026-07-22T17:32:48.088,30.0976,2.1676,7.6774
2026-07-22T17:32:48.101,30.1055,2.2068,7.6774
2026-07-22T17:32:48.101,30.1055,2.2068,7.6383
2026-07-22T17:32:48.112,30.1126,2.2459,7.6187
2026-07-22T17:32:48.118,30.1214,2.2263,7.6774
2026-07-22T17:32:48.137,30.1237,2.2459,7.7166
2026-07-22T17:32:48.143,30.1237,2.2459,7.7362
2026-07-22T17:32:48.163,30.1475,2.2068,7.9907
2026-07-22T17:32:48.163,30.1475,2.2655,7.7166
2026-07-22T17:32:48.174,30.1623,2.3242,7.7949
2026-07-22T17:32:48.180,30.2044,2.2655,7.697
2026-07-22T17:32:48.193,30.2109,2.2655,7.7362
2026-07-22T17:32:48.212,30.2109,2.2263,7.7362
2026-07-22T17:32:48.213,30.227,2.3047,7.7166
2026-07-22T17:32:48.222,30.227,2.2851,7.7557
2026-07-22T17:32:48.234,30.2429,2.1872,7.7166
2026-07-22T17:32:48.241,30.2461,2.383,7.7166
2026-07-22T17:32:48.250,30.2531,2.2851,7.697
2026-07-22T17:32:48.252,30.2589,2.2263,7.7753
2026-07-22T17:32:48.276,30.2746,2.2655,7.697
2026-07-22T17:32:48.276,30.2818,2.2459,7.697
2026-07-22T17:32:48.291,30.2907,2.2851,7.697
2026-07-22T17:32:48.291,30.3294,2.2851,7.6774
2026-07-22T17:32:48.324,30.3424,2.2263,7.7166
2026-07-22T17:32:48.324,30.3424,2.2655,7.6774
2026-07-22T17:32:48.324,30.3465,2.1676,7.6187
2026-07-22T17:32:48.356,30.361,2.2851,7.6774
2026-07-22T17:32:48.356,30.361,2.2851,7.697
2026-07-22T17:32:48.356,30.361,2.2459,7.7166
2026-07-22T17:32:48.382,30.3794,2.3047,7.6774
2026-07-22T17:32:48.382,30.3859,2.2655,7.6578
2026-07-22T17:32:48.388,30.3912,2.3047,7.7362
2026-07-22T17:32:48.403,30.402,2.383,7.6383
2026-07-22T17:32:48.410,30.406,2.2655,7.7362
2026-07-22T17:32:48.419,30.4127,2.2459,7.697
2026-07-22T17:32:48.435,30.4673,2.2068,7.6774
2026-07-22T17:32:48.435,30.4717,2.1872,7.7362
2026-07-22T17:32:48.452,30.4811,2.2263,7.6774
2026-07-22T17:32:48.471,30.4876,2.2263,7.6187
2026-07-22T17:32:48.471,30.4968,2.2068,7.6383
2026-07-22T17:32:48.475,30.5043,2.2263,7.6578
2026-07-22T17:32:48.490,30.5043,2.1676,7.5991
2026-07-22T17:32:48.508,30.5206,2.1872,7.6187
2026-07-22T17:32:48.513,30.5283,2.1676,7.5991
2026-07-22T17:32:48.527,30.5283,2.2263,7.6578
2026-07-22T17:32:48.527,30.5283,2.2068,7.5991
2026-07-22T17:32:48.547,30.5474,2.1284,7.6578
2026-07-22T17:32:48.553,30.5574,2.2459,7.6578
2026-07-22T17:32:48.575,30.6121,2.1872,7.5795
2026-07-22T17:32:48.590,30.6121,2.2655,7.6383
2026-07-22T17:32:48.590,30.624,2.2263,7.5795
2026-07-22T17:32:48.590,30.626,2.2263,7.6383
2026-07-22T17:32:48.600,30.635,2.2655,7.5991
2026-07-22T17:32:48.616,30.6443,2.2655,7.5991
2026-07-22T17:32:48.616,30.6454,2.2459,7.6774
2026-07-22T17:32:48.633,30.651,2.3242,7.6187
2026-07-22T17:32:48.633,30.651,2.1872,7.6578
2026-07-22T17:32:48.657,30.6747,2.2851,7.6578
2026-07-22T17:32:48.657,30.6775,2.2263,7.6383
2026-07-22T17:32:48.673,30.6891,2.1676,7.6187
2026-07-22T17:32:48.676,30.6955,2.2655,7.6578
2026-07-22T17:32:48.690,30.7035,2.2263,7.5795
2026-07-22T17:32:48.710,30.7505,2.2459,7.5991
2026-07-22T17:32:48.710,30.7505,2.2851,7.5599
2026-07-22T17:32:48.725,30.7505,2.148,7.5991
2026-07-22T17:32:48.729,30.7505,2.2655,7.6187
2026-07-22T17:32:48.741,30.7717,2.2459,7.6187
2026-07-22T17:32:48.755,30.7818,2.2851,7.6578
2026-07-22T17:32:48.773,30.7984,2.2655,7.6383
2026-07-22T17:32:48.780,30.8036,2.2263,7.6383
2026-07-22T17:32:48.780,30.8135,2.3242,7.6187
2026-07-22T17:32:48.806,30.8183,2.3242,7.5991
2026-07-22T17:32:48.806,30.8183,2.2263,7.6383
2026-07-22T17:32:48.818,30.8183,2.2851,7.6187
2026-07-22T17:32:48.818,30.8322,2.2459,7.6187
2026-07-22T17:32:48.831,30.8322,2.3438,7.697
2026-07-22T17:32:48.832,30.8486,2.3242,7.6187
2026-07-22T17:32:48.863,30.8954,2.2655,7.6578
2026-07-22T17:32:48.863,30.8954,2.3438,7.697
2026-07-22T17:32:48.863,30.9029,2.2655,7.6774
2026-07-22T17:32:48.879,30.9108,2.3438,7.6187
2026-07-22T17:32:48.894,30.9187,2.3438,7.6774
2026-07-22T17:32:48.900,30.9251,2.2655,7.7166
2026-07-22T17:32:48.910,30.9298,2.3047,7.6578
2026-07-22T17:32:48.910,30.94,2.3438,7.6774
2026-07-22T17:32:48.927,30.94,2.4809,7.697
2026-07-22T17:32:48.932,30.9511,2.4221,7.6383
2026-07-22T17:32:48.958,30.97,2.2851,7.6774
2026-07-22T17:32:48.961,30.9743,2.383,7.7166
2026-07-22T17:32:48.961,30.9743,2.3242,7.697
2026-07-22T17:32:48.977,30.9909,2.3438,7.8341
2026-07-22T17:32:48.999,31.0419,2.4026,7.6578
2026-07-22T17:32:49.006,31.0494,2.2655,7.697
2026-07-22T17:32:49.006,31.0515,2.383,7.7166
2026-07-22T17:32:49.024,31.0613,2.3242,7.6383
2026-07-22T17:32:49.031,31.0682,2.4026,7.697
2026-07-22T17:32:49.047,31.0722,2.383,7.6578
2026-07-22T17:32:49.058,31.0776,2.3047,7.6774
2026-07-22T17:32:49.058,31.0855,2.4026,7.7362
2026-07-22T17:32:49.080,31.1025,2.4026,7.697
2026-07-22T17:32:49.080,31.1103,2.2851,7.697
2026-07-22T17:32:49.103,31.1103,2.383,7.7166
2026-07-22T17:32:49.103,31.1166,2.3438,7.7166
2026-07-22T17:32:49.103,31.1309,2.3438,7.6774
2026-07-22T17:32:49.120,31.1309,2.3634,7.6383
2026-07-22T17:32:49.148,31.1837,2.3438,7.697
2026-07-22T17:32:49.148,31.1837,2.4221,7.697
2026-07-22T17:32:49.148,31.1837,2.3242,7.697
2026-07-22T17:32:49.148,31.1938,2.3438,7.7166
2026-07-22T17:32:49.180,31.2096,2.3438,7.6774
2026-07-22T17:32:49.180,31.2105,2.3242,7.7557
2026-07-22T17:32:49.190,31.2191,2.383,7.7362
2026-07-22T17:32:49.201,31.2279,2.3634,7.7166
2026-07-22T17:32:49.214,31.2342,2.3634,7.8145
2026-07-22T17:32:49.239,31.24,2.3438,7.697
2026-07-22T17:32:49.239,31.2423,2.3047,7.7362
2026-07-22T17:32:49.239,31.2476,2.3438,7.7557
2026-07-22T17:32:49.257,31.2505,2.383,7.7166
2026-07-22T17:32:49.259,31.2618,2.383,7.7362
2026-07-22T17:32:49.276,31.2738,2.383,7.7949
2026-07-22T17:32:49.289,31.3208,2.3242,7.7362
2026-07-22T17:32:49.291,31.3221,2.4026,7.8145
2026-07-22T17:32:49.307,31.3291,2.4026,7.7557
2026-07-22T17:32:49.312,31.3291,2.3438,7.8732
2026-07-22T17:32:49.312,31.3291,2.4221,7.8732
2026-07-22T17:32:49.334,31.3551,2.3242,7.8732
2026-07-22T17:32:49.354,31.3618,2.3634,7.8536
2026-07-22T17:32:49.354,31.3618,2.3438,7.8928
2026-07-22T17:32:49.363,31.3722,2.3047,7.8732
2026-07-22T17:32:49.371,31.3812,2.383,7.8928
2026-07-22T17:32:49.379,31.3812,2.3438,7.8536
2026-07-22T17:32:49.390,31.3948,2.3438,7.9124
2026-07-22T17:32:49.402,31.4088,2.383,7.8928
2026-07-22T17:32:49.402,31.4514,2.3634,7.8928
2026-07-22T17:32:49.425,31.4665,2.4221,7.9907
2026-07-22T17:32:49.433,31.4752,2.383,7.9711
2026-07-22T17:32:49.458,31.495,2.2851,7.932
2026-07-22T17:32:49.458,31.5025,2.4026,7.9124
2026-07-22T17:32:49.458,31.5093,2.3047,7.932
2026-07-22T17:32:49.458,31.5093,2.4026,7.8536
2026-07-22T17:32:49.484,31.5156,2.4221,7.7949
2026-07-22T17:32:49.490,31.5201,2.3047,7.9907
2026-07-22T17:32:49.501,31.5201,2.4026,7.8536
2026-07-22T17:32:49.510,31.5389,2.2851,7.7949
2026-07-22T17:32:49.510,31.5389,2.4221,7.8536
2026-07-22T17:32:49.523,31.5451,2.4613,7.8536
2026-07-22T17:32:49.545,31.5599,2.3438,7.7949
2026-07-22T17:32:49.553,31.6049,2.383,7.8536
2026-07-22T17:32:49.572,31.6236,2.3242,7.9124
2026-07-22T17:32:49.572,31.6268,2.4026,7.8536
2026-07-22T17:32:49.580,31.6301,2.3634,7.8536
2026-07-22T17:32:49.601,31.6457,2.3047,7.8732
2026-07-22T17:32:49.604,31.6457,2.383,7.8928
2026-07-22T17:32:49.630,31.6573,2.3634,7.7949
2026-07-22T17:32:49.630,31.6573,2.3242,7.8732
2026-07-22T17:32:49.638,31.6616,2.3242,7.8341
2026-07-22T17:32:49.644,31.6728,2.2851,7.7753
2026-07-22T17:32:49.649,31.6775,2.3634,7.7949
2026-07-22T17:32:49.667,31.6775,2.3047,7.8732
2026-07-22T17:32:49.674,31.6965,2.3438,7.8145
2026-07-22T17:32:49.680,31.7106,2.4026,7.8928
2026-07-22T17:32:49.688,31.7355,2.3242,7.8732
2026-07-22T17:32:49.727,31.7903,2.3242,7.8536
2026-07-22T17:32:49.727,31.7903,2.4026,7.8536
2026-07-22T17:32:49.727,31.7903,2.3242,7.8732
2026-07-22T17:32:49.734,31.8042,2.5592,7.932
2026-07-22T17:32:49.755,31.8091,2.3047,7.8928
2026-07-22T17:32:49.759,31.8091,2.383,7.8732
2026-07-22T17:32:49.759,31.8206,2.3438,7.9124
2026-07-22T17:32:49.774,31.8206,2.3047,7.9124
2026-07-22T17:32:49.783,31.8316,2.4026,7.8928
2026-07-22T17:32:49.790,31.8452,2.2459,7.8732
2026-07-22T17:32:49.801,31.8483,2.3047,7.9516
2026-07-22T17:32:49.806,31.8542,2.3634,7.8536
2026-07-22T17:32:49.838,31.8542,2.3242,7.8732
2026-07-22T17:32:49.839,31.8691,2.3047,7.8536
2026-07-22T17:32:49.847,31.8736,2.3438,7.8732
2026-07-22T17:32:49.871,31.878,2.3242,7.8732
2026-07-22T17:32:49.871,31.878,2.3047,7.9124
2026-07-22T17:32:49.871,31.8824,2.2655,7.7949
2026-07-22T17:32:49.889,31.9336,2.3047,7.8341
2026-07-22T17:32:49.902,31.9462,2.3438,7.8536
2026-07-22T17:32:49.902,31.9479,2.3047,7.8928
2026-07-22T17:32:49.919,31.9542,2.3242,7.9124
2026-07-22T17:32:49.919,31.961,2.3047,7.932
2026-07-22T17:32:49.933,31.9699,2.3242,7.8928
2026-07-22T17:32:49.949,31.9767,2.3047,7.8928
2026-07-22T17:32:49.949,31.9767,2.3242,7.8928
2026-07-22T17:32:49.968,31.9767,2.383,7.8536
2026-07-22T17:32:49.974,31.9767,2.2655,7.8536
2026-07-22T17:32:49.983,32.0083,2.2851,7.8145
2026-07-22T17:32:49.983,32.0104,2.3242,7.7949
2026-07-22T17:32:50.007,32.0216,2.2655,7.8928
2026-07-22T17:32:50.011,32.0315,2.3634,7.8536
2026-07-22T17:32:50.033,32.0836,2.2655,7.8145
2026-07-22T17:32:50.042,32.0879,2.2068,7.8145
2026-07-22T17:32:50.042,32.0879,2.2655,7.8341
2026-07-22T17:32:50.042,32.0879,2.2459,7.8732
2026-07-22T17:32:50.062,32.1148,2.2851,7.7949
2026-07-22T17:32:50.077,32.1238,2.3242,7.7557
2026-07-22T17:32:50.077,32.1311,2.2263,7.8145
2026-07-22T17:32:50.098,32.1353,2.2655,7.7557
2026-07-22T17:32:50.105,32.1353,2.2263,7.7362
2026-07-22T17:32:50.105,32.1551,2.2851,7.7557
2026-07-22T17:32:50.123,32.1676,2.2851,7.7362
2026-07-22T17:32:50.133,32.1756,2.1676,7.7557
2026-07-22T17:32:50.155,32.1927,2.2068,7.8145
2026-07-22T17:32:50.155,32.1927,2.2068,7.7362
2026-07-22T17:32:50.160,32.1983,2.3047,7.7753
2026-07-22T17:33:25.587,67.586,-2.101,12.5139
2026-07-22T17:33:25.590,67.586,-2.1206,12.4551
2026-07-22T17:33:25.590,67.586,-2.1206,12.4747
2026-07-22T17:33:25.590,67.5973,-2.0814,12.5922
2026-07-22T17:33:25.602,67.6063,-2.1206,12.6118
2026-07-22T17:33:25.602,67.6063,-2.1206,12.6901
2026-07-22T17:33:25.620,67.6162,-2.1206,12.6314
2026-07-22T17:33:25.629,67.6189,-2.1793,12.6705
2026-07-22T17:33:25.637,67.6318,-2.1402,12.6509
2026-07-22T17:33:25.645,67.6318,-2.1793,12.6314
2026-07-22T17:33:25.656,67.6459,-2.1598,12.6509
2026-07-22T17:33:25.665,67.6543,-2.1402,12.6314
2026-07-22T17:33:25.681,67.7123,-2.2381,12.6901
2026-07-22T17:33:25.697,67.7206,-2.1598,12.8859
2026-07-22T17:33:25.697,67.7206,-2.1598,12.8076
2026-07-22T17:33:25.703,67.729,-2.1989,12.8663
2026-07-22T17:33:25.715,67.729,-2.1598,12.7293
2026-07-22T17:33:25.730,67.746,-2.1989,12.8663
2026-07-22T17:33:25.747,67.7585,-2.1793,12.8076
2026-07-22T17:33:25.747,67.7585,-2.1793,12.7684
2026-07-22T17:33:25.760,67.7585,-2.1793,12.8272
2026-07-22T17:33:25.760,67.7733,-2.0814,12.8272
2026-07-22T17:33:25.777,67.7733,-2.2185,12.788
2026-07-22T17:33:25.791,67.7856,-2.1206,12.8467
2026-07-22T17:33:25.794,67.7928,-2.1793,12.8076
2026-07-22T17:33:25.824,67.854,-2.1206,12.9251
2026-07-22T17:33:25.824,67.854,-2.1598,12.9446
2026-07-22T17:33:25.824,67.854,-2.1598,12.8859
2026-07-22T17:33:25.837,67.8728,-2.1598,12.9642
2026-07-22T17:33:25.849,67.8844,-2.1206,12.8467
2026-07-22T17:33:25.858,67.8902,-2.2185,12.8859
2026-07-22T17:33:25.858,67.9004,-2.1989,12.9251
2026-07-22T17:33:25.875,67.9186,-2.1793,12.9446
2026-07-22T17:33:25.887,67.9252,-2.2185,12.9838
2026-07-22T17:33:25.887,67.9416,-2.1598,12.9446
2026-07-22T17:33:25.902,67.9533,-2.1989,12.9251
2026-07-22T17:33:25.921,67.9647,-2.1402,13.0034
2026-07-22T17:33:25.928,67.9707,-2.1793,12.8859
2026-07-22T17:33:25.943,68.0275,-2.1989,12.8467
2026-07-22T17:33:25.943,68.0295,-2.101,12.9055
2026-07-22T17:33:25.969,68.0393,-2.2381,12.7684
2026-07-22T17:33:25.969,68.0393,-2.2185,12.8859
2026-07-22T17:33:25.983,68.0523,-2.2185,12.7488
2026-07-22T17:33:25.983,68.0609,-2.1402,12.788
2026-07-22T17:33:26.001,68.0609,-2.1989,12.7684
2026-07-22T17:33:26.011,68.0771,-2.2185,12.8076
2026-07-22T17:33:26.016,68.0771,-2.1793,13.0034
2026-07-22T17:33:26.026,68.0771,-2.1793,12.788
2026-07-22T17:33:26.034,68.0908,-2.1598,12.788
2026-07-22T17:33:26.046,68.1009,-2.1598,12.7293
2026-07-22T17:33:26.054,68.1069,-2.2577,12.7684
2026-07-22T17:33:26.070,68.1225,-2.1402,12.7488
2026-07-22T17:33:26.073,68.1246,-2.1598,12.788
2026-07-22T17:33:26.082,68.1296,-2.2577,12.788
2026-07-22T17:33:26.099,68.1469,-2.1989,12.788
2026-07-22T17:33:26.109,68.1566,-2.2185,12.7488
2026-07-22T17:33:26.109,68.2142,-2.1598,12.8076
2026-07-22T17:33:26.143,68.2223,-2.1793,12.7684
2026-07-22T17:33:26.145,68.2223,-2.2381,12.7684
2026-07-22T17:33:26.145,68.2298,-2.1598,12.8272
2026-07-22T17:33:26.158,68.2418,-2.1793,12.7488
2026-07-22T17:33:26.168,68.2418,-2.1989,12.788
2026-07-22T17:33:26.181,68.2521,-2.1989,12.8272
2026-07-22T17:33:26.181,68.2521,-2.2577,12.8272
2026-07-22T17:33:26.189,68.2654,-2.1793,12.8076
2026-07-22T17:33:26.206,68.2819,-2.1598,12.7488
2026-07-22T17:33:26.206,68.2859,-2.2381,12.7684
2026-07-22T17:33:26.229,68.3079,-2.1989,12.7488
2026-07-22T17:33:26.235,68.3128,-2.2577,12.6314
2026-07-22T17:33:26.257,68.3241,-2.1598,12.6901
2026-07-22T17:33:26.258,68.3316,-2.1793,12.6314
2026-07-22T17:33:26.269,68.3385,-2.2577,12.6314
2026-07-22T17:33:26.275,68.3462,-2.1793,12.6314
2026-07-22T17:33:26.285,68.3491,-2.2381,12.6705
2026-07-22T17:33:26.294,68.3562,-2.2185,12.6901
2026-07-22T17:33:26.299,68.417,-2.2381,12.5922
2026-07-22T17:33:26.331,68.4263,-2.2381,12.6901
2026-07-22T17:33:26.331,68.4314,-2.1402,12.6118
2026-07-22T17:33:26.343,68.4386,-2.1989,12.553
2026-07-22T17:33:26.351,68.4406,-2.1402,12.5922
2026-07-22T17:33:26.351,68.4565,-2.2381,12.5139
2026-07-22T17:33:26.365,68.4611,-2.2772,12.553
2026-07-22T17:33:26.381,68.4786,-2.1793,12.5726
2026-07-22T17:33:26.381,68.4877,-2.2772,12.553
2026-07-22T17:33:26.394,68.4948,-2.2381,12.5922
2026-07-22T17:33:26.394,68.5058,-2.1989,12.5334
2026-07-22T17:33:26.414,68.5123,-2.2772,12.4747
2026-07-22T17:33:26.436,68.5182,-2.1989,12.5139
2026-07-22T17:33:26.436,68.519,-2.1989,12.5334
2026-07-22T17:33:26.453,68.5215,-2.2577,12.5726
2026-07-22T17:33:26.453,68.5266,-2.2185,12.4943
2026-07-22T17:33:26.467,68.532,-1.9444,12.553
2026-07-22T17:33:26.478,68.5447,-2.2185,12.6118
2026-07-22T17:33:26.485,68.5478,-2.2381,12.5139
2026-07-22T17:33:26.492,68.5551,-2.2577,12.5334
2026-07-22T17:33:26.511,68.5933,-2.1793,12.4943
2026-07-22T17:33:26.517,68.6057,-2.2381,12.3964
2026-07-22T17:33:26.522,68.6147,-2.1598,12.4355
2026-07-22T17:33:26.537,68.6214,-2.1598,12.5139
2026-07-22T17:33:26.546,68.6214,-2.2772,12.5922
2026-07-22T17:33:26.558,68.63,-2.1989,12.553
2026-07-22T17:33:26.569,68.6415,-2.2772,12.5334
2026-07-22T17:33:26.584,68.6481,-2.2185,12.5922
2026-07-22T17:33:26.602,68.6559,-2.1793,12.553
2026-07-22T17:33:26.607,68.6586,-2.2772,12.4943
2026-07-22T17:33:26.616,68.6612,-2.2185,12.5334
2026-07-22T17:33:26.623,68.6697,-2.2772,12.4747
2026-07-22T17:33:26.641,68.6697,-2.2185,12.4747
2026-07-22T17:33:26.641,68.6697,-2.1989,12.5139
2026-07-22T17:33:26.650,68.6869,-2.2381,12.553
2026-07-22T17:33:26.655,68.6869,-2.2185,12.5334
2026-07-22T17:33:26.676,68.7064,-2.1598,12.5139
2026-07-22T17:33:26.681,68.7149,-2.2577,12.4943
2026-07-22T17:33:26.684,68.7167,-2.1793,12.4551
2026-07-22T17:33:26.699,68.7653,-2.2968,12.4551
2026-07-22T17:33:26.705,68.7653,-2.2185,12.5139
2026-07-22T17:33:26.719,68.7798,-2.1989,12.4355
2026-07-22T17:33:26.722,68.7955,-2.2577,12.4551
2026-07-22T17:33:26.722,68.8024,-2.1989,12.3768
2026-07-22T17:33:26.750,68.8154,-2.2381,12.3768
2026-07-22T17:33:26.750,68.8194,-2.2185,12.416
2026-07-22T17:33:26.770,68.8326,-2.1989,12.3768
2026-07-22T17:33:26.777,68.8366,-2.2772,12.3572
2026-07-22T17:33:26.790,68.8443,-2.1793,12.4355
2026-07-22T17:33:26.790,68.8443,-2.2577,12.3376
2026-07-22T17:33:26.798,68.8514,-2.2381,12.4355
2026-07-22T17:33:26.815,68.8594,-2.1793,12.3964
2026-07-22T17:33:26.831,68.8695,-2.2772,12.3572
2026-07-22T17:33:26.835,68.8736,-2.2381,12.3572
2026-07-22T17:33:26.843,68.8763,-2.2381,12.2593
2026-07-22T17:33:26.883,68.9309,-2.2185,12.3768
2026-07-22T17:33:26.883,68.9309,-2.1989,12.3964
2026-07-22T17:33:26.883,68.9386,-2.2968,12.3768
2026-07-22T17:33:26.883,68.9386,-2.1793,12.3376
2026-07-22T17:33:26.894,68.9524,-2.2577,12.3964
2026-07-22T17:33:26.907,68.9584,-2.2968,12.3964
2026-07-22T17:33:26.924,68.9682,-2.2185,12.3964
2026-07-22T17:33:26.924,68.9682,-2.2577,12.3768
2026-07-22T17:33:26.944,68.9828,-2.1989,12.3964
2026-07-22T17:33:26.972,68.9903,-2.2772,12.2985
2026-07-22T17:33:26.972,68.9923,-2.2772,12.3768
2026-07-22T17:33:26.973,68.9923,-2.2381,12.3572
2026-07-22T17:33:26.993,68.9985,-2.336,12.4355
2026-07-22T17:33:26.997,68.9985,-2.2577,12.3964
2026-07-22T17:33:26.998,69.0023,-2.2381,12.2985
2026-07-22T17:33:27.005,69.0023,-2.2772,12.2985
2026-07-22T17:33:27.019,69.0162,-2.2772,12.2593
2026-07-22T17:33:27.046,69.0671,-2.2968,12.181
2026-07-22T17:33:27.046,69.0679,-2.2577,12.181
2026-07-22T17:33:27.046,69.0679,-2.1402,12.1418
2026-07-22T17:33:27.060,69.0774,-2.3556,12.181
2026-07-22T17:33:27.097,69.0834,-2.1989,12.2397
2026-07-22T17:33:27.097,69.0879,-2.2772,12.1418
2026-07-22T17:33:27.097,69.0879,-2.1793,12.2202
2026-07-22T17:33:27.097,69.0879,-2.2381,12.2593
2026-07-22T17:33:27.131,69.0951,-2.3164,12.2789
2026-07-22T17:33:27.131,69.1055,-2.1989,12.2202
2026-07-22T17:33:27.131,69.1055,-2.2772,12.181
2026-07-22T17:33:27.142,69.1055,-2.2381,12.181
2026-07-22T17:33:27.149,69.1055,-2.2185,12.2202
2026-07-22T17:33:27.161,69.1553,-2.3164,12.3181
2026-07-22T17:33:27.177,69.1553,-2.1989,12.181
2026-07-22T17:33:27.177,69.1623,-2.2577,12.1614
2026-07-22T17:33:27.177,69.1623,-2.2968,12.181
2026-07-22T17:33:27.206,69.174,-2.1989,12.2006
2026-07-22T17:33:27.206,69.174,-2.2772,12.1223
2026-07-22T17:33:27.224,69.1799,-2.2577,12.1027
2026-07-22T17:33:27.224,69.1799,-2.2577,12.0635
2026-07-22T17:33:27.234,69.1916,-2.2772,12.1418
2026-07-22T17:33:27.268,69.2391,-2.1989,12.1614
2026-07-22T17:33:27.269,69.2391,-2.2968,12.1614
2026-07-22T17:33:27.274,69.2391,-2.2577,12.2202
2026-07-22T17:33:27.274,69.2426,-2.2772,12.1418
2026-07-22T17:33:27.297,69.2527,-2.2772,12.2397
2026-07-22T17:33:27.297,69.2572,-2.2577,12.2593
2026-07-22T17:33:27.308,69.2572,-2.2577,12.1614
2026-07-22T17:33:27.315,69.2767,-2.2772,12.2006
2026-07-22T17:33:27.327,69.2837,-2.2381,12.1223
2026-07-22T17:33:27.351,69.3309,-2.2577,12.1614
2026-07-22T17:33:27.351,69.3366,-2.1402,12.181
2026-07-22T17:33:27.351,69.3386,-2.1793,12.1223
2026-07-22T17:33:27.366,69.3446,-2.3751,12.1614
2026-07-22T17:33:27.381,69.3516,-2.1989,12.2593
2026-07-22T17:33:27.386,69.3577,-2.3164,12.2006
2026-07-22T17:33:27.405,69.3727,-2.2577,12.2006
2026-07-22T17:33:27.405,69.3732,-2.2577,12.1614
2026-07-22T17:33:27.415,69.3785,-2.3164,12.1614
2026-07-22T17:33:27.433,69.4184,-2.1598,12.181
2026-07-22T17:33:27.446,69.4312,-2.3164,12.1223
2026-07-22T17:33:27.446,69.4312,-2.3164,12.2006
2026-07-22T17:33:27.452,69.4443,-2.2772,12.1223
2026-07-22T17:33:27.473,69.4483,-2.2381,12.1027
2026-07-22T17:33:27.497,69.4483,-2.2577,12.1614
2026-07-22T17:33:27.497,69.4483,-2.2577,12.181
2026-07-22T17:33:27.497,69.456,-2.3164,12.2006
2026-07-22T17:33:27.507,69.475,-2.2772,12.1614
2026-07-22T17:33:27.526,69.5217,-2.2577,12.2006
2026-07-22T17:33:27.526,69.5223,-2.2185,12.1614
2026-07-22T17:33:27.539,69.5288,-2.2577,12.0831
2026-07-22T17:33:27.547,69.5338,-2.2577,12.1223
2026-07-22T17:33:27.560,69.5419,-2.1793,12.1027
2026-07-22T17:33:27.577,69.5455,-2.2968,12.2006
2026-07-22T17:33:27.577,69.5475,-2.1793,12.2006
2026-07-22T17:33:27.594,69.5602,-2.2577,12.181
2026-07-22T17:33:27.605,69.5617,-2.336,12.2202
2026-07-22T17:33:27.605,69.5671,-2.1793,12.2202
2026-07-22T17:33:27.619,69.6213,-2.336,12.181
2026-07-22T17:33:27.636,69.6275,-2.2577,12.2397
2026-07-22T17:33:27.636,69.6275,-2.2577,12.181
2026-07-22T17:33:27.649,69.6436,-2.3556,12.2202
2026-07-22T17:33:27.655,69.6497,-2.2577,12.1418
2026-07-22T17:33:27.671,69.6573,-2.2381,12.1027
2026-07-22T17:33:27.680,69.667,-2.2968,12.2006
2026-07-22T17:33:27.687,69.6724,-2.2381,12.1418
2026-07-22T17:33:27.696,69.6817,-2.2968,12.0831
2026-07-22T17:33:27.715,69.7444,-2.1989,12.181
2026-07-22T17:33:27.733,69.7504,-2.2772,12.2006
2026-07-22T17:33:27.733,69.7504,-2.3556,12.2006
2026-07-22T17:33:27.740,69.7611,-2.2381,12.2789
2026-07-22T17:33:27.756,69.7651,-2.2772,12.2202
2026-07-22T17:33:27.756,69.7734,-2.2185,12.181
2026-07-22T17:33:27.774,69.7858,-2.1793,12.1614
2026-07-22T17:33:27.778,69.7905,-2.2968,12.2397
2026-07-22T17:33:27.794,69.7953,-2.1989,12.2593
2026-07-22T17:33:27.794,69.7953,-2.2968,12.181
2026-07-22T17:33:27.820,69.8096,-2.2577,12.2397
2026-07-22T17:33:27.820,69.8096,-2.1793,12.2397
2026-07-22T17:33:27.825,69.8198,-2.336,12.2397
2026-07-22T17:33:27.857,69.8704,-2.2381,12.2397
2026-07-22T17:33:27.857,69.872,-2.2772,12.2006
2026-07-22T17:33:27.857,69.872,-2.2185,12.2593
2026-07-22T17:33:27.878,69.882,-2.2772,12.2789
2026-07-22T17:33:27.879,69.888,-2.3164,12.3572
2026-07-22T17:33:27.889,69.8928,-2.1793,12.2985
2026-07-22T17:33:27.894,69.9026,-2.2968,12.2789
2026-07-22T17:33:27.912,69.9026,-2.2577,12.2985
2026-07-22T17:33:27.918,69.9095,-2.2772,12.3572
2026-07-22T17:33:27.929,69.9199,-2.3164,12.3181
2026-07-22T17:33:27.937,69.9258,-2.2577,12.3181
2026-07-22T17:33:27.948,69.9322,-2.2381,12.1614
2026-07-22T17:33:27.960,69.9813,-2.2577,12.3181
2026-07-22T17:33:27.968,69.9846,-2.2185,12.2593
2026-07-22T17:33:27.985,69.9902,-2.2968,12.2789
2026-07-22T17:33:27.985,69.9973,-2.2772,12.3181
2026-07-22T17:33:27.998,69.9973,-2.2772,12.2202
2026-07-22T17:33:28.011,70.013,-2.2968,12.2202
2026-07-22T17:33:28.017,70.0242,-2.1402,12.2397
2026-07-22T17:33:28.031,70.0385,-2.2577,12.2202
2026-07-22T17:33:28.031,70.0409,-2.2577,12.2397
2026-07-22T17:33:28.048,70.0507,-2.1989,12.2202
2026-07-22T17:33:28.061,70.0586,-2.3164,12.2593
2026-07-22T17:33:28.067,70.0606,-2.2772,12.2397
2026-07-22T17:33:28.085,70.1143,-2.2772,12.181
2026-07-22T17:33:28.097,70.1206,-2.2968,12.2593
2026-07-22T17:33:28.097,70.1206,-2.2772,12.2593
2026-07-22T17:33:28.113,70.132,-2.2968,12.3181
2026-07-22T17:33:28.119,70.1365,-2.2772,12.3181
2026-07-22T17:33:28.126,70.1415,-2.3164,12.2789
2026-07-22T17:33:28.126,70.15,-2.2772,12.3181
2026-07-22T17:33:28.153,70.1556,-2.2577,12.2789
2026-07-22T17:33:28.153,70.1556,-2.336,12.2789
2026-07-22T17:33:28.167,70.1649,-2.2185,12.2985
2026-07-22T17:33:28.179,70.1687,-2.2381,12.2397
2026-07-22T17:33:28.197,70.1735,-2.2968,12.2789
2026-07-22T17:33:28.197,70.1735,-2.2968,12.3376
2026-07-22T17:33:28.209,70.2209,-2.2968,12.2985
2026-07-22T17:33:28.209,70.2209,-2.2381,12.3768
2026-07-22T17:33:28.221,70.2267,-2.2381,12.2985
2026-07-22T17:33:28.243,70.2343,-2.336,12.416
2026-07-22T17:33:28.261,70.2433,-2.2381,12.416
2026-07-22T17:33:28.270,70.2453,-2.3164,12.4355
2026-07-22T17:33:28.270,70.25,-2.2772,12.5726
2026-07-22T17:33:28.284,70.2567,-2.2772,12.5139
2026-07-22T17:33:28.293,70.2614,-2.336,12.4943
2026-07-22T17:33:28.297,70.2654,-2.2185,12.4551
2026-07-22T17:33:28.302,70.2756,-2.2968,12.4943
2026-07-22T17:33:28.316,70.3212,-2.336,12.5334
2026-07-22T17:33:28.332,70.3392,-2.2772,12.553
2026-07-22T17:33:28.332,70.3392,-2.3164,12.4747
2026-07-22T17:33:28.355,70.3444,-2.2185,12.4943
2026-07-22T17:33:28.363,70.3531,-2.2968,12.416
2026-07-22T17:33:28.374,70.3601,-2.2968,12.7097
2026-07-22T17:33:28.394,70.3631,-2.3164,12.4747
2026-07-22T17:33:28.394,70.3631,-2.3164,12.4943
2026-07-22T17:33:28.404,70.3726,-2.2772,12.5334
2026-07-22T17:33:28.410,70.3774,-2.2772,12.5922
2026-07-22T17:33:28.410,70.4167,-2.336,12.6314
2026-07-22T17:33:28.426,70.4249,-2.2185,12.553
2026-07-22T17:33:28.441,70.4285,-2.2968,12.5726
2026-07-22T17:33:28.441,70.431,-2.2968,12.6314
2026-07-22T17:33:28.468,70.4476,-2.2772,12.5726
2026-07-22T17:33:28.468,70.4487,-2.2381,12.6118
2026-07-22T17:33:28.473,70.454,-2.2968,12.6509
2026-07-22T17:33:28.486,70.458,-2.2968,12.6314
2026-07-22T17:33:28.501,70.458,-2.2968,12.6314
2026-07-22T17:33:28.510,70.4696,-2.1989,12.6705
2026-07-22T17:33:28.520,70.5119,-2.3947,12.6705
2026-07-22T17:33:28.540,70.524,-2.2772,12.6509
2026-07-22T17:33:28.540,70.524,-2.3556,12.6314
2026-07-22T17:33:28.577,70.5368,-2.3164,12.8467
2026-07-22T17:33:28.577,70.54,-2.3164,12.7684
2026-07-22T17:33:28.577,70.54,-2.3556,12.7684
2026-07-22T17:33:28.577,70.5421,-2.2968,12.8663
2026-07-22T17:33:28.587,70.5504,-2.3556,12.9055
2026-07-22T17:33:28.598,70.5569,-2.3947,12.8859
2026-07-22T17:33:28.632,70.598,-2.336,12.8859
2026-07-22T17:33:28.632,70.598,-2.3947,12.7684
2026-07-22T17:33:28.632,70.598,-2.336,12.8272
2026-07-22T17:33:28.638,70.6225,-2.2968,12.7488
2026-07-22T17:33:28.647,70.6343,-2.3751,12.8272
2026-07-22T17:33:28.665,70.6375,-2.336,12.9055
2026-07-22T17:33:28.665,70.6403,-2.2381,12.9055
2026-07-22T17:33:28.679,70.6488,-2.336,12.9446
2026-07-22T17:33:28.686,70.6573,-2.3164,12.9446
2026-07-22T17:33:28.696,70.7098,-2.4143,12.9642
2026-07-22T17:33:28.704,70.7098,-2.3164,12.9642
2026-07-22T17:33:28.727,70.7259,-2.336,12.9838
2026-07-22T17:33:28.727,70.7259,-2.336,13.0034
2026-07-22T17:33:28.727,70.7419,-2.2772,13.0621
2026-07-22T17:33:28.751,70.749,-2.3751,13.1013
2026-07-22T17:33:28.759,70.7579,-2.3556,13.16
2026-07-22T17:33:28.766,70.76,-2.3751,13.16
2026-07-22T17:33:28.792,70.7673,-2.3947,13.2188
2026-07-22T17:33:28.792,70.7673,-2.3947,13.2579
2026-07-22T17:33:28.800,70.7748,-2.3947,13.2188
2026-07-22T17:33:28.815,70.8235,-2.3751,13.16
2026-07-22T17:33:28.827,70.8235,-2.4143,13.1013
2026-07-22T17:33:28.827,70.8337,-2.4339,13.1209
2026-07-22T17:33:28.838,70.8337,-2.4535,13.1405
2026-07-22T17:33:28.855,70.8475,-2.4535,13.1209
2026-07-22T17:33:28.855,70.8475,-2.5318,13.0817
2026-07-22T17:33:28.870,70.8567,-2.4535,13.1013
2026-07-22T17:33:28.878,70.8567,-2.4926,13.023
2026-07-22T17:33:28.896,70.877,-2.3947,12.9446
2026-07-22T17:33:28.896,70.8785,-2.336,12.9055
2026-07-22T17:33:28.905,70.8943,-2.473,12.8663
2026-07-22T17:33:28.917,70.9397,-2.4339,12.788
2026-07-22T17:33:28.939,70.9496,-2.3947,12.7684
2026-07-22T17:33:28.939,70.9556,-2.4143,12.8272
2026-07-22T17:33:28.952,70.9632,-2.4339,12.7488
2026-07-22T17:33:28.958,70.9721,-2.4926,12.7293
2026-07-22T17:33:28.962,70.9721,-2.3947,12.7488
2026-07-22T17:33:28.985,70.9917,-2.4535,12.6901
2026-07-22T17:33:28.985,70.9917,-2.3947,12.6901
2026-07-22T17:33:28.991,71.0034,-2.3947,12.6314
2026-07-22T17:33:29.010,71.0074,-2.4143,12.6509
2026-07-22T17:33:29.020,71.0074,-2.3947,12.5726
2026-07-22T17:33:29.027,71.0682,-2.4339,12.553
2026-07-22T17:33:29.041,71.0702,-2.4535,12.5726
2026-07-22T17:33:29.054,71.0831,-2.3556,12.5922
2026-07-22T17:33:29.062,71.0831,-2.4535,12.5922
2026-07-22T17:33:29.068,71.099,-2.3751,12.6509
2026-07-22T17:33:29.084,71.1068,-2.3947,12.6118
2026-07-22T17:33:29.092,71.1147,-2.4535,12.5726
2026-07-22T17:33:29.101,71.1267,-2.4143,12.5139
2026-07-22T17:33:29.101,71.1343,-2.4339,12.4943
2026-07-22T17:33:29.120,71.1343,-2.3947,12.553
2026-07-22T17:33:29.120,71.1487,-2.3947,12.4551
2026-07-22T17:33:29.136,71.1625,-2.4143,12.4943
2026-07-22T17:33:29.136,71.1681,-2.3751,12.5334
2026-07-22T17:33:29.159,71.1789,-2.4926,12.416
2026-07-22T17:33:29.164,71.2346,-2.3947,12.3964
2026-07-22T17:33:29.179,71.2428,-2.4535,12.3964
2026-07-22T17:33:29.179,71.2488,-2.4143,12.3768
2026-07-22T17:33:29.195,71.2578,-2.4143,12.3964
2026-07-22T17:33:29.212,71.2626,-2.3751,12.3376
2026-07-22T17:33:29.228,71.2626,-2.4926,12.3572
2026-07-22T17:33:29.228,71.2626,-2.336,12.3376
2026-07-22T17:33:29.235,71.2756,-2.4535,12.3964
2026-07-22T17:33:29.255,71.2819,-2.3947,12.4747
2026-07-22T17:33:29.259,71.2924,-2.4339,12.3964
2026-07-22T17:33:29.263,71.3019,-2.4926,12.416
2026-07-22T17:33:29.281,71.3072,-2.3947,12.4355
2026-07-22T17:33:29.291,71.3132,-2.4535,12.3572
2026-07-22T17:33:29.297,71.3173,-2.4143,12.3572
2026-07-22T17:33:29.308,71.3253,-2.4143,12.3376
2026-07-22T17:33:29.319,71.3316,-2.4535,12.553
2026-07-22T17:33:29.339,71.3822,-2.3947,12.3964
2026-07-22T17:33:29.339,71.3846,-2.4535,12.3964
2026-07-22T17:33:29.339,71.387,-2.3947,12.5139
2026-07-22T17:33:29.363,71.3932,-2.4339,12.3572
2026-07-22T17:33:29.371,71.4036,-2.4339,12.4355
2026-07-22T17:33:29.386,71.41,-2.4339,12.4747
2026-07-22T17:33:29.391,71.4166,-2.4926,12.553
2026-07-22T17:33:29.391,71.4194,-2.4926,12.553
2026-07-22T17:33:29.410,71.4255,-2.4143,12.4551
2026-07-22T17:33:29.434,71.4346,-2.473,12.5726
2026-07-22T17:33:29.454,71.4481,-2.2577,12.5922
2026-07-22T17:33:29.454,71.4481,-2.4535,12.5922
2026-07-22T17:33:29.454,71.4481,-2.4339,12.6509
2026-07-22T17:33:29.463,71.464,-2.5122,12.5334
2026-07-22T17:33:29.463,71.464,-2.5318,12.553
2026-07-22T17:33:29.499,71.5136,-2.4143,12.7097
2026-07-22T17:33:29.500,71.5259,-2.473,12.6901
2026-07-22T17:33:29.500,71.5276,-2.5318,12.788
2026-07-22T17:33:29.514,71.5366,-2.4143,12.8272
2026-07-22T17:33:29.522,71.5366,-2.4926,12.9251
2026-07-22T17:33:29.532,71.5437,-2.4535,13.0817
2026-07-22T17:33:29.539,71.5485,-2.473,13.023
2026-07-22T17:33:29.548,71.5594,-2.5122,13.1796
2026-07-22T17:33:29.554,71.568,-2.4143,13.1992
2026-07-22T17:33:29.563,71.576,-2.473,13.1405
2026-07-22T17:33:29.577,71.5804,-2.5122,13.1992
2026-07-22T17:33:29.577,71.5956,-2.4339,13.2775
2026-07-22T17:33:29.593,71.6073,-2.5318,13.3363
2026-07-22T17:33:29.614,71.6617,-2.3947,13.2775
2026-07-22T17:33:29.625,71.6637,-2.4535,13.3754
2026-07-22T17:33:29.625,71.6746,-2.5122,13.4146
2026-07-22T17:33:29.625,71.6787,-2.473,13.3754
2026-07-22T17:33:29.642,71.6868,-2.473,13.395
2026-07-22T17:33:29.656,71.7103,-2.4926,13.4537
2026-07-22T17:33:29.665,71.7179,-2.473,13.5125
2026-07-22T17:33:29.677,71.7409,-2.4926,13.4929
2026-07-22T17:33:29.688,71.7446,-2.4926,13.4733
2026-07-22T17:33:29.705,71.7507,-2.5514,13.4929
2026-07-22T17:33:29.718,71.7507,-2.4535,13.4537
2026-07-22T17:33:29.724,71.7507,-2.4926,13.395
2026-07-22T17:33:29.724,71.7507,-2.4926,13.4146
2026-07-22T17:33:29.736,71.7606,-2.473,13.395
2026-07-22T17:33:29.736,71.7667,-2.5514,13.3558
2026-07-22T17:33:29.767,71.815,-2.473,13.4342
2026-07-22T17:33:29.767,71.815,-2.473,13.4929
2026-07-22T17:33:29.767,71.8248,-2.5122,13.4537
2026-07-22T17:33:29.792,71.8351,-2.4926,13.4342
2026-07-22T17:33:29.807,71.8391,-2.5318,13.395
2026-07-22T17:33:29.815,71.8391,-2.5514,13.4733
2026-07-22T17:33:29.815,71.8391,-2.4535,13.3558
2026-07-22T17:33:29.827,71.8505,-2.5514,13.3558
2026-07-22T17:33:29.846,71.8505,-2.4535,13.395
2026-07-22T17:33:29.846,71.8557,-2.473,13.3363
2026-07-22T17:33:29.899,71.8689,-2.5318,13.3558
2026-07-22T17:33:29.899,71.8749,-2.4339,13.2384
2026-07-22T17:33:29.899,71.8749,-2.571,13.2188
2026-07-22T17:33:29.899,71.8749,-2.473,13.2579
2026-07-22T17:33:29.899,71.8788,-2.5318,13.2188
2026-07-22T17:33:29.926,71.9218,-2.5122,13.3167
2026-07-22T17:33:29.926,71.9218,-2.5122,13.2971
2026-07-22T17:33:29.926,71.9218,-2.5318,13.2971
2026-07-22T17:33:29.935,71.9355,-2.4535,13.3754
2026-07-22T17:33:29.956,71.9448,-2.5122,13.3558
2026-07-22T17:33:29.959,71.9448,-2.571,13.4146
2026-07-22T17:33:29.968,71.9491,-2.5122,13.4929
2026-07-22T17:33:29.992,71.9627,-2.5318,13.3754
2026-07-22T17:33:29.997,71.9652,-2.5318,13.4146
2026-07-22T17:33:29.997,71.9652,-2.4926,13.3363
2026-07-22T17:33:30.007,71.9687,-2.571,13.4929
2026-07-22T17:33:30.040,72.029,-2.5318,13.4146
2026-07-22T17:33:30.041,72.029,-2.5318,13.395
2026-07-22T17:33:30.041,72.029,-2.5318,13.395
2026-07-22T17:33:30.050,72.0391,-2.4926,13.395
2026-07-22T17:33:30.062,72.0461,-2.5905,13.395
2026-07-22T17:33:30.066,72.0502,-2.4535,13.5516
2026-07-22T17:33:30.091,72.0542,-2.4926,13.4929
2026-07-22T17:33:30.094,72.0601,-2.571,13.5321
2026-07-22T17:33:30.106,72.0698,-2.4926,13.4146
2026-07-22T17:33:30.110,72.0738,-2.5514,13.3363
2026-07-22T17:33:30.128,72.123,-2.473,13.3754
2026-07-22T17:33:30.133,72.123,-2.4926,13.2579
2026-07-22T17:33:30.133,72.123,-2.571,13.3167
2026-07-22T17:33:30.157,72.1366,-2.4535,13.3363
2026-07-22T17:33:30.183,72.1382,-2.473,13.2971
2026-07-22T17:33:30.183,72.1421,-2.473,13.3754
2026-07-22T17:33:30.183,72.1433,-2.4926,13.2971
2026-07-22T17:33:30.196,72.1459,-2.5514,13.2188
2026-07-22T17:33:30.202,72.1539,-2.4339,13.2775
2026-07-22T17:33:30.206,72.159,-2.5318,13.2579
2026-07-22T17:33:30.227,72.2017,-2.5122,13.2384
2026-07-22T17:33:30.227,72.2017,-2.5122,13.1992
2026-07-22T17:33:30.236,72.2072,-2.571,13.2384
2026-07-22T17:33:30.242,72.2133,-2.5318,13.2775
2026-07-22T17:33:30.265,72.2133,-2.5122,13.3167
2026-07-22T17:33:30.275,72.2234,-2.5514,13.3558
2026-07-22T17:33:30.283,72.228,-2.473,13.3754
2026-07-22T17:33:30.288,72.2356,-2.5318,13.3754
2026-07-22T17:33:30.309,72.2856,-2.473,13.2971
2026-07-22T17:33:30.320,72.2856,-2.4143,13.3167
2026-07-22T17:33:30.320,72.2856,-2.473,13.3558
2026-07-22T17:33:30.330,72.304,-2.473,13.3167
2026-07-22T17:33:30.352,72.3155,-2.571,13.3558
2026-07-22T17:33:30.366,72.3238,-2.5318,13.3558
2026-07-22T17:33:30.371,72.3293,-2.5318,13.3558
2026-07-22T17:33:30.371,72.3293,-2.5514,13.395
2026-07-22T17:33:30.388,72.3764,-2.4926,13.2384
2026-07-22T17:33:30.388,72.3803,-2.5318,13.1992
2026-07-22T17:33:30.402,72.3864,-2.473,13.2188
2026-07-22T17:33:30.414,72.3923,-2.4535,13.16
2026-07-22T17:33:30.432,72.4028,-2.5905,13.1992
2026-07-22T17:33:30.438,72.408,-2.4535,13.1013
2026-07-22T17:33:30.441,72.408,-2.5318,13.0425
2026-07-22T17:33:30.449,72.408,-2.5318,13.0621
2026-07-22T17:33:30.458,72.408,-2.3947,13.0621
2026-07-22T17:33:30.464,72.4715,-2.5514,13.0817
2026-07-22T17:33:30.473,72.4874,-2.473,13.1209
2026-07-22T17:33:30.489,72.4874,-2.473,13.0817
2026-07-22T17:33:30.489,72.4979,-2.5514,13.0817
2026-07-22T17:33:30.509,72.5051,-2.4535,13.1796
2026-07-22T17:33:30.521,72.526,-2.5122,13.1013
2026-07-22T17:33:30.521,72.5321,-2.4926,13.2775
2026-07-22T17:33:30.537,72.5599,-2.4926,13.1992
2026-07-22T17:33:30.537,72.573,-2.571,13.1992
2026-07-22T17:33:30.563,72.5829,-2.4535,13.1405
